EMG_s0,EMG_s1,EMG_s2,EMG_s3,EMG_s4,EMG_s5,EMG_s6,EMG_s7,timestamp
0.0,-1.0,1.0,3.0,-3.0,-3.0,-2.0,0.0,1650823685454572.0
1.0,2.0,-2.0,-7.0,-2.0,2.0,-1.0,0.0,1650823685454572.0
-3.0,-4.0,5.0,-1.0,-1.0,-2.0,-2.0,-2.0,1650823685455572.0
1.0,-4.0,-9.0,-3.0,-2.0,-3.0,-4.0,-2.0,1650823685455572.0
0.0,-3.0,-1.0,-2.0,0.0,-6.0,-2.0,-2.0,1650823685459589.0
1.0,0.0,2.0,4.0,-6.0,-1.0,-1.0,0.0,1650823685459589.0
-3.0,-1.0,-4.0,-5.0,3.0,6.0,-2.0,-2.0,1650823685460560.0
-4.0,0.0,2.0,0.0,-5.0,-9.0,-1.0,-1.0,1650823685460560.0
-2.0,-3.0,-1.0,0.0,0.0,0.0,-4.0,0.0,1650823685465573.0
0.0,0.0,-2.0,5.0,-3.0,-6.0,-2.0,-1.0,1650823685465573.0
0.0,-1.0,0.0,-5.0,-2.0,1.0,0.0,-1.0,1650823685474521.0
-3.0,-2.0,-6.0,-2.0,4.0,3.0,0.0,0.0,1650823685474521.0
0.0,1.0,-2.0,0.0,0.0,1.0,-1.0,-1.0,1650823685488611.0
-2.0,-3.0,-2.0,-4.0,-5.0,-3.0,-2.0,0.0,1650823685488611.0
0.0,-1.0,-2.0,4.0,-3.0,-2.0,-1.0,0.0,1650823685496591.0
0.0,1.0,3.0,2.0,12.0,3.0,0.0,-2.0,1650823685496591.0
0.0,0.0,1.0,-1.0,-8.0,-2.0,2.0,-1.0,1650823685504689.0
-1.0,0.0,-1.0,2.0,9.0,9.0,1.0,-1.0,1650823685504689.0
-2.0,1.0,-6.0,-1.0,-9.0,-11.0,0.0,-2.0,1650823685526628.0
1.0,-1.0,6.0,3.0,-1.0,-3.0,0.0,1.0,1650823685526628.0
-2.0,-1.0,-4.0,-6.0,-1.0,1.0,-2.0,0.0,1650823685528624.0
-2.0,-3.0,-5.0,-5.0,-4.0,1.0,-2.0,-2.0,1650823685528624.0
1.0,1.0,4.0,0.0,7.0,9.0,1.0,-1.0,1650823685574352.0
0.0,1.0,-3.0,-4.0,-8.0,-11.0,-2.0,-1.0,1650823685574352.0
-3.0,-3.0,-7.0,-7.0,-10.0,-12.0,-3.0,-2.0,1650823685574352.0
1.0,2.0,4.0,9.0,8.0,8.0,0.0,0.0,1650823685574352.0
-1.0,-2.0,-2.0,-1.0,10.0,6.0,2.0,2.0,1650823685575353.0
-1.0,1.0,0.0,-1.0,6.0,9.0,-2.0,1.0,1650823685575353.0
1.0,-1.0,1.0,-4.0,-12.0,-10.0,1.0,-2.0,1650823685578372.0
-1.0,0.0,-1.0,-2.0,0.0,-2.0,0.0,-1.0,1650823685578372.0
0.0,-1.0,1.0,2.0,-3.0,-8.0,0.0,1.0,1650823685585326.0
-1.0,-2.0,0.0,0.0,12.0,4.0,-2.0,-1.0,1650823685585326.0
0.0,0.0,0.0,0.0,-9.0,1.0,-2.0,-1.0,1650823685593329.0
0.0,-2.0,-1.0,-4.0,-4.0,-3.0,-2.0,0.0,1650823685593329.0
-1.0,1.0,1.0,4.0,-3.0,5.0,1.0,-1.0,1650823685602285.0
-1.0,0.0,-2.0,-1.0,-1.0,-4.0,-1.0,0.0,1650823685602285.0
-1.0,0.0,1.0,3.0,7.0,6.0,-1.0,-1.0,1650823685616250.0
-1.0,-1.0,-1.0,2.0,0.0,2.0,-1.0,-1.0,1650823685616250.0
0.0,-3.0,-2.0,-2.0,2.0,5.0,-1.0,-3.0,1650823685623288.0
1.0,2.0,1.0,4.0,-6.0,-15.0,1.0,1.0,1650823685623288.0
-2.0,0.0,1.0,-6.0,1.0,-3.0,-4.0,0.0,1650823685654538.0
-1.0,1.0,-4.0,-6.0,-8.0,2.0,0.0,-1.0,1650823685654538.0
0.0,1.0,1.0,-4.0,-5.0,-11.0,-2.0,-2.0,1650823685655538.0
0.0,-2.0,-3.0,1.0,-1.0,11.0,2.0,0.0,1650823685655538.0
-1.0,2.0,1.0,8.0,19.0,10.0,-2.0,0.0,1650823685661536.0
0.0,-1.0,-6.0,-10.0,-14.0,-13.0,-1.0,-2.0,1650823685661536.0
-2.0,-1.0,-3.0,2.0,-6.0,-1.0,-1.0,-2.0,1650823685667505.0
-2.0,0.0,-1.0,-1.0,0.0,0.0,-2.0,-2.0,1650823685667505.0
1.0,-1.0,6.0,9.0,1.0,-4.0,3.0,0.0,1650823685684162.0
-3.0,1.0,-6.0,-5.0,6.0,4.0,0.0,-1.0,1650823685684162.0
0.0,-1.0,-2.0,-2.0,-3.0,-4.0,-2.0,1.0,1650823685686091.0
-2.0,-1.0,1.0,-4.0,-1.0,-1.0,-1.0,-2.0,1650823685686091.0
1.0,-3.0,-3.0,-2.0,-3.0,2.0,0.0,-1.0,1650823685707066.0
-1.0,-1.0,4.0,1.0,-5.0,-3.0,-1.0,-2.0,1650823685707066.0
-2.0,-3.0,-3.0,-1.0,-1.0,-2.0,-1.0,-1.0,1650823685709030.0
2.0,4.0,4.0,7.0,9.0,7.0,3.0,1.0,1650823685709030.0
-1.0,0.0,-3.0,-3.0,3.0,1.0,1.0,0.0,1650823685721063.0
-1.0,-1.0,4.0,0.0,-1.0,7.0,1.0,-1.0,1650823685721063.0
-1.0,-6.0,-9.0,-4.0,-12.0,-14.0,-3.0,0.0,1650823685727979.0
1.0,1.0,6.0,3.0,-3.0,-2.0,0.0,0.0,1650823685727979.0
-3.0,0.0,3.0,-7.0,3.0,-2.0,-1.0,0.0,1650823685743902.0
-2.0,-2.0,-9.0,0.0,-2.0,3.0,0.0,-1.0,1650823685743902.0
-1.0,0.0,-3.0,-4.0,0.0,1.0,-1.0,-2.0,1650823685745898.0
-1.0,-1.0,1.0,-1.0,-6.0,-1.0,0.0,-2.0,1650823685745898.0
1.0,1.0,3.0,7.0,6.0,4.0,3.0,2.0,1650823685766816.0
0.0,-3.0,2.0,-3.0,4.0,-3.0,-2.0,0.0,1650823685766816.0
0.0,1.0,0.0,-2.0,-2.0,4.0,1.0,-2.0,1650823685768762.0
0.0,1.0,-3.0,-4.0,-1.0,-10.0,0.0,-1.0,1650823685768762.0
-1.0,2.0,-3.0,-2.0,-10.0,-3.0,-1.0,0.0,1650823685780778.0
-2.0,-2.0,4.0,3.0,3.0,8.0,-2.0,-1.0,1650823685780778.0
-1.0,-1.0,-2.0,0.0,-6.0,-13.0,-2.0,1.0,1650823685787761.0
-1.0,-4.0,2.0,-6.0,-4.0,4.0,-1.0,0.0,1650823685787761.0
0.0,-1.0,-4.0,4.0,5.0,4.0,3.0,1.0,1650823685804727.0
-2.0,-2.0,2.0,1.0,-8.0,-5.0,-1.0,0.0,1650823685804727.0
-2.0,6.0,4.0,-3.0,2.0,4.0,1.0,-1.0,1650823685805727.0
0.0,1.0,0.0,3.0,16.0,9.0,1.0,-2.0,1650823685805727.0
-1.0,0.0,-6.0,-6.0,-14.0,-7.0,-2.0,-1.0,1650823685827056.0
1.0,1.0,1.0,3.0,5.0,-6.0,1.0,1.0,1650823685827056.0
1.0,-3.0,0.0,-2.0,-7.0,0.0,-2.0,-2.0,1650823685827988.0
0.0,-1.0,-5.0,-1.0,0.0,-3.0,-1.0,-1.0,1650823685827988.0
1.0,0.0,0.0,0.0,10.0,17.0,1.0,0.0,1650823685841019.0
2.0,-2.0,-2.0,-1.0,-4.0,-15.0,0.0,0.0,1650823685841019.0
-1.0,3.0,4.0,4.0,8.0,11.0,3.0,0.0,1650823685848000.0
0.0,-3.0,1.0,-4.0,-9.0,-3.0,-1.0,0.0,1650823685848000.0
-2.0,-5.0,-7.0,-4.0,-2.0,-2.0,-3.0,-3.0,1650823685863983.0
0.0,2.0,2.0,4.0,3.0,0.0,0.0,1.0,1650823685863983.0
-1.0,-3.0,-5.0,-4.0,-3.0,-5.0,-2.0,0.0,1650823685865912.0
-1.0,0.0,2.0,-1.0,-6.0,-5.0,-1.0,-1.0,1650823685865912.0
0.0,4.0,9.0,3.0,2.0,-5.0,-1.0,-1.0,1650823685887010.0
0.0,-2.0,-11.0,-6.0,-4.0,-1.0,0.0,-3.0,1650823685887010.0
0.0,1.0,8.0,11.0,5.0,1.0,0.0,1.0,1650823685887968.0
-3.0,-2.0,-9.0,-12.0,-7.0,2.0,1.0,-1.0,1650823685887968.0
-1.0,-5.0,-1.0,-3.0,9.0,8.0,-2.0,0.0,1650823685900973.0
-1.0,7.0,9.0,4.0,-9.0,-12.0,-2.0,-1.0,1650823685900973.0
-1.0,-1.0,0.0,-3.0,-4.0,-4.0,1.0,0.0,1650823685907914.0
0.0,-3.0,-10.0,-1.0,-3.0,-1.0,0.0,0.0,1650823685907914.0
-2.0,-2.0,-1.0,-1.0,-2.0,-1.0,0.0,-2.0,1650823685923914.0
1.0,0.0,0.0,6.0,12.0,9.0,1.0,2.0,1650823685923914.0
1.0,-1.0,-4.0,-2.0,-3.0,-3.0,-4.0,0.0,1650823685925840.0
-3.0,-3.0,3.0,1.0,-2.0,1.0,0.0,-1.0,1650823685925840.0
-1.0,-1.0,-2.0,-5.0,-7.0,-4.0,-1.0,0.0,1650823685946791.0
-2.0,-4.0,-3.0,-2.0,3.0,10.0,-3.0,-2.0,1650823685946791.0
1.0,3.0,0.0,-2.0,-7.0,-15.0,-1.0,1.0,1650823685948791.0
0.0,0.0,2.0,3.0,1.0,0.0,1.0,0.0,1650823685948791.0
1.0,0.0,1.0,4.0,2.0,-2.0,2.0,0.0,1650823685960806.0
1.0,2.0,-2.0,-3.0,0.0,4.0,-1.0,1.0,1650823685960806.0
-2.0,-2.0,-2.0,0.0,4.0,6.0,0.0,-1.0,1650823685969723.0
-1.0,-2.0,-3.0,-3.0,-5.0,-1.0,-2.0,1.0,1650823685969723.0
-2.0,-1.0,-1.0,3.0,14.0,-4.0,-1.0,-3.0,1650823685984707.0
0.0,-1.0,1.0,-2.0,-20.0,-5.0,0.0,0.0,1650823685984707.0
0.0,5.0,2.0,0.0,6.0,7.0,1.0,-1.0,1650823685986676.0
0.0,-2.0,3.0,4.0,1.0,-10.0,-1.0,0.0,1650823685986676.0
1.0,-1.0,7.0,-3.0,-9.0,-7.0,-2.0,1.0,1650823686006684.0
-1.0,-2.0,-12.0,-8.0,7.0,5.0,0.0,-2.0,1650823686006684.0
2.0,1.0,4.0,4.0,2.0,-1.0,-1.0,1.0,1650823686008642.0
0.0,2.0,1.0,-1.0,-1.0,1.0,-1.0,-1.0,1650823686008642.0
1.0,-3.0,2.0,0.0,-4.0,0.0,-1.0,-2.0,1650823686020653.0
-3.0,-1.0,0.0,0.0,4.0,-1.0,-1.0,-2.0,1650823686020653.0
0.0,-4.0,-2.0,-2.0,1.0,11.0,-1.0,-1.0,1650823686029563.0
0.0,2.0,0.0,4.0,1.0,-10.0,-1.0,-1.0,1650823686029563.0
-1.0,-5.0,-13.0,-8.0,-9.0,-6.0,-2.0,-1.0,1650823686044522.0
0.0,-2.0,0.0,-1.0,4.0,6.0,0.0,0.0,1650823686044522.0
0.0,-2.0,-3.0,-3.0,4.0,7.0,-2.0,-1.0,1650823686045542.0
-1.0,-3.0,2.0,1.0,-8.0,-7.0,-2.0,0.0,1650823686045542.0
-2.0,3.0,2.0,3.0,1.0,3.0,2.0,2.0,1650823686066613.0
-1.0,-1.0,0.0,0.0,14.0,-6.0,-3.0,-1.0,1650823686066613.0
-1.0,-1.0,2.0,-4.0,-18.0,-2.0,-3.0,-1.0,1650823686068567.0
-1.0,-1.0,-4.0,-3.0,1.0,5.0,0.0,0.0,1650823686068567.0
-1.0,1.0,-1.0,3.0,-5.0,-3.0,1.0,-2.0,1650823686080508.0
0.0,-1.0,2.0,4.0,5.0,1.0,-2.0,0.0,1650823686080508.0
-1.0,-5.0,-6.0,-5.0,7.0,3.0,0.0,0.0,1650823686089484.0
0.0,1.0,1.0,-1.0,2.0,7.0,0.0,1.0,1650823686089484.0
0.0,1.0,-1.0,-2.0,-6.0,-9.0,-2.0,-1.0,1650823686104583.0
0.0,4.0,9.0,-2.0,-18.0,-10.0,-1.0,0.0,1650823686104583.0
-1.0,-1.0,-10.0,4.0,4.0,3.0,1.0,-1.0,1650823686105613.0
0.0,2.0,0.0,0.0,14.0,14.0,4.0,2.0,1650823686105613.0
0.0,-3.0,-1.0,-1.0,2.0,3.0,-2.0,-2.0,1650823686126611.0
-3.0,0.0,3.0,0.0,-2.0,6.0,-1.0,-2.0,1650823686126611.0
-3.0,1.0,3.0,0.0,-12.0,-19.0,-2.0,-2.0,1650823686128606.0
0.0,3.0,3.0,3.0,2.0,4.0,-1.0,-2.0,1650823686128606.0
1.0,3.0,-9.0,-2.0,-12.0,-1.0,-1.0,-1.0,1650823686140601.0
-1.0,-11.0,0.0,-3.0,-3.0,-2.0,-3.0,0.0,1650823686140601.0
-1.0,0.0,4.0,1.0,6.0,8.0,2.0,-1.0,1650823686156542.0
0.0,-4.0,-5.0,-1.0,0.0,-3.0,-3.0,-1.0,1650823686156542.0
1.0,1.0,0.0,0.0,4.0,12.0,-2.0,0.0,1650823686164618.0
-1.0,-4.0,-2.0,-1.0,-9.0,-16.0,1.0,-2.0,1650823686164618.0
0.0,4.0,1.0,0.0,-2.0,-4.0,-1.0,1.0,1650823686165626.0
1.0,-2.0,-2.0,-4.0,2.0,2.0,-2.0,-2.0,1650823686165626.0
1.0,-1.0,2.0,5.0,2.0,2.0,1.0,-1.0,1650823686186819.0
3.0,2.0,-2.0,1.0,6.0,-1.0,1.0,4.0,1650823686186819.0
-2.0,-4.0,1.0,-2.0,1.0,-3.0,-2.0,-2.0,1650823686188747.0
-1.0,1.0,-1.0,-2.0,-12.0,-7.0,-2.0,-1.0,1650823686188747.0
-1.0,-5.0,-6.0,-3.0,-2.0,-1.0,-4.0,-1.0,1650823686200749.0
-2.0,1.0,-1.0,0.0,6.0,3.0,-1.0,-3.0,1650823686200749.0
0.0,-1.0,3.0,1.0,-9.0,-4.0,1.0,3.0,1650823686209724.0
1.0,0.0,5.0,-2.0,-5.0,-2.0,0.0,-1.0,1650823686209724.0
-1.0,0.0,0.0,0.0,-1.0,-2.0,-1.0,-1.0,1650823686224690.0
0.0,3.0,4.0,9.0,18.0,7.0,1.0,1.0,1650823686224690.0
-1.0,-2.0,-4.0,-13.0,-15.0,-6.0,-5.0,-1.0,1650823686226646.0
-1.0,-3.0,1.0,4.0,7.0,11.0,-1.0,-1.0,1650823686226646.0
0.0,3.0,4.0,-3.0,-2.0,-8.0,4.0,1.0,1650823686246593.0
0.0,-6.0,-6.0,4.0,5.0,2.0,1.0,1.0,1650823686246593.0
0.0,0.0,2.0,1.0,3.0,1.0,-1.0,-2.0,1650823686248614.0
-1.0,-3.0,-5.0,-2.0,-1.0,-2.0,0.0,-2.0,1650823686248614.0
-1.0,-1.0,3.0,2.0,-6.0,1.0,-3.0,2.0,1650823686260618.0
0.0,-2.0,-2.0,4.0,-1.0,6.0,0.0,-2.0,1650823686260618.0
-2.0,0.0,-6.0,-5.0,0.0,-12.0,0.0,0.0,1650823686269532.0
0.0,-1.0,2.0,-3.0,-8.0,-8.0,-1.0,0.0,1650823686269532.0
0.0,-4.0,-7.0,-2.0,4.0,3.0,0.0,-2.0,1650823686284557.0
1.0,2.0,2.0,-1.0,-4.0,-3.0,0.0,1.0,1650823686284557.0
1.0,1.0,-1.0,7.0,7.0,14.0,1.0,0.0,1650823686285488.0
-2.0,-7.0,-5.0,-1.0,-1.0,-3.0,-2.0,0.0,1650823686285488.0
0.0,2.0,7.0,0.0,2.0,3.0,2.0,0.0,1650823686306653.0
0.0,2.0,-2.0,-2.0,-7.0,-9.0,0.0,1.0,1650823686306653.0
-1.0,-5.0,-4.0,-2.0,0.0,-4.0,-1.0,-2.0,1650823686308582.0
-1.0,1.0,-8.0,-1.0,1.0,1.0,1.0,1.0,1650823686308582.0
-2.0,-2.0,1.0,0.0,-6.0,-2.0,-1.0,-1.0,1650823686320622.0
-1.0,-8.0,-4.0,-5.0,-4.0,-3.0,-2.0,-1.0,1650823686320622.0
2.0,7.0,5.0,5.0,4.0,6.0,1.0,0.0,1650823686329526.0
1.0,1.0,8.0,10.0,8.0,-2.0,3.0,0.0,1650823686329526.0
-1.0,0.0,-8.0,-15.0,4.0,5.0,0.0,-1.0,1650823686344552.0
-1.0,-1.0,-4.0,-3.0,-4.0,-3.0,-2.0,-1.0,1650823686344552.0
-1.0,-4.0,1.0,-1.0,-4.0,-4.0,-3.0,1.0,1650823686345484.0
0.0,-3.0,-2.0,2.0,-7.0,-2.0,-4.0,1.0,1650823686345484.0
0.0,0.0,2.0,4.0,5.0,3.0,1.0,-1.0,1650823686366495.0
0.0,3.0,2.0,1.0,-1.0,-6.0,-1.0,-3.0,1650823686366495.0
0.0,-3.0,-4.0,-3.0,-16.0,-13.0,2.0,0.0,1650823686368422.0
-1.0,1.0,0.0,-1.0,-1.0,4.0,0.0,-1.0,1650823686368422.0
1.0,0.0,1.0,2.0,3.0,-10.0,-2.0,0.0,1650823686389432.0
-1.0,0.0,-2.0,-3.0,-8.0,3.0,0.0,-2.0,1650823686389432.0
-3.0,1.0,1.0,4.0,14.0,9.0,-1.0,-3.0,1650823686390363.0
-1.0,-3.0,-4.0,-4.0,-6.0,-6.0,0.0,-1.0,1650823686390363.0
0.0,1.0,0.0,0.0,-3.0,6.0,-1.0,-1.0,1650823686404353.0
0.0,0.0,2.0,-3.0,-2.0,2.0,-1.0,-1.0,1650823686404353.0
1.0,-6.0,-10.0,-2.0,3.0,2.0,-1.0,-2.0,1650823686406320.0
-1.0,2.0,5.0,-2.0,2.0,2.0,-1.0,0.0,1650823686406320.0
-1.0,0.0,-1.0,0.0,-6.0,2.0,-1.0,0.0,1650823686426715.0
0.0,2.0,3.0,4.0,2.0,-7.0,2.0,2.0,1650823686426715.0
0.0,1.0,5.0,2.0,-2.0,2.0,1.0,0.0,1650823686428643.0
-1.0,-1.0,-4.0,-6.0,5.0,2.0,-1.0,-2.0,1650823686428643.0
0.0,-4.0,-5.0,0.0,0.0,-4.0,0.0,0.0,1650823686449647.0
-1.0,-1.0,2.0,1.0,-4.0,2.0,0.0,1.0,1650823686449647.0
1.0,4.0,4.0,6.0,8.0,5.0,1.0,0.0,1650823686450585.0
0.0,-1.0,-3.0,-11.0,-7.0,-6.0,-3.0,-1.0,1650823686450585.0
-2.0,-3.0,4.0,0.0,6.0,-8.0,-2.0,0.0,1650823686464565.0
-2.0,-1.0,-1.0,-4.0,-12.0,6.0,2.0,0.0,1650823686464565.0
-1.0,-2.0,-3.0,0.0,0.0,-5.0,-3.0,-1.0,1650823686465545.0
1.0,4.0,5.0,6.0,-1.0,-1.0,-1.0,-1.0,1650823686465545.0
-3.0,-1.0,-6.0,-5.0,-4.0,-4.0,-1.0,-2.0,1650823686486704.0
1.0,1.0,-6.0,-1.0,6.0,5.0,0.0,-1.0,1650823686486704.0
-1.0,-1.0,7.0,-1.0,2.0,5.0,-1.0,1.0,1650823686488632.0
0.0,3.0,-3.0,-1.0,4.0,-4.0,2.0,0.0,1650823686488632.0
2.0,2.0,2.0,10.0,-9.0,-7.0,1.0,1.0,1650823686509699.0
-1.0,0.0,1.0,2.0,8.0,12.0,-3.0,-1.0,1650823686509699.0
-2.0,0.0,-3.0,-5.0,-7.0,-11.0,-1.0,-1.0,1650823686510672.0
1.0,-2.0,-4.0,1.0,0.0,2.0,0.0,0.0,1650823686510672.0
-1.0,-1.0,4.0,0.0,-2.0,-5.0,-2.0,-1.0,1650823686523661.0
0.0,2.0,2.0,-4.0,-2.0,2.0,-2.0,-1.0,1650823686523661.0
-1.0,-2.0,-7.0,4.0,9.0,2.0,1.0,1.0,1650823686530617.0
0.0,-4.0,0.0,-2.0,8.0,2.0,0.0,-1.0,1650823686530617.0
-1.0,0.0,-1.0,-1.0,-12.0,3.0,-2.0,-3.0,1650823686545576.0
0.0,2.0,4.0,8.0,-2.0,-7.0,-1.0,1.0,1650823686545576.0
-1.0,2.0,9.0,-4.0,2.0,5.0,-2.0,-1.0,1650823686554552.0
-2.0,-3.0,-8.0,-3.0,-1.0,-2.0,1.0,-1.0,1650823686554552.0
2.0,4.0,0.0,4.0,8.0,1.0,-1.0,0.0,1650823686569538.0
-1.0,0.0,-8.0,-10.0,-3.0,3.0,0.0,-1.0,1650823686569538.0
1.0,1.0,8.0,1.0,-4.0,-10.0,0.0,0.0,1650823686570537.0
0.0,-1.0,-11.0,-2.0,-8.0,-3.0,0.0,2.0,1650823686570537.0
-1.0,0.0,3.0,-4.0,1.0,5.0,2.0,-2.0,1650823686591603.0
-1.0,0.0,1.0,10.0,7.0,1.0,2.0,2.0,1650823686591603.0
0.0,0.0,-2.0,5.0,13.0,9.0,1.0,2.0,1650823686593590.0
0.0,0.0,2.0,-3.0,-15.0,-4.0,-2.0,0.0,1650823686593590.0
-1.0,-1.0,-1.0,-5.0,0.0,0.0,1.0,-1.0,1650823686605565.0
-2.0,-2.0,-2.0,-5.0,-5.0,-9.0,-3.0,-2.0,1650823686605565.0
-1.0,-5.0,-7.0,-6.0,-6.0,-1.0,-3.0,-2.0,1650823686614515.0
-1.0,5.0,10.0,11.0,11.0,9.0,3.0,0.0,1650823686614515.0
-2.0,-7.0,-5.0,-5.0,4.0,3.0,-2.0,0.0,1650823686629584.0
-1.0,-2.0,1.0,-6.0,-23.0,-19.0,-3.0,-1.0,1650823686629584.0
3.0,3.0,-2.0,7.0,-1.0,-2.0,3.0,-1.0,1650823686630566.0
0.0,2.0,5.0,3.0,3.0,6.0,1.0,0.0,1650823686630566.0
-1.0,-1.0,-4.0,-4.0,5.0,4.0,1.0,0.0,1650823686667577.0
0.0,-2.0,-7.0,-5.0,4.0,1.0,-1.0,-3.0,1650823686667577.0
-1.0,-2.0,0.0,-8.0,-15.0,-6.0,-4.0,0.0,1650823686669505.0
-2.0,-4.0,-8.0,-1.0,7.0,1.0,2.0,-2.0,1650823686669505.0
0.0,2.0,2.0,1.0,2.0,2.0,1.0,1.0,1650823686669505.0
-1.0,-1.0,0.0,-3.0,-1.0,-2.0,-1.0,-1.0,1650823686669505.0
0.0,2.0,1.0,2.0,-4.0,2.0,2.0,1.0,1650823686674492.0
0.0,-2.0,-2.0,0.0,-3.0,-7.0,-4.0,0.0,1650823686674492.0
1.0,-3.0,-3.0,0.0,3.0,1.0,-2.0,0.0,1650823686689481.0
0.0,0.0,9.0,1.0,-10.0,-6.0,1.0,0.0,1650823686689481.0
-1.0,1.0,1.0,3.0,5.0,7.0,1.0,-2.0,1650823686690469.0
0.0,0.0,5.0,-1.0,-2.0,-3.0,0.0,-2.0,1650823686690469.0
0.0,-2.0,-8.0,-2.0,-7.0,-1.0,-3.0,1.0,1650823686711420.0
2.0,1.0,1.0,-1.0,9.0,9.0,-2.0,1.0,1650823686711420.0
1.0,1.0,-7.0,-4.0,-3.0,-9.0,1.0,1.0,1650823686713392.0
-1.0,1.0,0.0,0.0,-3.0,4.0,4.0,-1.0,1650823686713392.0
-4.0,2.0,11.0,10.0,2.0,-2.0,-1.0,-2.0,1650823686725355.0
-1.0,-3.0,-4.0,-7.0,-2.0,0.0,-2.0,-2.0,1650823686725355.0
-1.0,-3.0,-1.0,-13.0,-4.0,-1.0,-4.0,-1.0,1650823686734351.0
8.0,0.0,-10.0,-2.0,3.0,3.0,5.0,4.0,1650823686734351.0
8.0,9.0,16.0,6.0,-1.0,-1.0,5.0,5.0,1650823686749776.0
-16.0,-9.0,-7.0,3.0,8.0,0.0,-5.0,-8.0,1650823686749776.0
-15.0,-13.0,-16.0,-20.0,-10.0,-6.0,-7.0,-12.0,1650823686750782.0
3.0,-5.0,-7.0,-7.0,-9.0,-4.0,4.0,45.0,1650823686750782.0
1.0,2.0,-3.0,-5.0,-2.0,0.0,-6.0,-27.0,1650823686771746.0
13.0,8.0,8.0,6.0,0.0,4.0,3.0,-2.0,1650823686771746.0
8.0,11.0,18.0,25.0,15.0,5.0,5.0,8.0,1650823686773735.0
-18.0,-1.0,4.0,-2.0,-4.0,-6.0,-5.0,-13.0,1650823686773735.0
-5.0,-6.0,-8.0,-8.0,-4.0,-5.0,-2.0,17.0,1650823686785750.0
-1.0,-2.0,-4.0,-3.0,-5.0,-6.0,-1.0,-4.0,1650823686785750.0
-2.0,0.0,-4.0,-1.0,0.0,1.0,-1.0,-2.0,1650823686794670.0
5.0,2.0,8.0,8.0,4.0,5.0,-2.0,-11.0,1650823686794670.0
11.0,2.0,2.0,2.0,6.0,-7.0,1.0,8.0,1650823686816729.0
-2.0,5.0,0.0,-3.0,-5.0,2.0,2.0,-7.0,1650823686816729.0
23.0,2.0,15.0,13.0,7.0,10.0,7.0,12.0,1650823686818686.0
46.0,24.0,3.0,-2.0,0.0,4.0,1.0,10.0,1650823686818686.0
-92.0,-30.0,-17.0,6.0,-2.0,-4.0,-4.0,-16.0,1650823686831690.0
-6.0,-13.0,-28.0,-35.0,1.0,-2.0,0.0,-1.0,1650823686831690.0
-19.0,-13.0,7.0,2.0,-9.0,-9.0,0.0,-1.0,1650823686833645.0
35.0,15.0,19.0,2.0,0.0,3.0,-3.0,1.0,1650823686833645.0
102.0,58.0,26.0,36.0,11.0,7.0,12.0,14.0,1650823686854563.0
-110.0,-59.0,-42.0,-27.0,2.0,8.0,30.0,32.0,1650823686854563.0
11.0,-21.0,-1.0,-21.0,-10.0,-17.0,-48.0,-79.0,1650823686855568.0
-13.0,41.0,15.0,8.0,1.0,-1.0,-2.0,-7.0,1650823686855568.0
-27.0,-17.0,0.0,-3.0,-6.0,-11.0,-1.0,-3.0,1650823686869588.0
90.0,-33.0,-44.0,-13.0,-4.0,1.0,-8.0,-1.0,1650823686869588.0
16.0,75.0,6.0,9.0,6.0,20.0,25.0,25.0,1650823686870563.0
-91.0,-73.0,12.0,16.0,5.0,3.0,0.0,27.0,1650823686870563.0
8.0,15.0,-5.0,-14.0,-7.0,2.0,36.0,28.0,1650823686891529.0
-7.0,-6.0,-1.0,20.0,2.0,-10.0,-35.0,-34.0,1650823686891529.0
-42.0,-48.0,-17.0,-27.0,8.0,7.0,-15.0,-2.0,1650823686893459.0
26.0,-11.0,6.0,5.0,-13.0,-11.0,-1.0,-17.0,1650823686893459.0
51.0,85.0,44.0,7.0,10.0,16.0,5.0,30.0,1650823686914408.0
35.0,-33.0,-22.0,4.0,-3.0,-12.0,0.0,14.0,1650823686914408.0
-84.0,14.0,4.0,14.0,2.0,-6.0,-47.0,-57.0,1650823686915400.0
39.0,-80.0,-10.0,7.0,0.0,8.0,14.0,7.0,1650823686915400.0
11.0,-5.0,-2.0,-12.0,-14.0,-2.0,21.0,31.0,1650823686936747.0
70.0,-33.0,21.0,12.0,-18.0,-28.0,-73.0,-37.0,1650823686936747.0
46.0,49.0,11.0,12.0,34.0,18.0,19.0,30.0,1650823686938714.0
-56.0,-18.0,-35.0,-18.0,-6.0,6.0,31.0,28.0,1650823686938714.0
61.0,-29.0,-13.0,-12.0,2.0,-8.0,-66.0,-69.0,1650823686951682.0
-94.0,44.0,69.0,23.0,12.0,34.0,12.0,-36.0,1650823686951682.0
5.0,-2.0,-9.0,-5.0,-30.0,-22.0,38.0,55.0,1650823686953675.0
77.0,-80.0,-100.0,-63.0,29.0,12.0,-2.0,-22.0,1650823686953675.0
-80.0,-47.0,-33.0,0.0,-20.0,-51.0,-86.0,-86.0,1650823686974618.0
-1.0,78.0,42.0,17.0,13.0,-2.0,-10.0,-6.0,1650823686974618.0
-18.0,34.0,11.0,18.0,-13.0,21.0,49.0,1.0,1650823686975617.0
-66.0,59.0,7.0,-15.0,-25.0,-34.0,-43.0,-87.0,1650823686975617.0
1.0,30.0,12.0,-11.0,5.0,17.0,15.0,29.0,1650823686988608.0
68.0,49.0,-2.0,1.0,4.0,14.0,42.0,61.0,1650823686988608.0
66.0,-41.0,6.0,24.0,9.0,17.0,1.0,29.0,1650823686995563.0
-17.0,42.0,29.0,-8.0,-21.0,-28.0,-19.0,-14.0,1650823686995563.0
-59.0,-69.0,-38.0,-13.0,5.0,-5.0,12.0,-16.0,1650823687011520.0
37.0,94.0,30.0,24.0,-31.0,-38.0,-65.0,-53.0,1650823687011520.0
25.0,3.0,-35.0,-33.0,25.0,23.0,21.0,30.0,1650823687013529.0
-49.0,-67.0,-13.0,37.0,10.0,10.0,45.0,18.0,1650823687013529.0
22.0,74.0,18.0,-27.0,-2.0,6.0,-1.0,12.0,1650823687034526.0
50.0,-57.0,-4.0,-25.0,-16.0,16.0,87.0,82.0,1650823687034526.0
-21.0,-46.0,-24.0,-26.0,-2.0,-25.0,-75.0,-61.0,1650823687035483.0
22.0,60.0,-8.0,-24.0,-35.0,-12.0,-40.0,4.0,1650823687035483.0
-5.0,-18.0,8.0,15.0,30.0,18.0,4.0,-16.0,1650823687048435.0
-56.0,-18.0,-46.0,3.0,17.0,17.0,58.0,17.0,1650823687048435.0
-32.0,-94.0,5.0,-2.0,-24.0,-26.0,-37.0,-58.0,1650823687055467.0
-32.0,83.0,41.0,38.0,20.0,26.0,29.0,71.0,1650823687055467.0
-21.0,-95.0,-4.0,7.0,-25.0,-38.0,-70.0,-104.0,1650823687071429.0
114.0,88.0,4.0,-6.0,1.0,-10.0,-68.0,-31.0,1650823687071429.0
-53.0,49.0,13.0,15.0,-7.0,-14.0,-7.0,23.0,1650823687073355.0
78.0,-15.0,1.0,3.0,5.0,-9.0,-11.0,-57.0,1650823687073355.0
127.0,102.0,29.0,17.0,-5.0,31.0,98.0,97.0,1650823687094437.0
-128.0,-65.0,-22.0,-11.0,50.0,20.0,64.0,79.0,1650823687094437.0
-78.0,-58.0,-9.0,-13.0,-25.0,-22.0,-65.0,-76.0,1650823687096371.0
98.0,109.0,28.0,41.0,-12.0,14.0,17.0,45.0,1650823687096371.0
-84.0,65.0,4.0,-57.0,9.0,12.0,31.0,67.0,1650823687108367.0
-82.0,-98.0,-16.0,23.0,-9.0,-25.0,-61.0,-67.0,1650823687108367.0
127.0,105.0,5.0,12.0,5.0,13.0,10.0,8.0,1650823687115321.0
-19.0,-88.0,-33.0,-27.0,7.0,8.0,69.0,47.0,1650823687115321.0
-6.0,56.0,22.0,35.0,-17.0,-8.0,-34.0,-49.0,1650823687131288.0
69.0,64.0,20.0,-23.0,2.0,4.0,1.0,3.0,1650823687131288.0
42.0,30.0,-17.0,11.0,8.0,2.0,31.0,32.0,1650823687133274.0
89.0,36.0,7.0,-14.0,6.0,14.0,39.0,41.0,1650823687133274.0
-84.0,-36.0,-12.0,30.0,4.0,-8.0,-65.0,-55.0,1650823687154283.0
124.0,127.0,21.0,-11.0,-14.0,-3.0,31.0,30.0,1650823687154283.0
-69.0,-62.0,-8.0,4.0,6.0,-7.0,14.0,29.0,1650823687156238.0
18.0,-14.0,16.0,-12.0,4.0,-14.0,-85.0,-63.0,1650823687156238.0
96.0,26.0,1.0,24.0,-11.0,3.0,35.0,65.0,1650823687168246.0
-94.0,20.0,-32.0,-66.0,6.0,14.0,19.0,3.0,1650823687168246.0
-6.0,4.0,12.0,21.0,-17.0,-9.0,8.0,0.0,1650823687177183.0
83.0,127.0,53.0,24.0,9.0,21.0,18.0,30.0,1650823687177183.0
-128.0,-128.0,-38.0,-27.0,30.0,6.0,-29.0,-63.0,1650823687192198.0
2.0,1.0,-9.0,-3.0,-6.0,-15.0,-30.0,-29.0,1650823687192198.0
82.0,120.0,12.0,7.0,-2.0,6.0,20.0,26.0,1650823687193195.0
-42.0,-12.0,-14.0,-7.0,-7.0,-1.0,12.0,52.0,1650823687193195.0
122.0,96.0,21.0,19.0,-19.0,-10.0,45.0,40.0,1650823687214138.0
48.0,-73.0,1.0,24.0,1.0,8.0,31.0,11.0,1650823687214138.0
91.0,4.0,-28.0,-30.0,15.0,9.0,-26.0,0.0,1650823687216133.0
-109.0,-14.0,40.0,20.0,-8.0,-10.0,25.0,28.0,1650823687216133.0
127.0,82.0,8.0,-4.0,-4.0,-5.0,-32.0,19.0,1650823687228101.0
-29.0,-43.0,2.0,15.0,6.0,29.0,60.0,57.0,1650823687228101.0
-117.0,-57.0,-3.0,-24.0,-28.0,-53.0,-37.0,-35.0,1650823687235150.0
-5.0,-26.0,-15.0,10.0,7.0,2.0,-61.0,-61.0,1650823687235150.0
75.0,60.0,4.0,43.0,5.0,6.0,72.0,75.0,1650823687251980.0
34.0,27.0,-21.0,-63.0,10.0,19.0,0.0,15.0,1650823687251980.0
-76.0,-85.0,-50.0,-13.0,-38.0,-28.0,4.0,-46.0,1650823687252911.0
-47.0,71.0,20.0,34.0,-30.0,-18.0,-17.0,-34.0,1650823687252911.0
-12.0,1.0,-22.0,-44.0,69.0,36.0,17.0,-11.0,1650823687274207.0
31.0,-11.0,-13.0,39.0,-21.0,-19.0,-26.0,-30.0,1650823687274207.0
53.0,-20.0,12.0,6.0,25.0,24.0,8.0,-6.0,1650823687276202.0
58.0,29.0,-4.0,1.0,-9.0,-1.0,23.0,49.0,1650823687276202.0
-108.0,-128.0,-51.0,-14.0,-15.0,-4.0,-20.0,-78.0,1650823687288234.0
77.0,62.0,33.0,27.0,-1.0,-10.0,-24.0,9.0,1650823687288234.0
-7.0,47.0,28.0,-21.0,0.0,3.0,12.0,33.0,1650823687295181.0
-25.0,-43.0,-18.0,-4.0,9.0,-10.0,-33.0,-73.0,1650823687295181.0
12.0,-43.0,-12.0,-8.0,-17.0,-5.0,-28.0,-18.0,1650823687311845.0
-51.0,-13.0,3.0,-26.0,-18.0,-24.0,-16.0,24.0,1650823687311845.0
-19.0,-83.0,-20.0,16.0,10.0,4.0,9.0,11.0,1650823687313775.0
20.0,116.0,35.0,72.0,-12.0,-1.0,-8.0,22.0,1650823687313775.0
-11.0,-32.0,-46.0,-91.0,56.0,25.0,39.0,70.0,1650823687335717.0
14.0,25.0,49.0,48.0,-24.0,-19.0,-30.0,-19.0,1650823687335717.0
54.0,52.0,-19.0,-11.0,21.0,26.0,30.0,21.0,1650823687337711.0
22.0,-46.0,-8.0,-31.0,1.0,15.0,45.0,49.0,1650823687337711.0
11.0,79.0,66.0,99.0,-32.0,-18.0,-1.0,3.0,1650823687347689.0
-87.0,18.0,-24.0,-71.0,45.0,24.0,12.0,-14.0,1650823687347689.0
127.0,107.0,-2.0,6.0,15.0,26.0,55.0,96.0,1650823687356662.0
-128.0,-128.0,-37.0,-23.0,9.0,-14.0,-62.0,-99.0,1650823687356662.0
74.0,94.0,5.0,4.0,-32.0,-5.0,5.0,15.0,1650823687372715.0
-36.0,-33.0,-7.0,15.0,2.0,-1.0,-14.0,-54.0,1650823687372715.0
14.0,3.0,-20.0,-5.0,-14.0,-6.0,16.0,7.0,1650823687373691.0
43.0,-2.0,6.0,-31.0,1.0,-5.0,3.0,31.0,1650823687373691.0
73.0,27.0,22.0,12.0,-4.0,10.0,-1.0,23.0,1650823687394685.0
-99.0,-74.0,-20.0,5.0,-16.0,-36.0,-47.0,-28.0,1650823687394685.0
29.0,41.0,7.0,-4.0,2.0,-2.0,-49.0,-73.0,1650823687395691.0
-78.0,-55.0,-15.0,1.0,-6.0,-11.0,-33.0,-34.0,1650823687395691.0
-24.0,-44.0,-13.0,-3.0,5.0,-1.0,18.0,-4.0,1650823687407714.0
88.0,117.0,2.0,-55.0,-3.0,-5.0,2.0,24.0,1650823687407714.0
-72.0,-65.0,-5.0,-9.0,-15.0,-9.0,-21.0,-37.0,1650823687416624.0
84.0,103.0,12.0,1.0,1.0,-5.0,-8.0,-7.0,1650823687416624.0
-33.0,-68.0,-36.0,-18.0,12.0,14.0,31.0,19.0,1650823687431597.0
-15.0,-53.0,17.0,50.0,5.0,21.0,22.0,24.0,1650823687431597.0
33.0,33.0,4.0,-28.0,-17.0,-15.0,-18.0,5.0,1650823687433607.0
-35.0,-34.0,-3.0,-16.0,-10.0,-10.0,-16.0,-36.0,1650823687433607.0
65.0,25.0,14.0,10.0,10.0,3.0,-5.0,-11.0,1650823687454698.0
-44.0,21.0,-4.0,40.0,-7.0,2.0,9.0,26.0,1650823687454698.0
-67.0,42.0,16.0,-11.0,-3.0,-18.0,-25.0,-11.0,1650823687455661.0
-91.0,-41.0,-12.0,-7.0,13.0,11.0,7.0,5.0,1650823687455661.0
-19.0,9.0,8.0,-1.0,-30.0,-17.0,13.0,-12.0,1650823687467651.0
99.0,44.0,-16.0,-8.0,-5.0,-24.0,-66.0,-69.0,1650823687467651.0
-47.0,-48.0,53.0,40.0,-2.0,12.0,26.0,-8.0,1650823687476593.0
45.0,25.0,-24.0,-2.0,25.0,7.0,22.0,-4.0,1650823687476593.0
42.0,66.0,11.0,-9.0,7.0,13.0,29.0,51.0,1650823687491554.0
-26.0,-52.0,-17.0,-11.0,2.0,0.0,7.0,-15.0,1650823687491554.0
-26.0,0.0,6.0,-27.0,16.0,3.0,-20.0,-22.0,1650823687493548.0
61.0,14.0,18.0,2.0,-15.0,-10.0,12.0,29.0,1650823687493548.0
40.0,48.0,11.0,39.0,-2.0,5.0,-13.0,-10.0,1650823687514522.0
-28.0,1.0,1.0,7.0,9.0,21.0,15.0,-6.0,1650823687514522.0
27.0,-15.0,3.0,13.0,-3.0,-3.0,33.0,46.0,1650823687515493.0
-35.0,-1.0,-4.0,-25.0,-1.0,-13.0,-31.0,-40.0,1650823687515493.0
21.0,25.0,1.0,-21.0,-10.0,-12.0,-12.0,31.0,1650823687527458.0
85.0,43.0,25.0,13.0,-1.0,17.0,26.0,37.0,1650823687527458.0
-76.0,-53.0,-4.0,16.0,-1.0,-13.0,-28.0,-13.0,1650823687536571.0
-10.0,74.0,20.0,16.0,15.0,26.0,53.0,44.0,1650823687536571.0
10.0,65.0,-17.0,-25.0,-13.0,-6.0,38.0,59.0,1650823687551524.0
-51.0,-125.0,1.0,-27.0,-30.0,-37.0,-92.0,-89.0,1650823687551524.0
70.0,70.0,-4.0,19.0,42.0,21.0,30.0,24.0,1650823687553448.0
113.0,78.0,1.0,39.0,1.0,11.0,21.0,42.0,1650823687553448.0
-34.0,-48.0,-7.0,-8.0,12.0,9.0,-3.0,19.0,1650823687574460.0
-9.0,-19.0,-11.0,-42.0,5.0,21.0,98.0,10.0,1650823687574460.0
47.0,28.0,-25.0,-13.0,-28.0,-19.0,-49.0,-37.0,1650823687575418.0
-49.0,-64.0,-17.0,-43.0,11.0,10.0,-9.0,-21.0,1650823687575418.0
-16.0,-38.0,-4.0,1.0,-11.0,-6.0,-21.0,-27.0,1650823687588355.0
-17.0,61.0,33.0,40.0,4.0,9.0,28.0,74.0,1650823687588355.0
-20.0,-32.0,-22.0,-7.0,-15.0,9.0,38.0,58.0,1650823687596516.0
117.0,38.0,-21.0,-2.0,22.0,2.0,-12.0,-27.0,1650823687596516.0
-125.0,-128.0,-8.0,10.0,-9.0,-22.0,-51.0,-78.0,1650823687611557.0
70.0,55.0,-17.0,-6.0,7.0,5.0,-28.0,-9.0,1650823687611557.0
91.0,127.0,34.0,8.0,4.0,18.0,32.0,71.0,1650823687613489.0
-93.0,-77.0,-3.0,-9.0,-19.0,-25.0,5.0,-32.0,1650823687613489.0
-41.0,-46.0,-1.0,4.0,0.0,-13.0,-90.0,-86.0,1650823687633239.0
94.0,32.0,14.0,28.0,-11.0,-7.0,15.0,20.0,1650823687633239.0
4.0,14.0,13.0,12.0,26.0,9.0,-40.0,-47.0,1650823687634171.0
17.0,63.0,-6.0,2.0,9.0,1.0,15.0,38.0,1650823687634171.0
4.0,-31.0,-16.0,-44.0,-8.0,1.0,20.0,9.0,1650823687656180.0
12.0,33.0,6.0,4.0,14.0,2.0,-4.0,-15.0,1650823687656180.0
-52.0,-15.0,16.0,27.0,-25.0,-2.0,49.0,30.0,1650823687657109.0
-63.0,6.0,-27.0,-20.0,24.0,2.0,-58.0,-54.0,1650823687657109.0
-21.0,-20.0,21.0,25.0,-9.0,-7.0,6.0,15.0,1650823687671137.0
13.0,22.0,11.0,-10.0,-3.0,2.0,10.0,57.0,1650823687671137.0
25.0,-8.0,-13.0,-12.0,5.0,16.0,37.0,43.0,1650823687672069.0
43.0,45.0,29.0,20.0,-16.0,-13.0,-13.0,-2.0,1650823687672069.0
-4.0,-3.0,-8.0,-2.0,-7.0,-8.0,27.0,20.0,1650823687694064.0
92.0,85.0,-26.0,-17.0,10.0,-1.0,-3.0,29.0,1650823687694064.0
17.0,-100.0,-19.0,16.0,-16.0,-29.0,-82.0,-92.0,1650823687694064.0
104.0,37.0,-1.0,-31.0,-9.0,16.0,46.0,84.0,1650823687694064.0
18.0,28.0,-7.0,-40.0,-6.0,0.0,-1.0,-23.0,1650823687716021.0
-29.0,-10.0,0.0,28.0,16.0,11.0,33.0,17.0,1650823687716021.0
0.0,41.0,10.0,1.0,9.0,1.0,-29.0,-48.0,1650823687717008.0
-15.0,21.0,5.0,8.0,-5.0,-12.0,-42.0,-28.0,1650823687717008.0
-56.0,-62.0,-32.0,-26.0,1.0,-1.0,-33.0,-71.0,1650823687730970.0
15.0,15.0,20.0,33.0,-24.0,6.0,18.0,26.0,1650823687730970.0
-34.0,-18.0,-30.0,-40.0,25.0,-5.0,-2.0,12.0,1650823687731968.0
30.0,-11.0,12.0,23.0,-14.0,13.0,60.0,72.0,1650823687731968.0
0.0,120.0,10.0,11.0,-5.0,-5.0,14.0,30.0,1650823687753994.0
-34.0,-111.0,-17.0,-8.0,-9.0,-18.0,-29.0,-37.0,1650823687753994.0
-62.0,-38.0,-1.0,18.0,-7.0,4.0,14.0,10.0,1650823687753994.0
98.0,32.0,-11.0,-12.0,-2.0,-2.0,26.0,35.0,1650823687753994.0
-46.0,0.0,16.0,22.0,20.0,37.0,44.0,33.0,1650823687776177.0
-22.0,-99.0,-29.0,-6.0,-7.0,-20.0,-21.0,-48.0,1650823687776177.0
27.0,54.0,25.0,19.0,-3.0,1.0,-25.0,-27.0,1650823687777128.0
59.0,74.0,14.0,-13.0,-23.0,-20.0,-16.0,-46.0,1650823687777128.0
-31.0,-85.0,-36.0,8.0,17.0,-11.0,-44.0,-56.0,1650823687791130.0
42.0,106.0,25.0,-11.0,0.0,4.0,10.0,28.0,1650823687791130.0
111.0,98.0,-26.0,-8.0,16.0,32.0,69.0,67.0,1650823687792068.0
-105.0,-122.0,7.0,30.0,-44.0,-30.0,-33.0,-33.0,1650823687792068.0
74.0,106.0,17.0,-29.0,16.0,4.0,-8.0,9.0,1650823687814015.0
50.0,48.0,13.0,38.0,5.0,18.0,35.0,22.0,1650823687814015.0
-6.0,61.0,-23.0,-29.0,-1.0,-10.0,24.0,35.0,1650823687814015.0
-115.0,-88.0,-33.0,-23.0,2.0,3.0,-36.0,-49.0,1650823687814015.0
37.0,5.0,8.0,26.0,-7.0,8.0,12.0,33.0,1650823687835729.0
-32.0,36.0,4.0,-3.0,14.0,-6.0,-13.0,-28.0,1650823687835729.0
-58.0,-54.0,12.0,-3.0,-20.0,-27.0,-54.0,-56.0,1650823687836660.0
15.0,14.0,-8.0,1.0,12.0,18.0,51.0,40.0,1650823687836660.0
65.0,82.0,3.0,-8.0,-7.0,-1.0,-2.0,20.0,1650823687851621.0
-34.0,35.0,9.0,8.0,-5.0,4.0,-53.0,-64.0,1650823687851621.0
35.0,-34.0,0.0,20.0,10.0,-20.0,-21.0,-31.0,1650823687851621.0
-94.0,-122.0,-10.0,15.0,35.0,4.0,-41.0,-89.0,1650823687851621.0
107.0,93.0,-6.0,-17.0,18.0,12.0,7.0,22.0,1650823687873724.0
65.0,17.0,26.0,22.0,-42.0,-3.0,30.0,28.0,1650823687873724.0
0.0,16.0,5.0,-20.0,24.0,12.0,32.0,37.0,1650823687874721.0
5.0,-1.0,5.0,17.0,8.0,1.0,-21.0,-5.0,1650823687874721.0
-14.0,-8.0,16.0,8.0,5.0,8.0,36.0,26.0,1650823687895808.0
18.0,-20.0,-36.0,-18.0,1.0,-7.0,-7.0,-11.0,1650823687895808.0
-14.0,25.0,29.0,8.0,-18.0,5.0,12.0,-2.0,1650823687896742.0
99.0,47.0,31.0,0.0,14.0,29.0,59.0,120.0,1650823687896742.0
60.0,78.0,-23.0,16.0,-6.0,-8.0,-26.0,-18.0,1650823687910772.0
-70.0,-84.0,0.0,-12.0,-10.0,-36.0,-97.0,-87.0,1650823687910772.0
127.0,127.0,31.0,24.0,-13.0,14.0,11.0,-2.0,1650823687911791.0
-107.0,-36.0,-20.0,-14.0,33.0,17.0,38.0,-9.0,1650823687911791.0
40.0,11.0,23.0,-15.0,-24.0,-7.0,0.0,10.0,1650823687933903.0
7.0,44.0,17.0,4.0,5.0,4.0,11.0,8.0,1650823687933903.0
61.0,54.0,0.0,34.0,47.0,32.0,44.0,76.0,1650823687933903.0
84.0,23.0,-10.0,-42.0,-35.0,-19.0,-74.0,-74.0,1650823687933903.0
-128.0,-93.0,21.0,100.0,6.0,-26.0,-22.0,-43.0,1650823687955914.0
-41.0,-62.0,-42.0,-91.0,42.0,28.0,39.0,43.0,1650823687955914.0
-108.0,-74.0,-9.0,-13.0,-7.0,17.0,32.0,33.0,1650823687956845.0
109.0,79.0,39.0,-7.0,-16.0,-14.0,-33.0,-4.0,1650823687956845.0
-14.0,39.0,-36.0,5.0,-9.0,-9.0,-9.0,-6.0,1650823687970874.0
-26.0,-33.0,10.0,5.0,-13.0,-8.0,-4.0,0.0,1650823687970874.0
-13.0,-19.0,-2.0,8.0,4.0,7.0,31.0,66.0,1650823687971806.0
-6.0,24.0,1.0,4.0,-4.0,15.0,40.0,40.0,1650823687971806.0
104.0,108.0,18.0,-17.0,-4.0,-17.0,-93.0,-42.0,1650823687993811.0
-57.0,-33.0,-7.0,29.0,10.0,-19.0,-59.0,-68.0,1650823687993811.0
-35.0,-57.0,-23.0,-41.0,-17.0,0.0,45.0,0.0,1650823687994751.0
-35.0,-3.0,-8.0,22.0,-15.0,-36.0,-6.0,-17.0,1650823687994751.0
57.0,4.0,-7.0,-37.0,12.0,26.0,44.0,31.0,1650823688015764.0
76.0,24.0,-18.0,5.0,0.0,14.0,50.0,59.0,1650823688015764.0
26.0,39.0,37.0,16.0,-28.0,-21.0,-57.0,-42.0,1650823688016773.0
-15.0,-3.0,-33.0,-65.0,12.0,8.0,11.0,2.0,1650823688016773.0
-65.0,-70.0,-18.0,-19.0,-18.0,-9.0,24.0,5.0,1650823688030847.0
-13.0,-8.0,-9.0,-4.0,-6.0,3.0,-5.0,-4.0,1650823688030847.0
-2.0,-29.0,1.0,5.0,-9.0,-2.0,-2.0,-18.0,1650823688031849.0
-37.0,51.0,28.0,29.0,-11.0,-10.0,5.0,5.0,1650823688031849.0
50.0,-8.0,2.0,-2.0,9.0,8.0,42.0,39.0,1650823688053854.0
-30.0,-61.0,-8.0,-6.0,-1.0,-11.0,-19.0,-35.0,1650823688053854.0
19.0,14.0,11.0,15.0,-2.0,3.0,-2.0,-40.0,1650823688054793.0
-47.0,61.0,-17.0,-15.0,-7.0,-34.0,-108.0,-97.0,1650823688054793.0
45.0,-95.0,-5.0,-4.0,0.0,-4.0,-7.0,0.0,1650823688083930.0
44.0,42.0,9.0,17.0,-2.0,13.0,37.0,34.0,1650823688083930.0
-7.0,-2.0,-7.0,-10.0,3.0,0.0,53.0,53.0,1650823688084898.0
14.0,2.0,-10.0,-1.0,-2.0,-18.0,-54.0,-50.0,1650823688084898.0
-42.0,-8.0,22.0,36.0,-14.0,-11.0,-32.0,-47.0,1650823688090884.0
-21.0,15.0,8.0,-13.0,34.0,22.0,18.0,14.0,1650823688090884.0
9.0,1.0,2.0,-9.0,-18.0,-7.0,-25.0,-16.0,1650823688091882.0
71.0,47.0,-14.0,79.0,63.0,40.0,70.0,72.0,1650823688091882.0
-83.0,-86.0,-5.0,-76.0,-4.0,-1.0,-8.0,-20.0,1650823688113850.0
-16.0,13.0,-10.0,-6.0,-15.0,-8.0,6.0,9.0,1650823688113850.0
31.0,-4.0,4.0,-10.0,-7.0,-5.0,7.0,20.0,1650823688114821.0
6.0,-47.0,4.0,3.0,-22.0,-14.0,-21.0,-41.0,1650823688114821.0
-49.0,-8.0,30.0,38.0,3.0,1.0,17.0,37.0,1650823688136653.0
20.0,22.0,-1.0,19.0,17.0,29.0,72.0,62.0,1650823688136653.0
3.0,7.0,-34.0,-40.0,-9.0,-32.0,-31.0,-48.0,1650823688136653.0
-46.0,-49.0,9.0,3.0,-16.0,-5.0,-16.0,25.0,1650823688136653.0
63.0,76.0,-3.0,5.0,13.0,10.0,10.0,-6.0,1650823688151620.0
15.0,3.0,1.0,-18.0,-10.0,2.0,30.0,32.0,1650823688151620.0
40.0,45.0,-6.0,13.0,-3.0,-16.0,-45.0,-29.0,1650823688151620.0
-8.0,-57.0,-11.0,-21.0,-11.0,0.0,17.0,4.0,1650823688151620.0
14.0,25.0,-11.0,-29.0,-4.0,4.0,21.0,29.0,1650823688173621.0
31.0,73.0,22.0,28.0,5.0,16.0,19.0,33.0,1650823688173621.0
-26.0,37.0,-11.0,2.0,20.0,-15.0,-92.0,-95.0,1650823688174552.0
43.0,-12.0,-5.0,-19.0,-16.0,3.0,4.0,13.0,1650823688174552.0
-18.0,3.0,-12.0,10.0,15.0,3.0,-6.0,-15.0,1650823688204537.0
77.0,-38.0,-20.0,-40.0,-20.0,-12.0,-4.0,-7.0,1650823688204537.0
-54.0,-34.0,-5.0,-2.0,6.0,9.0,16.0,24.0,1650823688205495.0
3.0,2.0,-2.0,-11.0,1.0,13.0,32.0,16.0,1650823688205495.0
-23.0,51.0,23.0,39.0,-22.0,-5.0,12.0,-4.0,1650823688219544.0
39.0,38.0,5.0,13.0,8.0,8.0,-33.0,3.0,1650823688219544.0
-32.0,-29.0,-9.0,-5.0,8.0,-17.0,23.0,-20.0,1650823688219544.0
-8.0,17.0,7.0,-3.0,-2.0,11.0,-27.0,24.0,1650823688219544.0
8.0,-15.0,-2.0,2.0,3.0,0.0,-1.0,-10.0,1650823688233510.0
-21.0,5.0,2.0,10.0,9.0,-21.0,13.0,13.0,1650823688233510.0
-19.0,-26.0,-1.0,-17.0,-2.0,11.0,-8.0,-69.0,1650823688234508.0
13.0,11.0,5.0,16.0,3.0,-2.0,-10.0,1.0,1650823688234508.0
11.0,7.0,-3.0,-7.0,1.0,6.0,27.0,26.0,1650823688256515.0
-24.0,-11.0,-1.0,-7.0,-7.0,1.0,-19.0,-30.0,1650823688256515.0
-12.0,-4.0,6.0,15.0,-2.0,-2.0,-5.0,17.0,1650823688256515.0
24.0,15.0,-9.0,-4.0,9.0,11.0,54.0,37.0,1650823688256515.0
-2.0,1.0,10.0,-7.0,-5.0,-1.0,-25.0,-2.0,1650823688271476.0
-25.0,3.0,6.0,2.0,-7.0,-9.0,-13.0,-43.0,1650823688271476.0
22.0,6.0,11.0,13.0,0.0,10.0,13.0,40.0,1650823688271476.0
22.0,4.0,-20.0,-7.0,20.0,11.0,5.0,-5.0,1650823688271476.0
-33.0,-1.0,-5.0,-6.0,-15.0,-7.0,-10.0,-10.0,1650823688294011.0
21.0,7.0,13.0,20.0,5.0,3.0,-10.0,2.0,1650823688294011.0
35.0,42.0,-13.0,-8.0,1.0,9.0,23.0,27.0,1650823688294432.0
-63.0,-57.0,2.0,-11.0,2.0,-3.0,8.0,-12.0,1650823688294432.0
-10.0,-27.0,-14.0,0.0,-9.0,-14.0,-20.0,-33.0,1650823688315919.0
5.0,19.0,-1.0,-11.0,-19.0,-11.0,3.0,6.0,1650823688315919.0
17.0,10.0,-2.0,11.0,18.0,9.0,-9.0,8.0,1650823688316917.0
25.0,24.0,5.0,-7.0,-9.0,-4.0,13.0,17.0,1650823688316917.0
0.0,0.0,3.0,4.0,2.0,8.0,23.0,23.0,1650823688330942.0
-1.0,-3.0,12.0,0.0,-6.0,-8.0,-29.0,-14.0,1650823688330942.0
-18.0,-5.0,12.0,3.0,8.0,14.0,-16.0,-40.0,1650823688331877.0
14.0,15.0,0.0,11.0,0.0,-11.0,4.0,3.0,1650823688331877.0
-1.0,-20.0,-47.0,-33.0,-11.0,-10.0,3.0,18.0,1650823688353928.0
-20.0,-3.0,-8.0,1.0,-5.0,-1.0,2.0,-5.0,1650823688353928.0
1.0,-18.0,1.0,-4.0,0.0,4.0,5.0,16.0,1650823688353928.0
15.0,20.0,4.0,-2.0,-2.0,6.0,5.0,6.0,1650823688353928.0
-10.0,-9.0,11.0,16.0,14.0,5.0,-8.0,-19.0,1650823688375969.0
-4.0,2.0,0.0,5.0,4.0,1.0,-7.0,-8.0,1650823688375969.0
-5.0,-16.0,-5.0,-3.0,-13.0,-4.0,2.0,5.0,1650823688376939.0
10.0,3.0,-9.0,-1.0,-2.0,0.0,-8.0,-44.0,1650823688376939.0
12.0,10.0,12.0,-6.0,6.0,2.0,21.0,10.0,1650823688389905.0
-13.0,11.0,15.0,24.0,10.0,4.0,-27.0,-10.0,1650823688389905.0
1.0,-17.0,15.0,1.0,0.0,-6.0,32.0,20.0,1650823688398881.0
-14.0,-26.0,-41.0,-44.0,-20.0,-17.0,-20.0,-12.0,1650823688398881.0
3.0,11.0,11.0,4.0,0.0,-2.0,-8.0,-7.0,1650823688413821.0
-6.0,-2.0,-3.0,0.0,-2.0,1.0,13.0,-2.0,1650823688413821.0
2.0,0.0,8.0,10.0,-1.0,8.0,8.0,16.0,1650823688414757.0
8.0,17.0,17.0,13.0,2.0,0.0,5.0,5.0,1650823688414757.0
2.0,-6.0,0.0,0.0,3.0,1.0,-6.0,-31.0,1650823688435762.0
1.0,-1.0,2.0,-3.0,3.0,0.0,4.0,21.0,1650823688435762.0
16.0,-3.0,-14.0,-3.0,-11.0,-12.0,-9.0,28.0,1650823688436709.0
-11.0,8.0,17.0,-7.0,3.0,5.0,4.0,0.0,1650823688436709.0
16.0,23.0,32.0,45.0,19.0,18.0,17.0,72.0,1650823688450656.0
-20.0,-16.0,-16.0,-21.0,-3.0,-2.0,-10.0,-93.0,1650823688450656.0
-7.0,-33.0,-45.0,-46.0,-31.0,-20.0,-28.0,-22.0,1650823688458699.0
-4.0,-1.0,-18.0,-21.0,-1.0,1.0,5.0,4.0,1650823688458699.0
13.0,27.0,37.0,16.0,1.0,0.0,11.0,27.0,1650823688481639.0
-6.0,-3.0,30.0,57.0,27.0,14.0,-6.0,-46.0,1650823688481639.0
14.0,-39.0,-85.0,-82.0,-22.0,-14.0,-14.0,11.0,1650823688482581.0
14.0,12.0,33.0,10.0,-2.0,-2.0,10.0,7.0,1650823688482581.0
-6.0,-10.0,0.0,-6.0,-2.0,-5.0,-9.0,-17.0,1650823688496577.0
11.0,16.0,11.0,-1.0,-4.0,-3.0,12.0,28.0,1650823688496577.0
-13.0,10.0,27.0,26.0,21.0,12.0,0.0,-7.0,1650823688496577.0
2.0,1.0,-11.0,11.0,-14.0,-2.0,1.0,7.0,1650823688496577.0
1.0,1.0,-15.0,-16.0,8.0,-2.0,-7.0,-11.0,1650823688510495.0
-3.0,-6.0,-18.0,-13.0,-9.0,-8.0,5.0,17.0,1650823688510495.0
-2.0,17.0,41.0,37.0,13.0,8.0,7.0,15.0,1650823688518542.0
4.0,-2.0,-23.0,-4.0,4.0,3.0,-2.0,27.0,1650823688518542.0
-17.0,-15.0,-4.0,-32.0,-29.0,-13.0,-11.0,-40.0,1650823688533435.0
8.0,24.0,55.0,40.0,21.0,17.0,8.0,15.0,1650823688533435.0
-2.0,8.0,41.0,43.0,21.0,2.0,1.0,-23.0,1650823688534432.0
-5.0,-26.0,-53.0,-62.0,-32.0,-20.0,-10.0,11.0,1650823688534432.0
-7.0,-18.0,-41.0,-36.0,-14.0,-10.0,-13.0,-6.0,1650823688556566.0
-4.0,-13.0,-19.0,-24.0,-10.0,-5.0,5.0,31.0,1650823688556566.0
14.0,35.0,60.0,55.0,23.0,18.0,6.0,-22.0,1650823688556566.0
-6.0,24.0,28.0,38.0,21.0,12.0,4.0,-13.0,1650823688556566.0
-7.0,-36.0,-34.0,-22.0,-1.0,-3.0,-12.0,-13.0,1650823688570525.0
-11.0,-2.0,-1.0,-20.0,-21.0,-12.0,-2.0,1.0,1650823688570525.0
12.0,8.0,2.0,11.0,3.0,2.0,6.0,38.0,1650823688578437.0
-1.0,2.0,7.0,13.0,7.0,5.0,1.0,-39.0,1650823688578437.0
1.0,0.0,-5.0,2.0,3.0,0.0,-6.0,-12.0,1650823688593761.0
2.0,-1.0,-5.0,1.0,-1.0,-2.0,0.0,10.0,1650823688593761.0
-14.0,-10.0,-13.0,-23.0,-19.0,-15.0,-5.0,-9.0,1650823688601456.0
2.0,-7.0,-8.0,-3.0,-1.0,2.0,0.0,8.0,1650823688601456.0
15.0,48.0,42.0,42.0,27.0,19.0,12.0,18.0,1650823688616415.0
-7.0,-42.0,23.0,36.0,17.0,4.0,-1.0,-10.0,1650823688616415.0
-10.0,-15.0,-24.0,-37.0,-19.0,-12.0,-3.0,15.0,1650823688616415.0
-8.0,-3.0,13.0,-48.0,-26.0,-18.0,-14.0,-21.0,1650823688616415.0
1.0,2.0,-3.0,17.0,-5.0,2.0,3.0,-1.0,1650823688630445.0
7.0,16.0,-9.0,-13.0,10.0,17.0,8.0,11.0,1650823688630445.0
-5.0,2.0,16.0,41.0,10.0,-1.0,11.0,21.0,1650823688638423.0
12.0,20.0,30.0,30.0,20.0,4.0,-1.0,5.0,1650823688638423.0
-10.0,-16.0,-12.0,-12.0,-12.0,-12.0,-7.0,-8.0,1650823688653417.0
-10.0,8.0,-3.0,-18.0,-14.0,-7.0,-11.0,-22.0,1650823688653417.0
-11.0,-11.0,-11.0,-11.0,-1.0,1.0,-4.0,0.0,1650823688654417.0
0.0,13.0,8.0,16.0,1.0,18.0,8.0,15.0,1650823688654417.0
-2.0,-16.0,-19.0,-13.0,-11.0,-24.0,-2.0,4.0,1650823688675953.0
5.0,4.0,-7.0,1.0,8.0,3.0,2.0,12.0,1650823688675953.0
-2.0,8.0,1.0,-8.0,-1.0,1.0,-1.0,-10.0,1650823688676923.0
8.0,14.0,11.0,11.0,4.0,3.0,3.0,6.0,1650823688676923.0
-4.0,-38.0,6.0,12.0,8.0,12.0,-3.0,-6.0,1650823688690939.0
-2.0,-3.0,-21.0,-7.0,-7.0,-10.0,1.0,7.0,1650823688690939.0
-3.0,-2.0,4.0,-11.0,-2.0,1.0,0.0,-6.0,1650823688698928.0
0.0,-4.0,14.0,2.0,2.0,0.0,1.0,-1.0,1650823688698928.0
3.0,10.0,6.0,10.0,0.0,3.0,3.0,7.0,1650823688713851.0
-1.0,0.0,-24.0,-25.0,1.0,-6.0,-4.0,-5.0,1650823688713851.0
-1.0,1.0,11.0,14.0,-11.0,-1.0,-3.0,-4.0,1650823688714832.0
0.0,-7.0,-20.0,-14.0,1.0,-1.0,-1.0,-3.0,1650823688714832.0
1.0,8.0,0.0,-8.0,1.0,-1.0,0.0,-3.0,1650823688735832.0
3.0,-6.0,2.0,-1.0,-14.0,-6.0,-1.0,2.0,1650823688735832.0
0.0,4.0,0.0,-10.0,7.0,6.0,-1.0,-9.0,1650823688736762.0
3.0,2.0,4.0,16.0,10.0,0.0,6.0,6.0,1650823688736762.0
2.0,2.0,5.0,7.0,0.0,4.0,1.0,1.0,1650823688758704.0
-7.0,-17.0,-14.0,-12.0,-5.0,-5.0,-5.0,-7.0,1650823688758704.0
-1.0,3.0,1.0,-4.0,-3.0,-3.0,1.0,4.0,1650823688759702.0
-3.0,-11.0,-9.0,-2.0,-3.0,-3.0,-2.0,-1.0,1650823688759702.0
3.0,11.0,4.0,-1.0,8.0,8.0,1.0,1.0,1650823688774661.0
4.0,5.0,-2.0,9.0,-3.0,-5.0,1.0,4.0,1650823688774661.0
-4.0,-3.0,-4.0,-16.0,-10.0,-9.0,-5.0,-5.0,1650823688775666.0
0.0,1.0,4.0,11.0,3.0,0.0,-3.0,-1.0,1650823688775666.0
-1.0,-13.0,-4.0,-3.0,0.0,0.0,-2.0,-2.0,1650823688795633.0
-1.0,8.0,7.0,5.0,4.0,1.0,1.0,1.0,1650823688795633.0
-2.0,-11.0,-20.0,10.0,-1.0,0.0,0.0,-2.0,1650823688796604.0
1.0,-9.0,-23.0,-43.0,-8.0,-12.0,-4.0,1.0,1650823688796604.0
-11.0,-20.0,-11.0,-9.0,2.0,24.0,-6.0,-4.0,1650823688819614.0
2.0,-2.0,-7.0,-1.0,-4.0,-21.0,2.0,0.0,1650823688819614.0
-1.0,15.0,13.0,12.0,12.0,3.0,4.0,2.0,1650823688820539.0
1.0,4.0,13.0,19.0,-6.0,-2.0,1.0,3.0,1650823688820539.0
3.0,3.0,-8.0,-7.0,-4.0,-11.0,-7.0,0.0,1650823688833504.0
-1.0,-4.0,-8.0,-15.0,-14.0,1.0,-2.0,-2.0,1650823688833504.0
-2.0,-2.0,-8.0,-7.0,3.0,5.0,2.0,-2.0,1650823688834502.0
0.0,-3.0,3.0,10.0,6.0,-2.0,4.0,-1.0,1650823688834502.0
4.0,17.0,11.0,1.0,2.0,13.0,1.0,1.0,1650823688856445.0
-3.0,0.0,11.0,3.0,1.0,-12.0,-2.0,-3.0,1650823688856445.0
-2.0,-4.0,-5.0,-2.0,-3.0,-2.0,-1.0,0.0,1650823688856445.0
-1.0,-3.0,-5.0,-1.0,0.0,6.0,3.0,-1.0,1650823688856445.0
1.0,11.0,5.0,8.0,3.0,-5.0,0.0,1.0,1650823688879961.0
2.0,1.0,0.0,-8.0,-1.0,5.0,-1.0,2.0,1650823688879961.0
-6.0,-16.0,-5.0,-14.0,-9.0,-4.0,-3.0,-5.0,1650823688880892.0
-2.0,3.0,6.0,8.0,3.0,0.0,0.0,-1.0,1650823688880892.0
1.0,10.0,7.0,11.0,6.0,-6.0,4.0,1.0,1650823688893857.0
4.0,2.0,-8.0,-5.0,-2.0,3.0,0.0,3.0,1650823688893857.0
-5.0,-25.0,-32.0,-19.0,7.0,1.0,-3.0,-3.0,1650823688893857.0
2.0,10.0,12.0,11.0,-1.0,3.0,0.0,0.0,1650823688893857.0
0.0,0.0,6.0,3.0,-5.0,-8.0,2.0,-1.0,1650823688915820.0
-5.0,-7.0,0.0,-3.0,-4.0,-1.0,-2.0,-3.0,1650823688915820.0
1.0,6.0,1.0,0.0,-2.0,-1.0,-4.0,-2.0,1650823688916797.0
-2.0,-4.0,-8.0,-6.0,-10.0,-6.0,-4.0,-2.0,1650823688916797.0
0.0,-6.0,-6.0,-2.0,-1.0,-4.0,3.0,0.0,1650823688938738.0
0.0,11.0,10.0,14.0,20.0,18.0,6.0,3.0,1650823688938738.0
-1.0,5.0,7.0,5.0,10.0,5.0,-3.0,-2.0,1650823688939735.0
-2.0,-8.0,-2.0,-2.0,-12.0,-6.0,0.0,-1.0,1650823688939735.0
-2.0,2.0,0.0,-8.0,-4.0,5.0,-1.0,-2.0,1650823688953742.0
-1.0,-5.0,-3.0,-1.0,-1.0,-14.0,-5.0,-1.0,1650823688953742.0
1.0,-2.0,-7.0,-2.0,-13.0,-11.0,-1.0,1.0,1650823688954718.0
1.0,2.0,1.0,7.0,9.0,5.0,-1.0,1.0,1650823688954718.0
2.0,9.0,12.0,4.0,-2.0,-1.0,0.0,1.0,1650823688975683.0
-3.0,-10.0,-24.0,-18.0,-6.0,6.0,-4.0,-3.0,1650823688975683.0
1.0,5.0,24.0,7.0,14.0,7.0,1.0,4.0,1650823688976666.0
1.0,8.0,-19.0,1.0,-2.0,-1.0,3.0,0.0,1650823688976666.0
-4.0,-4.0,7.0,-3.0,-8.0,-2.0,-1.0,-7.0,1650823688999668.0
2.0,-7.0,-9.0,4.0,0.0,0.0,2.0,5.0,1650823688999668.0
0.0,6.0,-4.0,-2.0,-5.0,-6.0,-1.0,-1.0,1650823688999668.0
0.0,-4.0,-3.0,-1.0,11.0,16.0,0.0,1.0,1650823688999668.0
3.0,10.0,1.0,2.0,-4.0,-17.0,-6.0,-1.0,1650823689013628.0
0.0,4.0,17.0,12.0,3.0,6.0,2.0,-1.0,1650823689013628.0
-1.0,-14.0,-29.0,-9.0,4.0,2.0,0.0,-3.0,1650823689014559.0
-5.0,-1.0,12.0,9.0,0.0,0.0,-2.0,-3.0,1650823689014559.0
0.0,5.0,-5.0,-1.0,0.0,-1.0,-1.0,3.0,1650823689036124.0
2.0,-6.0,1.0,-5.0,-10.0,-6.0,-2.0,0.0,1650823689036124.0
-1.0,3.0,7.0,2.0,-6.0,-2.0,-1.0,-1.0,1650823689037052.0
1.0,2.0,11.0,3.0,7.0,5.0,4.0,0.0,1650823689037052.0
0.0,5.0,3.0,1.0,-1.0,-4.0,-2.0,0.0,1650823689059135.0
-4.0,-9.0,-5.0,-1.0,-9.0,-5.0,-4.0,-3.0,1650823689059135.0
0.0,8.0,-1.0,-2.0,9.0,0.0,1.0,-1.0,1650823689060101.0
-1.0,-11.0,-12.0,1.0,-6.0,-1.0,1.0,-1.0,1650823689060101.0
3.0,6.0,-1.0,0.0,2.0,21.0,1.0,3.0,1650823689073293.0
0.0,-14.0,-4.0,-9.0,-8.0,-20.0,-3.0,-1.0,1650823689073293.0
-1.0,-8.0,3.0,9.0,2.0,4.0,0.0,-2.0,1650823689074175.0
1.0,4.0,-7.0,-7.0,6.0,0.0,3.0,1.0,1650823689074175.0
-1.0,-3.0,2.0,4.0,2.0,5.0,3.0,-1.0,1650823689096286.0
-5.0,0.0,-4.0,-9.0,-2.0,3.0,-3.0,-4.0,1650823689096286.0
2.0,6.0,2.0,-4.0,-11.0,-8.0,-2.0,2.0,1650823689097218.0
1.0,-1.0,12.0,9.0,4.0,-5.0,-4.0,1.0,1650823689097218.0
-1.0,-3.0,-2.0,-4.0,1.0,4.0,2.0,-1.0,1650823689119226.0
-1.0,9.0,10.0,-2.0,3.0,-2.0,0.0,0.0,1650823689119226.0
-1.0,0.0,-2.0,4.0,-10.0,-4.0,-1.0,-2.0,1650823689120157.0
-3.0,-3.0,10.0,-4.0,0.0,4.0,-1.0,0.0,1650823689120157.0
-1.0,-8.0,-2.0,-4.0,1.0,-8.0,-2.0,-1.0,1650823689133189.0
1.0,5.0,5.0,6.0,4.0,-1.0,-1.0,0.0,1650823689133189.0
1.0,4.0,-8.0,-10.0,-17.0,-2.0,-1.0,0.0,1650823689134130.0
3.0,4.0,7.0,9.0,7.0,1.0,1.0,1.0,1650823689134130.0
-1.0,-2.0,-6.0,1.0,1.0,-1.0,1.0,2.0,1650823689156967.0
0.0,-2.0,3.0,1.0,7.0,5.0,-2.0,-1.0,1650823689156967.0
0.0,2.0,8.0,3.0,-2.0,2.0,1.0,-3.0,1650823689156967.0
-4.0,-2.0,-6.0,-9.0,-6.0,-8.0,-4.0,-6.0,1650823689156967.0
-2.0,-8.0,-5.0,-5.0,-4.0,-4.0,1.0,0.0,1650823689178882.0
1.0,10.0,-1.0,3.0,6.0,10.0,3.0,0.0,1650823689178882.0
1.0,-6.0,-3.0,2.0,0.0,1.0,-2.0,2.0,1650823689179813.0
0.0,12.0,4.0,-2.0,-3.0,10.0,-3.0,-4.0,1650823689179813.0
-1.0,-1.0,-5.0,-6.0,-7.0,-25.0,1.0,-1.0,1650823689193844.0
2.0,6.0,3.0,5.0,4.0,2.0,1.0,2.0,1650823689193844.0
-3.0,-1.0,4.0,1.0,1.0,1.0,3.0,-2.0,1650823689194776.0
-1.0,-13.0,-10.0,-1.0,1.0,5.0,-1.0,2.0,1650823689194776.0
3.0,1.0,-4.0,7.0,-1.0,3.0,-4.0,1.0,1650823689216647.0
-1.0,-2.0,-18.0,-20.0,-1.0,-7.0,-7.0,-1.0,1650823689216647.0
-1.0,-1.0,-9.0,-8.0,-15.0,-1.0,-1.0,1.0,1650823689216647.0
-2.0,6.0,10.0,7.0,7.0,1.0,4.0,0.0,1650823689216647.0
1.0,6.0,4.0,6.0,3.0,1.0,1.0,1.0,1650823689239755.0
0.0,-6.0,3.0,4.0,3.0,4.0,4.0,-2.0,1650823689239755.0
5.0,5.0,-1.0,2.0,9.0,1.0,-1.0,2.0,1650823689239755.0
-4.0,-9.0,-6.0,-11.0,-13.0,-12.0,-5.0,-3.0,1650823689239755.0
0.0,3.0,2.0,-3.0,-7.0,-5.0,-4.0,-2.0,1650823689254045.0
-2.0,3.0,0.0,9.0,8.0,9.0,4.0,-1.0,1650823689254045.0
-2.0,-2.0,10.0,2.0,1.0,10.0,0.0,-2.0,1650823689254045.0
1.0,5.0,12.0,4.0,1.0,-6.0,2.0,3.0,1650823689254045.0
-3.0,-8.0,-19.0,-8.0,-1.0,3.0,1.0,-1.0,1650823689276186.0
-1.0,-2.0,5.0,-2.0,-3.0,-5.0,-2.0,-1.0,1650823689276186.0
-3.0,-2.0,1.0,3.0,9.0,1.0,0.0,-3.0,1650823689277143.0
2.0,2.0,2.0,8.0,-5.0,7.0,-1.0,0.0,1650823689277143.0
-1.0,1.0,5.0,-2.0,2.0,-12.0,-2.0,1.0,1650823689299081.0
1.0,-3.0,-9.0,-3.0,-7.0,3.0,-1.0,0.0,1650823689299081.0
-2.0,-1.0,1.0,-5.0,-3.0,-5.0,0.0,-3.0,1650823689300055.0
-2.0,-3.0,-3.0,-3.0,4.0,4.0,-1.0,-3.0,1650823689300055.0
-4.0,-2.0,-1.0,6.0,-6.0,-4.0,2.0,0.0,1650823689313047.0
7.0,9.0,6.0,3.0,2.0,5.0,3.0,3.0,1650823689313047.0
-8.0,-23.0,-1.0,-2.0,-3.0,-15.0,-4.0,-5.0,1650823689328669.0
-4.0,1.0,-15.0,-11.0,6.0,0.0,-3.0,-4.0,1650823689328669.0
0.0,-3.0,-9.0,-4.0,0.0,6.0,1.0,6.0,1650823689336622.0
-2.0,2.0,7.0,6.0,-3.0,-3.0,-2.0,-2.0,1650823689336622.0
5.0,8.0,11.0,3.0,2.0,8.0,1.0,2.0,1650823689336622.0
-1.0,-3.0,-1.0,0.0,-4.0,-8.0,0.0,0.0,1650823689336622.0
0.0,-4.0,-2.0,-1.0,1.0,5.0,-1.0,-3.0,1650823689359744.0
-2.0,0.0,-4.0,-5.0,1.0,-4.0,-3.0,-1.0,1650823689359744.0
1.0,6.0,0.0,-1.0,-16.0,-1.0,0.0,1.0,1650823689359744.0
-1.0,-1.0,-1.0,9.0,5.0,-5.0,2.0,2.0,1650823689359744.0
0.0,0.0,2.0,6.0,5.0,0.0,-4.0,-2.0,1650823689373397.0
-1.0,-7.0,-9.0,-12.0,-9.0,-3.0,-1.0,1.0,1650823689373397.0
1.0,5.0,-6.0,2.0,10.0,6.0,5.0,1.0,1650823689381378.0
3.0,-5.0,9.0,2.0,3.0,1.0,1.0,0.0,1650823689381378.0
-1.0,-3.0,7.0,-1.0,-5.0,-1.0,-1.0,-3.0,1650823689396643.0
-2.0,-3.0,-5.0,-1.0,0.0,-5.0,-4.0,-5.0,1650823689396643.0
-4.0,-4.0,-8.0,-10.0,-18.0,-6.0,-6.0,0.0,1650823689396643.0
1.0,5.0,-1.0,5.0,-3.0,-11.0,4.0,1.0,1650823689396643.0
1.0,6.0,9.0,7.0,8.0,6.0,3.0,2.0,1650823689419597.0
0.0,1.0,-2.0,4.0,0.0,4.0,2.0,1.0,1650823689419597.0
0.0,-6.0,-9.0,-9.0,13.0,7.0,0.0,-2.0,1650823689419597.0
2.0,0.0,7.0,-1.0,-10.0,0.0,-2.0,0.0,1650823689419597.0
0.0,-5.0,-10.0,-13.0,-11.0,-7.0,-3.0,-3.0,1650823689432614.0
1.0,4.0,6.0,2.0,-4.0,-3.0,-1.0,0.0,1650823689432614.0
1.0,6.0,7.0,6.0,3.0,1.0,-1.0,1.0,1650823689441540.0
0.0,-1.0,-7.0,-2.0,0.0,-1.0,-1.0,-1.0,1650823689441540.0
-1.0,-3.0,0.0,1.0,4.0,5.0,0.0,1.0,1650823689456264.0
0.0,2.0,7.0,3.0,-3.0,3.0,-1.0,-1.0,1650823689456264.0
1.0,0.0,1.0,1.0,9.0,0.0,1.0,-1.0,1650823689457225.0
-2.0,2.0,0.0,-1.0,3.0,2.0,0.0,0.0,1650823689457225.0
0.0,-2.0,4.0,4.0,-2.0,2.0,1.0,3.0,1650823689479163.0
0.0,-4.0,-7.0,-1.0,-1.0,-4.0,0.0,-2.0,1650823689479163.0
-1.0,-1.0,5.0,2.0,-4.0,-5.0,-1.0,-1.0,1650823689480137.0
-1.0,-3.0,-2.0,-8.0,5.0,8.0,-4.0,-2.0,1650823689480137.0
-1.0,6.0,2.0,2.0,-14.0,-14.0,0.0,0.0,1650823689493129.0
-2.0,-5.0,-8.0,-1.0,13.0,13.0,6.0,4.0,1650823689493129.0
-2.0,-2.0,-3.0,8.0,-5.0,-8.0,-1.0,-3.0,1650823689501101.0
2.0,-1.0,-2.0,-1.0,1.0,0.0,0.0,4.0,1650823689501101.0
-1.0,-1.0,4.0,2.0,2.0,-1.0,-5.0,-3.0,1650823689516068.0
-4.0,-7.0,-22.0,-19.0,-8.0,-2.0,-3.0,-1.0,1650823689516068.0
0.0,0.0,1.0,-3.0,-3.0,-7.0,-2.0,2.0,1650823689517039.0
0.0,2.0,5.0,2.0,-3.0,10.0,-4.0,-2.0,1650823689517039.0
-3.0,4.0,4.0,5.0,1.0,-5.0,8.0,-2.0,1650823689539047.0
0.0,-2.0,3.0,11.0,8.0,1.0,0.0,1.0,1650823689539047.0
0.0,-1.0,-13.0,-7.0,5.0,7.0,-2.0,1.0,1650823689539977.0
1.0,-1.0,-5.0,-2.0,-10.0,-10.0,-2.0,0.0,1650823689539977.0
-1.0,2.0,4.0,-7.0,-4.0,-1.0,-5.0,-3.0,1650823689553848.0
-5.0,-12.0,-13.0,-5.0,3.0,4.0,-2.0,-2.0,1650823689553848.0
0.0,3.0,5.0,7.0,-1.0,-3.0,2.0,0.0,1650823689560824.0
1.0,3.0,2.0,2.0,-2.0,-3.0,1.0,2.0,1650823689560824.0
1.0,-3.0,0.0,2.0,5.0,7.0,-1.0,0.0,1650823689575904.0
-4.0,-7.0,-16.0,-13.0,-11.0,-12.0,-6.0,-2.0,1650823689575904.0
-1.0,-1.0,5.0,-1.0,2.0,6.0,0.0,-2.0,1650823689576874.0
0.0,0.0,-1.0,5.0,5.0,-3.0,3.0,0.0,1650823689576874.0
1.0,-3.0,1.0,2.0,7.0,11.0,-5.0,-8.0,1650823689598843.0
1.0,4.0,6.0,3.0,-7.0,-12.0,-5.0,-2.0,1650823689598843.0
0.0,-4.0,4.0,3.0,-1.0,-5.0,-3.0,1.0,1650823689599818.0
-2.0,-1.0,-12.0,-12.0,3.0,6.0,2.0,-5.0,1650823689599818.0
-1.0,-2.0,0.0,-1.0,2.0,-1.0,0.0,2.0,1650823689612844.0
2.0,3.0,6.0,7.0,0.0,8.0,1.0,-3.0,1650823689612844.0
1.0,1.0,0.0,-2.0,5.0,-2.0,-3.0,0.0,1650823689620870.0
-2.0,-2.0,9.0,1.0,-19.0,-16.0,0.0,0.0,1650823689620870.0
-1.0,-1.0,-10.0,-8.0,1.0,1.0,0.0,0.0,1650823689635769.0
1.0,-2.0,-3.0,10.0,2.0,1.0,4.0,1.0,1650823689635769.0
-1.0,4.0,11.0,-6.0,-4.0,-1.0,-2.0,0.0,1650823689636760.0
-1.0,-3.0,1.0,3.0,15.0,9.0,-1.0,-3.0,1650823689636760.0
0.0,5.0,5.0,2.0,0.0,-2.0,-1.0,4.0,1650823689658612.0
-2.0,-4.0,-6.0,-2.0,-7.0,0.0,2.0,-1.0,1650823689658612.0
1.0,1.0,-6.0,1.0,5.0,3.0,1.0,0.0,1650823689659538.0
0.0,-2.0,-5.0,-4.0,-3.0,-5.0,-3.0,-1.0,1650823689659538.0
1.0,0.0,-1.0,-1.0,-1.0,-3.0,-1.0,-2.0,1650823689672565.0
1.0,3.0,5.0,1.0,-1.0,2.0,-1.0,0.0,1650823689672565.0
-1.0,-1.0,-5.0,-2.0,-2.0,-1.0,1.0,-4.0,1650823689681640.0
0.0,-2.0,-3.0,-4.0,-5.0,-5.0,-3.0,8.0,1650823689681640.0
1.0,-3.0,-7.0,6.0,-3.0,4.0,2.0,1.0,1650823689695783.0
-2.0,3.0,14.0,-4.0,3.0,-1.0,0.0,-4.0,1650823689695783.0
-1.0,0.0,1.0,1.0,-5.0,-5.0,-2.0,0.0,1650823689696715.0
-1.0,-2.0,-8.0,0.0,1.0,4.0,-2.0,-2.0,1650823689696715.0
-2.0,-5.0,-5.0,-5.0,1.0,2.0,0.0,-2.0,1650823689718656.0
0.0,2.0,-1.0,-3.0,-9.0,-3.0,0.0,3.0,1650823689718656.0
-1.0,1.0,3.0,4.0,1.0,3.0,-2.0,-2.0,1650823689719654.0
1.0,0.0,0.0,8.0,6.0,0.0,0.0,-2.0,1650823689719654.0
2.0,-2.0,14.0,-6.0,-5.0,-3.0,-1.0,4.0,1650823689741594.0
-1.0,-3.0,-19.0,-8.0,-3.0,-3.0,-2.0,-2.0,1650823689741594.0
0.0,-1.0,-2.0,-9.0,-4.0,0.0,1.0,4.0,1650823689742592.0
0.0,1.0,3.0,11.0,1.0,0.0,0.0,0.0,1650823689742592.0
-2.0,-3.0,-5.0,-5.0,1.0,-1.0,-3.0,-6.0,1650823689755893.0
3.0,9.0,14.0,7.0,6.0,-2.0,-1.0,3.0,1650823689755893.0
0.0,-3.0,-3.0,-5.0,-10.0,5.0,3.0,0.0,1650823689756827.0
-4.0,-2.0,-5.0,-2.0,-3.0,-2.0,-5.0,-7.0,1650823689756827.0
1.0,0.0,-7.0,-3.0,7.0,8.0,2.0,0.0,1650823689778832.0
-6.0,0.0,1.0,4.0,-5.0,-11.0,5.0,3.0,1650823689778832.0
-3.0,2.0,11.0,3.0,6.0,5.0,-4.0,-3.0,1650823689779762.0
4.0,2.0,2.0,-3.0,-5.0,-8.0,1.0,-1.0,1650823689779762.0
3.0,5.0,9.0,7.0,-2.0,5.0,-2.0,3.0,1650823689801797.0
-5.0,2.0,3.0,4.0,22.0,14.0,5.0,-3.0,1650823689801797.0
3.0,3.0,18.0,13.0,-2.0,-3.0,-2.0,0.0,1650823689802795.0
-6.0,-9.0,-26.0,-36.0,-13.0,-1.0,0.0,7.0,1650823689802795.0
1.0,-5.0,-3.0,-6.0,-8.0,-4.0,-12.0,-25.0,1650823689815789.0
15.0,2.0,8.0,9.0,2.0,-3.0,7.0,6.0,1650823689815789.0
18.0,13.0,16.0,19.0,10.0,5.0,4.0,3.0,1650823689816756.0
-42.0,-4.0,2.0,11.0,20.0,0.0,-3.0,19.0,1650823689816756.0
-1.0,-19.0,-27.0,-18.0,-19.0,-7.0,-6.0,-28.0,1650823689838765.0
-1.0,-2.0,-3.0,-8.0,-12.0,-6.0,-2.0,2.0,1650823689838765.0
15.0,-2.0,-11.0,-4.0,-3.0,-2.0,-4.0,-5.0,1650823689839696.0
27.0,2.0,14.0,8.0,9.0,6.0,1.0,11.0,1650823689839696.0
-8.0,11.0,-10.0,-8.0,-1.0,-7.0,-12.0,-1.0,1650823689869585.0
-66.0,-20.0,9.0,2.0,-3.0,-3.0,-7.0,-16.0,1650823689869585.0
-35.0,-15.0,-23.0,1.0,9.0,-4.0,3.0,-5.0,1650823689870578.0
-4.0,-12.0,-4.0,-9.0,-21.0,-6.0,-14.0,-12.0,1650823689870578.0
35.0,15.0,16.0,13.0,4.0,5.0,9.0,17.0,1650823689875564.0
47.0,6.0,22.0,7.0,4.0,8.0,1.0,8.0,1650823689875564.0
24.0,11.0,-26.0,-6.0,8.0,0.0,11.0,11.0,1650823689876562.0
-21.0,0.0,-3.0,-4.0,1.0,4.0,-1.0,-20.0,1650823689876562.0
9.0,10.0,2.0,-9.0,-1.0,1.0,28.0,96.0,1650823689898703.0
-5.0,-15.0,-8.0,-8.0,-9.0,-7.0,-18.0,-14.0,1650823689898703.0
26.0,10.0,11.0,2.0,-1.0,5.0,10.0,22.0,1650823689899725.0
32.0,16.0,21.0,12.0,4.0,6.0,-3.0,-15.0,1650823689899725.0
-8.0,0.0,-6.0,16.0,5.0,-6.0,-6.0,-14.0,1650823689921704.0
-29.0,-29.0,-10.0,7.0,6.0,2.0,33.0,31.0,1650823689921704.0
-30.0,-21.0,-8.0,-31.0,-5.0,-6.0,-16.0,-18.0,1650823689922635.0
57.0,12.0,-8.0,-21.0,-15.0,-6.0,-35.0,-42.0,1650823689922635.0
68.0,41.0,4.0,4.0,12.0,15.0,43.0,36.0,1650823689936597.0
-14.0,8.0,-6.0,5.0,-3.0,-10.0,-30.0,-74.0,1650823689936597.0
-116.0,-107.0,-16.0,5.0,-18.0,-21.0,-18.0,-27.0,1650823689936597.0
-25.0,-47.0,-33.0,-13.0,3.0,2.0,6.0,19.0,1650823689936597.0
69.0,36.0,7.0,4.0,1.0,1.0,3.0,1.0,1650823689958639.0
-79.0,-5.0,2.0,-19.0,-5.0,-5.0,-18.0,-21.0,1650823689958639.0
33.0,19.0,-13.0,-2.0,-6.0,11.0,14.0,-12.0,1650823689959566.0
21.0,27.0,16.0,10.0,11.0,12.0,39.0,36.0,1650823689959566.0
30.0,-14.0,-8.0,-1.0,-10.0,-12.0,-1.0,10.0,1650823689981534.0
51.0,65.0,15.0,1.0,-3.0,1.0,-3.0,34.0,1650823689981534.0
9.0,10.0,25.0,13.0,4.0,-2.0,-14.0,8.0,1650823689982513.0
-49.0,-21.0,-11.0,-4.0,8.0,3.0,19.0,-20.0,1650823689982513.0
-34.0,-1.0,-3.0,-6.0,-13.0,-10.0,-36.0,-38.0,1650823689996532.0
100.0,111.0,16.0,7.0,1.0,7.0,22.0,32.0,1650823689996532.0
-76.0,-62.0,-26.0,-15.0,-6.0,-9.0,-28.0,-36.0,1650823689996532.0
-8.0,-43.0,13.0,4.0,2.0,10.0,49.0,50.0,1650823689996532.0
60.0,-28.0,-23.0,-17.0,-8.0,-25.0,-29.0,-11.0,1650823690018408.0
-99.0,-74.0,5.0,-5.0,-21.0,-8.0,-24.0,-18.0,1650823690018408.0
93.0,54.0,-17.0,-28.0,2.0,11.0,27.0,21.0,1650823690019405.0
-67.0,-30.0,15.0,10.0,-3.0,-14.0,-52.0,7.0,1650823690019405.0
-28.0,-27.0,17.0,20.0,-12.0,-16.0,-31.0,-54.0,1650823690041377.0
109.0,80.0,-14.0,19.0,-4.0,15.0,23.0,28.0,1650823690041377.0
7.0,38.0,10.0,-4.0,14.0,5.0,-3.0,-9.0,1650823690042345.0
17.0,3.0,-32.0,-46.0,-12.0,-10.0,2.0,4.0,1650823690042345.0
-56.0,-2.0,24.0,-1.0,4.0,10.0,14.0,28.0,1650823690056652.0
67.0,84.0,23.0,22.0,15.0,11.0,14.0,22.0,1650823690056652.0
-84.0,-61.0,18.0,35.0,-19.0,-7.0,17.0,22.0,1650823690056652.0
82.0,-5.0,-30.0,-6.0,6.0,-12.0,2.0,-30.0,1650823690056652.0
-84.0,-36.0,-10.0,-7.0,0.0,-3.0,10.0,-7.0,1650823690078620.0
31.0,22.0,12.0,3.0,11.0,34.0,46.0,32.0,1650823690078620.0
99.0,-20.0,-11.0,-6.0,2.0,-12.0,-39.0,8.0,1650823690079617.0
9.0,52.0,3.0,-4.0,-14.0,-4.0,46.0,24.0,1650823690079617.0
16.0,82.0,22.0,2.0,-4.0,6.0,-9.0,-13.0,1650823690101558.0
-81.0,-122.0,-51.0,-38.0,-21.0,-33.0,-58.0,-61.0,1650823690101558.0
41.0,42.0,-13.0,-6.0,18.0,18.0,27.0,31.0,1650823690102529.0
73.0,57.0,34.0,16.0,8.0,12.0,2.0,13.0,1650823690102529.0
-35.0,-43.0,-33.0,48.0,15.0,17.0,67.0,64.0,1650823690116539.0
49.0,33.0,11.0,1.0,-13.0,-14.0,-33.0,-41.0,1650823690116539.0
-79.0,-10.0,9.0,-26.0,7.0,17.0,12.0,43.0,1650823690116539.0
90.0,19.0,-14.0,-21.0,-12.0,-17.0,-17.0,0.0,1650823690116539.0
-109.0,-19.0,-5.0,10.0,12.0,-8.0,-50.0,-55.0,1650823690147080.0
80.0,-8.0,0.0,-13.0,-1.0,13.0,48.0,75.0,1650823690147080.0
70.0,-38.0,-4.0,-2.0,-11.0,-14.0,-27.0,-20.0,1650823690147080.0
-59.0,-25.0,10.0,18.0,-7.0,5.0,0.0,-29.0,1650823690147080.0
1.0,31.0,21.0,15.0,-1.0,2.0,31.0,-2.0,1650823690162040.0
-54.0,4.0,0.0,11.0,20.0,-4.0,-4.0,-21.0,1650823690162040.0
25.0,21.0,-4.0,-4.0,-14.0,7.0,6.0,25.0,1650823690162040.0
-22.0,74.0,8.0,17.0,6.0,-13.0,-62.0,-79.0,1650823690162040.0
42.0,-12.0,-14.0,-18.0,24.0,6.0,-21.0,7.0,1650823690176003.0
-128.0,-107.0,-32.0,-21.0,-23.0,-29.0,-42.0,-57.0,1650823690176003.0
-3.0,127.0,23.0,13.0,7.0,7.0,30.0,29.0,1650823690177000.0
-56.0,-41.0,19.0,2.0,1.0,4.0,-2.0,3.0,1650823690177000.0
-77.0,-24.0,-5.0,2.0,-15.0,-12.0,-48.0,-34.0,1650823690198970.0
9.0,-3.0,-30.0,-47.0,12.0,18.0,18.0,23.0,1650823690198970.0
63.0,17.0,-13.0,25.0,14.0,0.0,-22.0,-44.0,1650823690198970.0
-111.0,16.0,23.0,-1.0,-15.0,-6.0,-15.0,19.0,1650823690198970.0
11.0,-41.0,-9.0,-4.0,-5.0,-5.0,-6.0,-15.0,1650823690221948.0
38.0,102.0,21.0,13.0,-5.0,5.0,16.0,59.0,1650823690221948.0
-116.0,-2.0,-5.0,0.0,-13.0,-29.0,-90.0,-123.0,1650823690222879.0
65.0,11.0,-18.0,8.0,8.0,3.0,-17.0,-21.0,1650823690222879.0
127.0,114.0,17.0,-7.0,10.0,35.0,70.0,87.0,1650823690235843.0
-80.0,-93.0,2.0,-5.0,-24.0,-42.0,-74.0,-17.0,1650823690235843.0
73.0,19.0,10.0,24.0,20.0,0.0,-20.0,-24.0,1650823690236841.0
-92.0,-67.0,-28.0,22.0,12.0,0.0,2.0,-11.0,1650823690236841.0
101.0,56.0,19.0,-67.0,-34.0,-4.0,-12.0,-45.0,1650823690258758.0
12.0,-46.0,-25.0,7.0,22.0,-1.0,25.0,1.0,1650823690258758.0
58.0,52.0,58.0,42.0,-14.0,11.0,42.0,34.0,1650823690259768.0
13.0,-10.0,-59.0,-38.0,16.0,1.0,-3.0,15.0,1650823690259768.0
-44.0,-77.0,16.0,26.0,3.0,-4.0,17.0,12.0,1650823690281886.0
88.0,110.0,-24.0,-35.0,-2.0,33.0,44.0,49.0,1650823690281886.0
-3.0,-35.0,-6.0,-43.0,-38.0,-38.0,58.0,78.0,1650823690282811.0
53.0,54.0,-5.0,28.0,9.0,-8.0,-66.0,-36.0,1650823690282811.0
-23.0,35.0,6.0,9.0,7.0,9.0,7.0,6.0,1650823690295803.0
125.0,95.0,32.0,29.0,21.0,12.0,9.0,59.0,1650823690295803.0
-128.0,-53.0,-1.0,12.0,12.0,2.0,-66.0,-90.0,1650823690303756.0
110.0,109.0,46.0,-1.0,-16.0,16.0,52.0,41.0,1650823690303756.0
-99.0,-76.0,-22.0,12.0,8.0,-9.0,8.0,36.0,1650823690318779.0
92.0,-9.0,13.0,54.0,3.0,-8.0,-33.0,-95.0,1650823690318779.0
30.0,58.0,-19.0,-80.0,-18.0,12.0,29.0,25.0,1650823690319712.0
-71.0,-37.0,9.0,53.0,38.0,23.0,48.0,48.0,1650823690319712.0
115.0,28.0,-4.0,-34.0,-5.0,-11.0,-51.0,-14.0,1650823690341776.0
-95.0,51.0,38.0,80.0,17.0,25.0,60.0,35.0,1650823690341776.0
-99.0,-125.0,-18.0,-36.0,10.0,-1.0,10.0,6.0,1650823690342767.0
17.0,45.0,-22.0,-17.0,-14.0,17.0,20.0,3.0,1650823690342767.0
77.0,-31.0,-21.0,13.0,4.0,-4.0,-44.0,-32.0,1650823690355664.0
-128.0,-127.0,20.0,-14.0,-21.0,-21.0,-26.0,6.0,1650823690355664.0
40.0,7.0,15.0,5.0,10.0,21.0,28.0,-34.0,1650823690363642.0
-7.0,54.0,28.0,3.0,-8.0,-16.0,-4.0,30.0,1650823690363642.0
-56.0,-42.0,-7.0,-13.0,-13.0,-31.0,-68.0,-104.0,1650823690378678.0
112.0,72.0,13.0,60.0,-12.0,-7.0,-40.0,0.0,1650823690378678.0
-41.0,80.0,-44.0,-67.0,33.0,32.0,55.0,68.0,1650823690379649.0
73.0,31.0,1.0,0.0,-31.0,-37.0,-56.0,-73.0,1650823690379649.0
45.0,127.0,15.0,3.0,-9.0,16.0,73.0,80.0,1650823690401706.0
-69.0,34.0,4.0,-17.0,12.0,5.0,39.0,7.0,1650823690401706.0
61.0,-3.0,-3.0,72.0,-8.0,-12.0,-9.0,-38.0,1650823690402676.0
52.0,78.0,-26.0,-69.0,31.0,35.0,31.0,57.0,1650823690402676.0
-105.0,-95.0,-27.0,-28.0,-30.0,-19.0,22.0,0.0,1650823690415669.0
-58.0,-1.0,31.0,-18.0,-4.0,1.0,-27.0,-40.0,1650823690415669.0
-18.0,-47.0,-5.0,10.0,0.0,7.0,14.0,41.0,1650823690424011.0
-72.0,-124.0,-12.0,18.0,8.0,-2.0,7.0,-3.0,1650823690424011.0
83.0,85.0,4.0,12.0,3.0,-5.0,-35.0,11.0,1650823690438676.0
-5.0,-30.0,-28.0,-38.0,-8.0,2.0,13.0,-53.0,1650823690438676.0
-19.0,-55.0,-3.0,3.0,-17.0,-37.0,-70.0,-73.0,1650823690439607.0
88.0,33.0,19.0,-14.0,-40.0,-20.0,2.0,10.0,1650823690439607.0
-14.0,92.0,23.0,24.0,40.0,37.0,107.0,103.0,1650823690463111.0
31.0,0.0,-8.0,7.0,24.0,13.0,-25.0,9.0,1650823690463111.0
6.0,25.0,13.0,31.0,-34.0,-9.0,-12.0,3.0,1650823690464087.0
84.0,75.0,1.0,-31.0,39.0,19.0,71.0,100.0,1650823690464087.0
-115.0,-99.0,0.0,86.0,8.0,-10.0,-52.0,-87.0,1650823690475122.0
119.0,115.0,-4.0,-89.0,11.0,6.0,6.0,15.0,1650823690475122.0
116.0,127.0,41.0,35.0,-4.0,15.0,20.0,6.0,1650823690484061.0
-43.0,-85.0,27.0,22.0,-27.0,-6.0,-8.0,-8.0,1650823690484061.0
126.0,32.0,-14.0,45.0,16.0,15.0,18.0,17.0,1650823690498207.0
-128.0,-6.0,-57.0,-58.0,-13.0,-2.0,65.0,35.0,1650823690498207.0
127.0,13.0,-14.0,-7.0,2.0,-17.0,-58.0,33.0,1650823690499149.0
-28.0,18.0,10.0,17.0,-5.0,33.0,87.0,38.0,1650823690499149.0
66.0,77.0,18.0,-29.0,-12.0,-18.0,-46.0,12.0,1650823690522146.0
-59.0,27.0,24.0,33.0,-12.0,-18.0,-85.0,-58.0,1650823690522146.0
55.0,23.0,-19.0,0.0,16.0,9.0,32.0,39.0,1650823690522146.0
-1.0,-5.0,-24.0,-38.0,9.0,4.0,43.0,19.0,1650823690522146.0
25.0,69.0,17.0,2.0,-15.0,14.0,-17.0,-64.0,1650823690535071.0
-59.0,33.0,0.0,44.0,26.0,2.0,28.0,6.0,1650823690535071.0
-128.0,-73.0,6.0,-35.0,-3.0,18.0,44.0,32.0,1650823690544034.0
-55.0,-27.0,29.0,22.0,1.0,-10.0,-53.0,-53.0,1650823690544034.0
6.0,80.0,-13.0,-72.0,15.0,23.0,83.0,104.0,1650823690558646.0
127.0,93.0,6.0,1.0,-35.0,-19.0,-36.0,-3.0,1650823690558646.0
-17.0,-98.0,11.0,33.0,-13.0,2.0,32.0,73.0,1650823690559578.0
93.0,105.0,-34.0,33.0,23.0,-5.0,-33.0,-55.0,1650823690559578.0
-30.0,-51.0,0.0,-30.0,-21.0,-24.0,-28.0,-29.0,1650823690581545.0
111.0,37.0,0.0,1.0,9.0,12.0,50.0,52.0,1650823690581545.0
-79.0,28.0,1.0,4.0,11.0,14.0,41.0,0.0,1650823690582525.0
-9.0,-19.0,-17.0,-10.0,-26.0,-33.0,-84.0,-43.0,1650823690582525.0
59.0,62.0,18.0,-2.0,-6.0,-10.0,-41.0,-21.0,1650823690595509.0
-14.0,-67.0,-17.0,52.0,0.0,-12.0,-77.0,-80.0,1650823690595509.0
-6.0,26.0,-30.0,-37.0,22.0,6.0,28.0,4.0,1650823690603460.0
-98.0,-32.0,45.0,29.0,-18.0,-6.0,-5.0,14.0,1650823690603460.0
-46.0,15.0,-41.0,-51.0,34.0,24.0,38.0,3.0,1650823690618483.0
75.0,-69.0,4.0,5.0,-13.0,-12.0,-11.0,9.0,1650823690618483.0
87.0,127.0,-3.0,-70.0,-17.0,-12.0,9.0,24.0,1650823690619417.0
-120.0,-128.0,-22.0,23.0,-9.0,-20.0,-53.0,-75.0,1650823690619417.0
103.0,-4.0,26.0,17.0,-10.0,4.0,5.0,27.0,1650823690641379.0
-55.0,43.0,-15.0,-19.0,8.0,11.0,34.0,21.0,1650823690641379.0
35.0,24.0,14.0,8.0,-15.0,-22.0,-46.0,-39.0,1650823690642357.0
31.0,60.0,-4.0,-6.0,2.0,6.0,7.0,-29.0,1650823690642357.0
13.0,63.0,2.0,19.0,8.0,13.0,50.0,75.0,1650823690664318.0
-61.0,-123.0,-29.0,-39.0,-30.0,-32.0,-33.0,-66.0,1650823690664318.0
-19.0,85.0,13.0,18.0,3.0,-14.0,9.0,1.0,1650823690665294.0
1.0,10.0,21.0,2.0,-6.0,16.0,-2.0,24.0,1650823690665294.0
67.0,2.0,-3.0,15.0,14.0,-9.0,23.0,31.0,1650823690678280.0
-13.0,-46.0,-6.0,-34.0,0.0,4.0,3.0,-33.0,1650823690678280.0
-71.0,-78.0,-18.0,32.0,10.0,10.0,12.0,13.0,1650823690679257.0
65.0,90.0,7.0,-33.0,-8.0,-2.0,-26.0,-35.0,1650823690679257.0
-84.0,-127.0,-2.0,-4.0,-13.0,-10.0,-4.0,-22.0,1650823690702216.0
54.0,32.0,-5.0,-7.0,7.0,10.0,16.0,22.0,1650823690702216.0
41.0,7.0,2.0,16.0,15.0,14.0,0.0,16.0,1650823690703194.0
30.0,-16.0,5.0,-13.0,-10.0,-5.0,37.0,54.0,1650823690703194.0
-82.0,-21.0,11.0,19.0,1.0,6.0,-34.0,-73.0,1650823690724176.0
-68.0,42.0,13.0,11.0,-9.0,-16.0,-6.0,8.0,1650823690724176.0
-7.0,-51.0,-9.0,5.0,-4.0,-9.0,-16.0,-9.0,1650823690725135.0
68.0,51.0,-4.0,-8.0,12.0,7.0,13.0,24.0,1650823690725135.0
-128.0,-17.0,2.0,0.0,-7.0,-2.0,-3.0,20.0,1650823690738221.0
-13.0,-81.0,-1.0,18.0,6.0,-1.0,-45.0,-52.0,1650823690738221.0
119.0,114.0,12.0,-15.0,7.0,26.0,43.0,35.0,1650823690739178.0
-103.0,-69.0,2.0,4.0,-6.0,-37.0,-45.0,-29.0,1650823690739178.0
12.0,9.0,1.0,26.0,-9.0,6.0,-28.0,-64.0,1650823690761930.0
62.0,90.0,5.0,-10.0,24.0,15.0,25.0,63.0,1650823690761930.0
-128.0,-126.0,-24.0,-32.0,-15.0,-33.0,-76.0,-95.0,1650823690762888.0
58.0,85.0,0.0,-3.0,-1.0,9.0,34.0,-2.0,1650823690762888.0
93.0,36.0,-20.0,-7.0,-8.0,-1.0,10.0,33.0,1650823690784663.0
-75.0,20.0,23.0,50.0,5.0,5.0,30.0,0.0,1650823690784663.0
100.0,-10.0,-10.0,-41.0,4.0,0.0,-28.0,-28.0,1650823690784663.0
-9.0,-40.0,-19.0,-10.0,-9.0,0.0,1.0,-5.0,1650823690784663.0
78.0,41.0,-7.0,-23.0,4.0,11.0,21.0,51.0,1650823690799629.0
23.0,-68.0,2.0,-9.0,-4.0,14.0,42.0,62.0,1650823690799629.0
-31.0,62.0,18.0,35.0,3.0,-5.0,-19.0,6.0,1650823690800630.0
64.0,74.0,6.0,-15.0,5.0,2.0,-9.0,25.0,1650823690800630.0
-45.0,-84.0,-15.0,6.0,-22.0,-20.0,-5.0,-3.0,1650823690821877.0
-17.0,-39.0,8.0,0.0,6.0,4.0,-2.0,24.0,1650823690821877.0
34.0,-4.0,7.0,25.0,11.0,21.0,50.0,63.0,1650823690822808.0
20.0,19.0,-10.0,3.0,-18.0,-31.0,-47.0,-36.0,1650823690822808.0
10.0,9.0,7.0,-20.0,16.0,11.0,-21.0,-33.0,1650823690844649.0
34.0,-35.0,-19.0,16.0,1.0,-2.0,18.0,12.0,1650823690844649.0
-57.0,-12.0,-40.0,-52.0,12.0,-7.0,-55.0,-54.0,1650823690844922.0
-86.0,-113.0,7.0,26.0,-49.0,-19.0,5.0,-1.0,1650823690844922.0
58.0,3.0,-47.0,-55.0,38.0,14.0,17.0,18.0,1650823690858501.0
-74.0,-17.0,-7.0,-25.0,-23.0,1.0,13.0,-9.0,1650823690858501.0
127.0,117.0,52.0,67.0,-25.0,-6.0,25.0,58.0,1650823690859462.0
-23.0,47.0,-22.0,-22.0,33.0,9.0,12.0,11.0,1650823690859462.0
-67.0,-113.0,-4.0,-5.0,-28.0,-23.0,-9.0,-9.0,1650823690881502.0
64.0,127.0,12.0,25.0,7.0,8.0,-7.0,38.0,1650823690881502.0
39.0,93.0,-1.0,-1.0,-1.0,-11.0,-33.0,-54.0,1650823690882498.0
127.0,102.0,30.0,27.0,17.0,47.0,70.0,59.0,1650823690882498.0
-104.0,47.0,19.0,15.0,-6.0,-35.0,-81.0,-93.0,1650823690904661.0
39.0,-59.0,-43.0,-23.0,5.0,-10.0,-58.0,-54.0,1650823690904661.0
8.0,105.0,39.0,27.0,-23.0,-2.0,6.0,49.0,1650823690904661.0
-128.0,-128.0,-54.0,-46.0,41.0,8.0,0.0,-20.0,1650823690904661.0
50.0,71.0,20.0,56.0,-9.0,21.0,73.0,65.0,1650823690918562.0
117.0,103.0,-15.0,-50.0,25.0,16.0,53.0,57.0,1650823690918562.0
-128.0,-128.0,-46.0,-6.0,-33.0,-47.0,-96.0,-128.0,1650823690919493.0
40.0,19.0,40.0,-7.0,-7.0,2.0,3.0,-6.0,1650823690919493.0
94.0,67.0,0.0,12.0,36.0,21.0,13.0,30.0,1650823690941636.0
-36.0,-84.0,-19.0,3.0,-37.0,-30.0,-20.0,-53.0,1650823690941636.0
110.0,116.0,13.0,-2.0,-13.0,12.0,65.0,91.0,1650823690942569.0
-97.0,-73.0,-40.0,-12.0,6.0,-19.0,-46.0,-55.0,1650823690942569.0
111.0,66.0,12.0,9.0,-19.0,-13.0,10.0,13.0,1650823690964618.0
-69.0,111.0,50.0,26.0,22.0,28.0,58.0,55.0,1650823690964618.0
-54.0,-94.0,-28.0,-7.0,9.0,2.0,22.0,-31.0,1650823690964618.0
-59.0,-28.0,3.0,9.0,-27.0,-36.0,-1.0,18.0,1650823690964618.0
-31.0,-84.0,-13.0,-20.0,6.0,9.0,-40.0,-46.0,1650823690979596.0
71.0,51.0,31.0,12.0,-21.0,-16.0,-25.0,-49.0,1650823690979596.0
1.0,37.0,14.0,4.0,34.0,12.0,24.0,23.0,1650823690979596.0
95.0,110.0,20.0,34.0,8.0,35.0,55.0,66.0,1650823690979596.0
-26.0,-3.0,11.0,3.0,-9.0,-8.0,-12.0,2.0,1650823691001792.0
22.0,12.0,-34.0,-25.0,11.0,10.0,26.0,17.0,1650823691001792.0
-84.0,-75.0,-27.0,-65.0,6.0,7.0,-15.0,-40.0,1650823691002724.0
102.0,-21.0,1.0,21.0,-1.0,-5.0,-23.0,12.0,1650823691002724.0
84.0,110.0,17.0,11.0,3.0,7.0,16.0,36.0,1650823691023820.0
-127.0,-125.0,4.0,22.0,-23.0,-23.0,-46.0,-82.0,1650823691023820.0
127.0,101.0,-6.0,-8.0,21.0,10.0,9.0,44.0,1650823691024820.0
110.0,109.0,4.0,16.0,12.0,27.0,45.0,45.0,1650823691024820.0
-112.0,-100.0,0.0,-10.0,-12.0,-12.0,-41.0,-12.0,1650823691038846.0
124.0,43.0,6.0,-5.0,2.0,-11.0,10.0,68.0,1650823691038846.0
-128.0,-28.0,17.0,32.0,-7.0,3.0,34.0,17.0,1650823691039780.0
125.0,73.0,6.0,-2.0,4.0,-3.0,-18.0,28.0,1650823691039780.0
-49.0,-66.0,-46.0,-28.0,-19.0,-17.0,-43.0,-76.0,1650823691060873.0
77.0,78.0,-14.0,-23.0,16.0,5.0,-36.0,-44.0,1650823691060873.0
127.0,119.0,32.0,5.0,-1.0,14.0,20.0,48.0,1650823691068917.0
-91.0,-58.0,2.0,41.0,-15.0,-12.0,-21.0,-59.0,1650823691068917.0
81.0,74.0,26.0,-13.0,-24.0,-7.0,9.0,12.0,1650823691084657.0
-14.0,-28.0,-31.0,49.0,37.0,13.0,33.0,45.0,1650823691084657.0
104.0,35.0,-24.0,-43.0,-8.0,-12.0,-52.0,-51.0,1650823691084891.0
-44.0,-8.0,26.0,-5.0,-14.0,-6.0,-4.0,1.0,1650823691084891.0
-116.0,-67.0,-31.0,-10.0,-24.0,-30.0,-45.0,-81.0,1650823691098970.0
76.0,-11.0,32.0,23.0,-18.0,24.0,103.0,95.0,1650823691098970.0
19.0,76.0,21.0,16.0,-11.0,-36.0,-75.0,-45.0,1650823691098970.0
-118.0,-2.0,0.0,-7.0,20.0,8.0,-13.0,-36.0,1650823691098970.0
-33.0,-68.0,-26.0,-8.0,-4.0,-33.0,-97.0,-91.0,1650823691121881.0
38.0,68.0,15.0,-14.0,-7.0,9.0,84.0,65.0,1650823691121881.0
-6.0,-82.0,-21.0,7.0,0.0,9.0,22.0,27.0,1650823691122895.0
127.0,127.0,22.0,6.0,-13.0,11.0,58.0,83.0,1650823691122895.0
-36.0,-75.0,10.0,96.0,39.0,19.0,27.0,8.0,1650823691143838.0
-72.0,-52.0,-55.0,-108.0,-2.0,12.0,-19.0,-18.0,1650823691143838.0
-44.0,-68.0,8.0,38.0,7.0,0.0,8.0,-23.0,1650823691144815.0
-18.0,-75.0,-43.0,-34.0,36.0,9.0,-11.0,-21.0,1650823691144815.0
51.0,127.0,19.0,-15.0,-12.0,22.0,78.0,78.0,1650823691158797.0
10.0,59.0,36.0,32.0,-10.0,-19.0,-44.0,-30.0,1650823691158797.0
-43.0,-68.0,5.0,-11.0,-11.0,4.0,-6.0,-14.0,1650823691159778.0
109.0,-8.0,-37.0,-26.0,-36.0,-28.0,-5.0,22.0,1650823691159778.0
52.0,-27.0,-17.0,-9.0,18.0,18.0,3.0,-7.0,1650823691181736.0
-14.0,25.0,8.0,-12.0,-13.0,-24.0,-5.0,-44.0,1650823691181736.0
69.0,109.0,34.0,16.0,5.0,23.0,28.0,90.0,1650823691182714.0
-117.0,-23.0,-24.0,23.0,11.0,0.0,45.0,22.0,1650823691182714.0
127.0,-15.0,-12.0,-36.0,5.0,-15.0,-11.0,18.0,1650823691204655.0
-16.0,105.0,32.0,32.0,-13.0,10.0,8.0,19.0,1650823691204655.0
-92.0,-88.0,-30.0,-18.0,14.0,-10.0,-7.0,-52.0,1650823691204655.0
117.0,87.0,3.0,-12.0,1.0,23.0,33.0,30.0,1650823691204655.0
21.0,72.0,23.0,3.0,-34.0,-6.0,28.0,28.0,1650823691217646.0
-35.0,-52.0,-9.0,-4.0,54.0,15.0,-30.0,-24.0,1650823691217646.0
34.0,-19.0,-50.0,2.0,15.0,16.0,32.0,29.0,1650823691226617.0
-14.0,1.0,28.0,6.0,0.0,-6.0,-36.0,-35.0,1650823691226617.0
-106.0,-54.0,0.0,-17.0,-6.0,-9.0,-6.0,-33.0,1650823691241942.0
70.0,-1.0,14.0,14.0,-38.0,-18.0,-16.0,45.0,1650823691241942.0
-69.0,46.0,10.0,18.0,2.0,19.0,29.0,-65.0,1650823691242910.0
91.0,96.0,13.0,-4.0,-1.0,-11.0,-5.0,-33.0,1650823691242910.0
35.0,-30.0,-7.0,16.0,15.0,23.0,16.0,69.0,1650823691264418.0
61.0,48.0,-8.0,3.0,0.0,-16.0,-40.0,-81.0,1650823691264418.0
32.0,0.0,-10.0,-1.0,-2.0,-34.0,-71.0,6.0,1650823691265418.0
-63.0,-61.0,-8.0,-18.0,-15.0,-5.0,-20.0,-26.0,1650823691265418.0
19.0,78.0,11.0,0.0,6.0,7.0,33.0,19.0,1650823691277689.0
-12.0,-45.0,-3.0,-1.0,10.0,18.0,29.0,12.0,1650823691277689.0
53.0,2.0,8.0,-1.0,1.0,5.0,-18.0,35.0,1650823691285712.0
-33.0,-3.0,13.0,8.0,-12.0,1.0,41.0,-53.0,1650823691285712.0
-32.0,-4.0,-2.0,-3.0,0.0,-11.0,-26.0,9.0,1650823691301702.0
-25.0,-61.0,-23.0,-8.0,4.0,-1.0,-14.0,-14.0,1650823691301702.0
22.0,24.0,13.0,8.0,-8.0,-6.0,10.0,3.0,1650823691302631.0
-49.0,-45.0,4.0,6.0,8.0,6.0,-10.0,-9.0,1650823691302631.0
-6.0,26.0,-8.0,-25.0,3.0,8.0,29.0,0.0,1650823691324655.0
2.0,3.0,-15.0,-15.0,-22.0,-5.0,-10.0,23.0,1650823691324655.0
-14.0,-15.0,-2.0,7.0,5.0,-7.0,-13.0,0.0,1650823691324655.0
-2.0,-15.0,-3.0,-3.0,15.0,9.0,-7.0,7.0,1650823691324655.0
36.0,33.0,12.0,7.0,3.0,1.0,2.0,16.0,1650823691337623.0
21.0,36.0,2.0,-2.0,-4.0,-2.0,7.0,8.0,1650823691337623.0
-22.0,-51.0,0.0,-7.0,-23.0,-15.0,-35.0,-33.0,1650823691346616.0
14.0,-5.0,-3.0,3.0,-2.0,3.0,27.0,52.0,1650823691346616.0
-5.0,37.0,3.0,15.0,19.0,11.0,-19.0,-8.0,1650823691361694.0
-1.0,-11.0,10.0,7.0,6.0,-1.0,-38.0,-8.0,1650823691361694.0
5.0,21.0,37.0,18.0,1.0,6.0,22.0,-39.0,1650823691362634.0
6.0,9.0,2.0,0.0,-2.0,-13.0,-30.0,-17.0,1650823691362634.0
-14.0,28.0,32.0,14.0,0.0,4.0,20.0,22.0,1650823691384698.0
-6.0,-33.0,-55.0,-15.0,-3.0,6.0,27.0,-10.0,1650823691384698.0
-16.0,-5.0,-38.0,-54.0,-22.0,-18.0,-5.0,-1.0,1650823691384698.0
-9.0,-4.0,1.0,-3.0,-5.0,-3.0,-25.0,3.0,1650823691384698.0
7.0,25.0,3.0,11.0,5.0,6.0,23.0,1.0,1650823691397684.0
-10.0,-7.0,30.0,24.0,13.0,4.0,-20.0,-10.0,1650823691397684.0
12.0,17.0,18.0,20.0,10.0,10.0,27.0,24.0,1650823691405604.0
-1.0,1.0,-16.0,-4.0,-7.0,-4.0,-16.0,-16.0,1650823691405604.0
-2.0,4.0,3.0,1.0,1.0,3.0,-1.0,-6.0,1650823691421557.0
-14.0,-2.0,11.0,11.0,3.0,-5.0,1.0,5.0,1650823691421557.0
11.0,-6.0,-10.0,2.0,4.0,10.0,20.0,5.0,1650823691422554.0
-8.0,-4.0,-2.0,0.0,-4.0,-6.0,-22.0,28.0,1650823691422554.0
16.0,25.0,0.0,-5.0,4.0,2.0,19.0,12.0,1650823691444796.0
-25.0,-65.0,-6.0,-6.0,-7.0,-9.0,-14.0,-14.0,1650823691444796.0
6.0,-19.0,-82.0,-39.0,-8.0,0.0,9.0,-2.0,1650823691444796.0
0.0,23.0,30.0,11.0,2.0,6.0,36.0,16.0,1650823691444796.0
-14.0,6.0,19.0,18.0,-5.0,-14.0,-30.0,19.0,1650823691457761.0
-6.0,13.0,31.0,6.0,-1.0,-4.0,-3.0,18.0,1650823691457761.0
14.0,1.0,-2.0,-20.0,-14.0,-9.0,-14.0,-25.0,1650823691466647.0
20.0,1.0,-3.0,12.0,10.0,7.0,9.0,16.0,1650823691466647.0
-10.0,7.0,1.0,1.0,6.0,7.0,7.0,-37.0,1650823691481796.0
-9.0,8.0,14.0,23.0,8.0,9.0,5.0,-10.0,1650823691481796.0
8.0,-15.0,-29.0,-24.0,-4.0,-5.0,2.0,7.0,1650823691482727.0
-12.0,-12.0,-27.0,-26.0,-9.0,-7.0,-14.0,-8.0,1650823691482727.0
12.0,21.0,13.0,-1.0,-6.0,-2.0,9.0,-2.0,1650823691504816.0
-7.0,-12.0,-9.0,5.0,2.0,0.0,-9.0,-6.0,1650823691504816.0
2.0,11.0,28.0,33.0,12.0,9.0,10.0,6.0,1650823691504816.0
-4.0,-1.0,10.0,1.0,5.0,2.0,-11.0,-16.0,1650823691504816.0
-3.0,-8.0,-12.0,-10.0,6.0,-1.0,-2.0,-9.0,1650823691517854.0
7.0,4.0,17.0,2.0,-3.0,-3.0,-1.0,-2.0,1650823691517854.0
10.0,14.0,17.0,22.0,3.0,0.0,2.0,28.0,1650823691533928.0
-41.0,0.0,-20.0,-9.0,-6.0,-4.0,-15.0,-57.0,1650823691533928.0
6.0,-22.0,-21.0,-12.0,-14.0,-5.0,1.0,-12.0,1650823691541908.0
-9.0,0.0,-16.0,-26.0,-16.0,-14.0,-6.0,12.0,1650823691541908.0
4.0,10.0,42.0,24.0,18.0,8.0,2.0,-1.0,1650823691542860.0
12.0,-4.0,6.0,7.0,3.0,0.0,-3.0,19.0,1650823691542860.0
0.0,-5.0,-20.0,-14.0,2.0,4.0,8.0,6.0,1650823691564024.0
-4.0,-5.0,-8.0,1.0,-2.0,-3.0,-6.0,-20.0,1650823691564024.0
-2.0,13.0,18.0,12.0,3.0,5.0,7.0,7.0,1650823691565025.0
1.0,-12.0,-24.0,-8.0,3.0,2.0,-4.0,-3.0,1650823691565025.0
-5.0,-12.0,-16.0,-4.0,-9.0,-4.0,-2.0,0.0,1650823691578056.0
4.0,7.0,33.0,25.0,6.0,3.0,4.0,6.0,1650823691578056.0
4.0,-11.0,-72.0,-41.0,-4.0,-2.0,1.0,-1.0,1650823691586086.0
-16.0,-10.0,-12.0,-32.0,-19.0,-12.0,-1.0,32.0,1650823691586086.0
16.0,1.0,-6.0,-14.0,-7.0,-6.0,-4.0,-7.0,1650823691600049.0
0.0,17.0,3.0,1.0,-5.0,1.0,-1.0,2.0,1650823691600049.0
0.0,11.0,29.0,27.0,10.0,10.0,2.0,-3.0,1650823691609094.0
16.0,9.0,15.0,21.0,19.0,12.0,7.0,10.0,1650823691609094.0
-35.0,-14.0,-13.0,-3.0,-1.0,-3.0,0.0,18.0,1650823691624753.0
4.0,-1.0,-6.0,-12.0,-7.0,-7.0,-5.0,-21.0,1650823691624753.0
-4.0,-7.0,10.0,3.0,5.0,-1.0,-1.0,23.0,1650823691625756.0
5.0,1.0,4.0,3.0,-7.0,-1.0,-1.0,-6.0,1650823691625756.0
1.0,6.0,20.0,10.0,5.0,3.0,7.0,8.0,1650823691646708.0
3.0,-12.0,-27.0,-15.0,0.0,0.0,3.0,23.0,1650823691646708.0
-4.0,25.0,15.0,8.0,-4.0,2.0,1.0,-5.0,1650823691648663.0
1.0,-6.0,19.0,8.0,3.0,4.0,-2.0,-8.0,1650823691648663.0
8.0,21.0,26.0,16.0,8.0,6.0,2.0,-10.0,1650823691660714.0
-19.0,-66.0,-85.0,-36.0,-16.0,-3.0,-6.0,-5.0,1650823691660714.0
-4.0,-12.0,-14.0,-15.0,-11.0,-20.0,-6.0,-6.0,1650823691669720.0
7.0,13.0,21.0,15.0,6.0,5.0,1.0,-3.0,1650823691669720.0
3.0,-20.0,-8.0,3.0,11.0,7.0,5.0,0.0,1650823691684652.0
6.0,29.0,29.0,13.0,7.0,4.0,5.0,2.0,1650823691684652.0
2.0,2.0,22.0,20.0,9.0,8.0,3.0,5.0,1650823691685651.0
-3.0,-9.0,-23.0,-8.0,-13.0,-6.0,-4.0,-11.0,1650823691685651.0
-3.0,-14.0,-15.0,-20.0,-9.0,-7.0,1.0,7.0,1650823691706594.0
2.0,2.0,5.0,-2.0,2.0,0.0,-3.0,-4.0,1650823691706594.0
-1.0,14.0,0.0,2.0,1.0,3.0,1.0,-6.0,1650823691708620.0
5.0,-6.0,13.0,2.0,6.0,-1.0,0.0,-1.0,1650823691708620.0
3.0,12.0,12.0,4.0,-5.0,-1.0,-5.0,-2.0,1650823691720584.0
2.0,13.0,0.0,-4.0,-5.0,-7.0,0.0,1.0,1650823691720584.0
-4.0,2.0,32.0,8.0,-3.0,-4.0,-3.0,-5.0,1650823691729533.0
5.0,16.0,0.0,0.0,10.0,3.0,-4.0,1.0,1650823691729533.0
-2.0,-16.0,-14.0,-7.0,-12.0,-3.0,-3.0,-4.0,1650823691744560.0
-3.0,5.0,17.0,11.0,8.0,1.0,2.0,-5.0,1650823691744560.0
2.0,-11.0,10.0,11.0,3.0,3.0,-1.0,0.0,1650823691745523.0
1.0,12.0,5.0,-1.0,-3.0,0.0,-1.0,-4.0,1650823691745523.0
1.0,-5.0,-22.0,-24.0,-3.0,-3.0,-3.0,-6.0,1650823691766920.0
1.0,-3.0,0.0,5.0,6.0,2.0,-3.0,1.0,1650823691766920.0
-2.0,-11.0,-20.0,-2.0,-4.0,3.0,0.0,1.0,1650823691767911.0
-5.0,-15.0,-3.0,-9.0,-15.0,-15.0,-4.0,-3.0,1650823691767911.0
0.0,1.0,6.0,1.0,3.0,0.0,2.0,0.0,1650823691780632.0
5.0,17.0,21.0,-1.0,5.0,6.0,4.0,2.0,1650823691780632.0
0.0,-29.0,-24.0,9.0,10.0,5.0,3.0,1.0,1650823691789543.0
-3.0,-5.0,-9.0,-6.0,-3.0,-3.0,-3.0,-3.0,1650823691789543.0
1.0,8.0,5.0,0.0,-4.0,-1.0,-2.0,-6.0,1650823691811544.0
-1.0,-5.0,-13.0,-6.0,-8.0,-5.0,-3.0,-2.0,1650823691811544.0
-3.0,-4.0,1.0,-4.0,-2.0,-1.0,2.0,-1.0,1650823691813478.0
-2.0,3.0,-1.0,3.0,4.0,4.0,3.0,1.0,1650823691813478.0
1.0,-11.0,-6.0,0.0,-2.0,-3.0,-3.0,1.0,1650823691826626.0
0.0,5.0,-1.0,-4.0,-4.0,-2.0,-1.0,0.0,1650823691826626.0
-2.0,15.0,4.0,0.0,0.0,0.0,0.0,-3.0,1650823691828580.0
1.0,0.0,1.0,2.0,3.0,5.0,0.0,0.0,1650823691828580.0
-2.0,4.0,3.0,4.0,-3.0,-3.0,-3.0,-2.0,1650823691849686.0
-2.0,-9.0,1.0,1.0,-1.0,-3.0,-1.0,-2.0,1650823691849686.0
4.0,16.0,0.0,-7.0,-6.0,-2.0,0.0,0.0,1650823691851051.0
0.0,12.0,10.0,2.0,-1.0,1.0,0.0,-3.0,1650823691851051.0
-1.0,-5.0,0.0,13.0,19.0,19.0,1.0,-2.0,1650823691864043.0
-5.0,2.0,9.0,-9.0,-13.0,-16.0,-5.0,-4.0,1650823691864043.0
-3.0,-11.0,-10.0,-9.0,-4.0,-1.0,0.0,0.0,1650823691866010.0
-2.0,-9.0,0.0,-10.0,-2.0,-4.0,-4.0,-2.0,1650823691866010.0
1.0,6.0,14.0,8.0,0.0,0.0,0.0,0.0,1650823691887951.0
3.0,11.0,-4.0,3.0,10.0,13.0,4.0,0.0,1650823691887951.0
-6.0,-12.0,-5.0,8.0,-1.0,-3.0,-5.0,-3.0,1650823691889948.0
-2.0,-9.0,-9.0,-5.0,-5.0,-3.0,-3.0,-2.0,1650823691889948.0
-1.0,-2.0,4.0,-3.0,-3.0,-6.0,-1.0,-2.0,1650823691900944.0
0.0,-9.0,-15.0,0.0,2.0,0.0,0.0,0.0,1650823691900944.0
0.0,6.0,0.0,-10.0,-9.0,-8.0,-3.0,1.0,1650823691907966.0
1.0,-3.0,10.0,8.0,4.0,15.0,2.0,2.0,1650823691907966.0
-4.0,1.0,-14.0,-1.0,2.0,-11.0,-1.0,-3.0,1650823691923857.0
0.0,-6.0,3.0,6.0,12.0,5.0,0.0,-3.0,1650823691923857.0
1.0,6.0,0.0,1.0,-3.0,0.0,1.0,8.0,1650823691925860.0
4.0,-7.0,-6.0,5.0,-3.0,-5.0,1.0,3.0,1650823691925860.0
-4.0,-11.0,-25.0,-15.0,-12.0,-4.0,-5.0,-2.0,1650823691946711.0
-3.0,14.0,25.0,1.0,1.0,-4.0,-4.0,-1.0,1650823691946711.0
-2.0,-3.0,13.0,-5.0,-2.0,1.0,-3.0,-4.0,1650823691948666.0
2.0,4.0,-23.0,-3.0,-4.0,-4.0,0.0,0.0,1650823691948666.0
3.0,-12.0,16.0,1.0,4.0,4.0,2.0,3.0,1650823691961621.0
-1.0,9.0,5.0,0.0,-1.0,-1.0,1.0,-3.0,1650823691961621.0
-3.0,-2.0,-3.0,-10.0,1.0,1.0,-3.0,-4.0,1650823691967655.0
-1.0,3.0,-2.0,5.0,4.0,4.0,-2.0,-2.0,1650823691967655.0
3.0,6.0,11.0,14.0,5.0,1.0,3.0,-1.0,1650823691984543.0
-6.0,-22.0,-21.0,-5.0,-3.0,-3.0,-3.0,-1.0,1650823691984543.0
1.0,13.0,17.0,3.0,-6.0,-8.0,3.0,-2.0,1650823691985540.0
0.0,2.0,-1.0,-5.0,-3.0,-5.0,-2.0,0.0,1650823691985540.0
-1.0,-7.0,-10.0,-5.0,-1.0,-2.0,-7.0,-2.0,1650823692006484.0
3.0,2.0,5.0,6.0,-10.0,13.0,4.0,2.0,1650823692006484.0
-5.0,6.0,-4.0,1.0,0.0,-10.0,-1.0,-2.0,1650823692008479.0
0.0,-4.0,8.0,0.0,-3.0,-11.0,1.0,-1.0,1650823692008479.0
1.0,2.0,1.0,4.0,4.0,6.0,-1.0,-1.0,1650823692020474.0
3.0,-12.0,-17.0,3.0,8.0,1.0,0.0,2.0,1650823692020474.0
1.0,7.0,7.0,-4.0,3.0,7.0,-2.0,-1.0,1650823692029423.0
-5.0,-1.0,2.0,-4.0,-3.0,-1.0,3.0,-1.0,1650823692029423.0
1.0,0.0,2.0,-2.0,-4.0,-7.0,0.0,1.0,1650823692051477.0
3.0,7.0,-5.0,-1.0,1.0,3.0,0.0,1.0,1650823692051477.0
-2.0,6.0,-8.0,-6.0,0.0,-1.0,-5.0,-6.0,1650823692053443.0
-4.0,-2.0,-6.0,3.0,-2.0,7.0,0.0,-1.0,1650823692053443.0
0.0,5.0,4.0,-6.0,-1.0,-9.0,-2.0,0.0,1650823692066435.0
-2.0,-2.0,-3.0,-2.0,-2.0,4.0,-1.0,0.0,1650823692066435.0
-1.0,-5.0,5.0,6.0,1.0,-2.0,0.0,-2.0,1650823692068403.0
4.0,2.0,-1.0,11.0,8.0,3.0,2.0,3.0,1650823692068403.0
-6.0,-9.0,-9.0,-7.0,-5.0,3.0,-3.0,-5.0,1650823692089348.0
-3.0,-7.0,-39.0,-20.0,-8.0,-6.0,-5.0,-4.0,1650823692089348.0
2.0,-3.0,9.0,3.0,-1.0,-1.0,-1.0,1.0,1650823692090344.0
0.0,-2.0,0.0,-3.0,16.0,7.0,0.0,-3.0,1650823692090344.0
2.0,-5.0,-8.0,-3.0,-13.0,-2.0,3.0,3.0,1650823692104327.0
-2.0,9.0,18.0,2.0,-4.0,-7.0,-3.0,0.0,1650823692104327.0
6.0,20.0,9.0,2.0,3.0,9.0,3.0,2.0,1650823692106302.0
-14.0,-54.0,-6.0,3.0,2.0,-4.0,-5.0,-7.0,1650823692106302.0
1.0,6.0,-7.0,-1.0,4.0,1.0,-1.0,-2.0,1650823692126268.0
-3.0,-4.0,4.0,-10.0,-11.0,-10.0,-4.0,-2.0,1650823692126268.0
-1.0,-7.0,-8.0,-1.0,0.0,0.0,0.0,1.0,1650823692128243.0
4.0,18.0,10.0,3.0,-1.0,2.0,5.0,3.0,1650823692128243.0
-1.0,14.0,5.0,1.0,4.0,0.0,-1.0,-1.0,1650823692140231.0
1.0,5.0,16.0,-1.0,-2.0,2.0,2.0,-1.0,1650823692140231.0
-5.0,-18.0,-36.0,-8.0,-2.0,-9.0,-5.0,-4.0,1650823692149186.0
2.0,20.0,9.0,-3.0,-8.0,0.0,-1.0,0.0,1650823692149186.0
-3.0,-6.0,-1.0,6.0,-1.0,-12.0,-1.0,-1.0,1650823692164167.0
1.0,4.0,-5.0,-5.0,3.0,2.0,1.0,2.0,1650823692164167.0
1.0,0.0,3.0,-4.0,0.0,1.0,-2.0,1.0,1650823692166142.0
-1.0,3.0,-6.0,-4.0,1.0,0.0,-1.0,0.0,1650823692166142.0
-2.0,-7.0,6.0,1.0,-5.0,-1.0,-1.0,-2.0,1650823692187086.0
3.0,-3.0,-2.0,8.0,11.0,5.0,0.0,2.0,1650823692187086.0
0.0,-1.0,15.0,0.0,-4.0,1.0,0.0,-1.0,1650823692188093.0
2.0,5.0,-6.0,-1.0,-2.0,9.0,-1.0,-1.0,1650823692188093.0
0.0,3.0,10.0,12.0,2.0,-8.0,-2.0,-1.0,1650823692209631.0
-1.0,-12.0,-15.0,-16.0,5.0,1.0,1.0,0.0,1650823692209631.0
0.0,0.0,6.0,9.0,0.0,0.0,-1.0,0.0,1650823692210636.0
0.0,6.0,-1.0,-12.0,-7.0,-2.0,-6.0,-1.0,1650823692210636.0
-2.0,-18.0,-11.0,-4.0,-3.0,-11.0,0.0,-2.0,1650823692224634.0
2.0,10.0,11.0,10.0,-4.0,5.0,1.0,-1.0,1650823692224634.0
0.0,0.0,10.0,4.0,4.0,2.0,3.0,1.0,1650823692225594.0
3.0,12.0,4.0,13.0,2.0,-1.0,1.0,1.0,1650823692225594.0
-3.0,-12.0,-17.0,-18.0,10.0,15.0,-4.0,-3.0,1650823692247642.0
-5.0,3.0,-16.0,-17.0,-31.0,-16.0,-4.0,-5.0,1650823692247642.0
1.0,-3.0,1.0,1.0,-3.0,-5.0,-1.0,0.0,1650823692248640.0
2.0,-6.0,-2.0,4.0,3.0,-2.0,0.0,1.0,1650823692248640.0
-2.0,-12.0,-5.0,0.0,3.0,7.0,2.0,1.0,1650823692260671.0
-2.0,4.0,20.0,8.0,5.0,-1.0,1.0,-3.0,1650823692260671.0
-3.0,5.0,-13.0,-6.0,-3.0,2.0,-4.0,-3.0,1650823692269584.0
-1.0,-4.0,2.0,-3.0,-10.0,-11.0,-3.0,-1.0,1650823692269584.0
0.0,4.0,5.0,4.0,2.0,5.0,3.0,0.0,1650823692284659.0
0.0,0.0,2.0,3.0,7.0,3.0,-2.0,1.0,1650823692284659.0
-1.0,-4.0,-6.0,-3.0,-9.0,-5.0,1.0,-1.0,1650823692285659.0
2.0,8.0,7.0,1.0,5.0,0.0,1.0,1.0,1650823692285659.0
0.0,5.0,-11.0,0.0,-3.0,2.0,-2.0,-2.0,1650823692307155.0
-2.0,-1.0,13.0,2.0,7.0,2.0,-1.0,-1.0,1650823692307155.0
-2.0,-3.0,-3.0,-1.0,-5.0,-10.0,0.0,-1.0,1650823692308132.0
1.0,0.0,-1.0,-2.0,1.0,0.0,-2.0,-1.0,1650823692308132.0
0.0,4.0,-2.0,-2.0,-3.0,2.0,3.0,-1.0,1650823692320716.0
4.0,6.0,4.0,8.0,9.0,4.0,2.0,1.0,1650823692320716.0
1.0,-1.0,0.0,-4.0,-8.0,1.0,0.0,0.0,1650823692329691.0
5.0,-3.0,7.0,5.0,11.0,1.0,3.0,4.0,1650823692329691.0
-4.0,27.0,16.0,-1.0,-12.0,-2.0,-3.0,0.0,1650823692344614.0
-1.0,-10.0,-9.0,0.0,8.0,-1.0,0.0,-1.0,1650823692344614.0
-1.0,-1.0,-2.0,-7.0,1.0,3.0,0.0,-1.0,1650823692345551.0
-1.0,-6.0,-8.0,-3.0,-2.0,-1.0,0.0,-2.0,1650823692345551.0
1.0,-1.0,3.0,-1.0,1.0,-1.0,0.0,1.0,1650823692367560.0
0.0,-4.0,-3.0,-5.0,-14.0,-9.0,-4.0,-2.0,1650823692367560.0
1.0,0.0,3.0,4.0,6.0,2.0,1.0,1.0,1650823692368489.0
0.0,5.0,5.0,6.0,7.0,14.0,2.0,1.0,1650823692368489.0
-3.0,-15.0,-14.0,0.0,10.0,-2.0,-2.0,-5.0,1650823692380526.0
-1.0,2.0,2.0,0.0,-11.0,-9.0,-2.0,1.0,1650823692380526.0
-2.0,-14.0,-19.0,-15.0,-8.0,-6.0,-7.0,-2.0,1650823692389433.0
-5.0,-1.0,-5.0,-7.0,-4.0,-5.0,2.0,-3.0,1650823692389433.0
0.0,1.0,2.0,0.0,6.0,7.0,1.0,0.0,1650823692404623.0
1.0,-4.0,0.0,3.0,-17.0,-6.0,-2.0,-1.0,1650823692404623.0
3.0,10.0,14.0,12.0,15.0,4.0,2.0,2.0,1650823692405624.0
-4.0,0.0,-1.0,3.0,-1.0,-5.0,-6.0,-3.0,1650823692405624.0
-5.0,-14.0,0.0,2.0,-6.0,-4.0,-1.0,0.0,1650823692426722.0
-2.0,-4.0,3.0,-5.0,9.0,4.0,1.0,1.0,1650823692426722.0
-1.0,8.0,9.0,-1.0,2.0,4.0,0.0,0.0,1650823692428676.0
1.0,5.0,-4.0,-2.0,-1.0,1.0,1.0,-1.0,1650823692428676.0
3.0,5.0,6.0,4.0,-2.0,-3.0,0.0,1.0,1650823692440559.0
-2.0,-3.0,-4.0,-1.0,-6.0,-5.0,-3.0,-2.0,1650823692440559.0
3.0,5.0,9.0,4.0,3.0,5.0,3.0,1.0,1650823692449548.0
-3.0,2.0,1.0,3.0,-2.0,-6.0,-2.0,-9.0,1650823692449548.0
0.0,0.0,-7.0,-9.0,-4.0,-4.0,-2.0,6.0,1650823692464648.0
-1.0,-3.0,-7.0,-1.0,3.0,5.0,1.0,1.0,1650823692464648.0
1.0,5.0,1.0,3.0,4.0,0.0,-2.0,0.0,1650823692465579.0
-1.0,-2.0,-4.0,-13.0,-7.0,-2.0,-2.0,-3.0,1650823692465579.0
3.0,-1.0,5.0,4.0,5.0,5.0,2.0,5.0,1650823692486707.0
-1.0,5.0,1.0,4.0,-9.0,-4.0,-3.0,-20.0,1650823692486707.0
-3.0,-8.0,-8.0,-5.0,-1.0,6.0,-5.0,-1.0,1650823692488663.0
1.0,-2.0,-4.0,5.0,2.0,-13.0,0.0,2.0,1650823692488663.0
0.0,7.0,9.0,-9.0,-7.0,-1.0,-1.0,-4.0,1650823692500676.0
-1.0,-14.0,-22.0,0.0,16.0,24.0,1.0,5.0,1650823692500676.0
-2.0,4.0,11.0,5.0,-18.0,-27.0,-1.0,-3.0,1650823692509603.0
-5.0,-9.0,-5.0,4.0,6.0,14.0,3.0,-1.0,1650823692509603.0
3.0,2.0,4.0,-3.0,3.0,3.0,0.0,2.0,1650823692524156.0
-1.0,0.0,4.0,4.0,-2.0,-5.0,-2.0,2.0,1650823692524156.0
-2.0,-7.0,-12.0,-9.0,-3.0,-2.0,-5.0,-2.0,1650823692526153.0
6.0,8.0,6.0,-1.0,-3.0,1.0,0.0,8.0,1650823692526153.0
-10.0,-5.0,2.0,7.0,-3.0,-4.0,0.0,-7.0,1650823692547045.0
1.0,2.0,3.0,-4.0,11.0,6.0,3.0,3.0,1650823692547045.0
-2.0,-9.0,-10.0,2.0,3.0,1.0,0.0,1.0,1650823692547976.0
1.0,-2.0,5.0,-5.0,-13.0,-11.0,-5.0,-1.0,1650823692547976.0
1.0,-2.0,-5.0,-3.0,-1.0,-1.0,-6.0,-10.0,1650823692569239.0
2.0,0.0,-3.0,-5.0,-6.0,-6.0,0.0,10.0,1650823692569239.0
-3.0,2.0,13.0,9.0,5.0,8.0,6.0,6.0,1650823692571257.0
0.0,1.0,-16.0,-3.0,5.0,-3.0,2.0,2.0,1650823692571257.0
2.0,1.0,5.0,9.0,1.0,-1.0,-2.0,0.0,1650823692584646.0
-4.0,-3.0,-11.0,-14.0,-3.0,-4.0,2.0,-4.0,1650823692584646.0
3.0,-4.0,-16.0,1.0,6.0,1.0,3.0,9.0,1650823692586273.0
-3.0,0.0,12.0,-3.0,0.0,2.0,-8.0,-20.0,1650823692586273.0
-3.0,-6.0,-9.0,-4.0,-13.0,-3.0,1.0,0.0,1650823692606892.0
1.0,6.0,11.0,3.0,-7.0,-10.0,-1.0,-1.0,1650823692606892.0
-1.0,-4.0,-4.0,1.0,-2.0,2.0,-1.0,-5.0,1650823692608886.0
-1.0,1.0,2.0,4.0,8.0,6.0,2.0,2.0,1650823692608886.0
2.0,-1.0,-7.0,-8.0,3.0,3.0,-2.0,-1.0,1650823692628900.0
3.0,5.0,10.0,11.0,8.0,4.0,0.0,-4.0,1650823692628900.0
-3.0,-11.0,-7.0,-11.0,-7.0,-6.0,2.0,-2.0,1650823692630827.0
-3.0,-3.0,2.0,-2.0,-7.0,-6.0,-4.0,4.0,1650823692630827.0
2.0,1.0,-1.0,3.0,2.0,0.0,-1.0,-2.0,1650823692644649.0
-1.0,1.0,-1.0,2.0,0.0,0.0,1.0,2.0,1650823692644649.0
0.0,3.0,1.0,2.0,9.0,1.0,0.0,-4.0,1650823692646674.0
5.0,2.0,-6.0,2.0,-10.0,-1.0,-3.0,9.0,1650823692646674.0
9.0,2.0,1.0,-1.0,-4.0,-2.0,10.0,11.0,1650823692666745.0
-5.0,-9.0,7.0,-26.0,-2.0,-1.0,-12.0,-11.0,1650823692666745.0
-5.0,1.0,9.0,0.0,-5.0,-7.0,2.0,-5.0,1650823692668698.0
-10.0,-4.0,-11.0,9.0,5.0,2.0,1.0,4.0,1650823692668698.0
1.0,2.0,-4.0,9.0,6.0,4.0,-6.0,16.0,1650823692689649.0
6.0,5.0,-4.0,-19.0,-3.0,8.0,1.0,-2.0,1650823692689649.0
0.0,-7.0,-29.0,-15.0,-9.0,-8.0,-3.0,-13.0,1650823692690632.0
1.0,2.0,4.0,-11.0,-1.0,-3.0,-4.0,-9.0,1650823692690632.0
10.0,-1.0,-11.0,5.0,-5.0,-11.0,3.0,17.0,1650823692703666.0
-15.0,0.0,8.0,14.0,-6.0,1.0,2.0,5.0,1650823692703666.0
1.0,3.0,11.0,10.0,11.0,8.0,5.0,2.0,1650823692710647.0
1.0,0.0,-2.0,1.0,6.0,7.0,7.0,-5.0,1650823692710647.0
-2.0,2.0,4.0,-3.0,-1.0,-2.0,-3.0,22.0,1650823692726633.0
4.0,-3.0,-6.0,0.0,-2.0,-6.0,-1.0,-12.0,1650823692726633.0
5.0,3.0,4.0,4.0,-2.0,7.0,-6.0,-5.0,1650823692728638.0
-1.0,-9.0,-2.0,-1.0,-3.0,-4.0,2.0,1.0,1650823692728638.0
-3.0,0.0,4.0,-6.0,1.0,4.0,1.0,-5.0,1650823692749621.0
3.0,7.0,7.0,16.0,-1.0,-5.0,4.0,3.0,1650823692749621.0
9.0,-2.0,-8.0,-7.0,11.0,3.0,4.0,11.0,1650823692750556.0
14.0,-1.0,1.0,2.0,-4.0,5.0,1.0,16.0,1650823692750556.0
-36.0,-15.0,-12.0,-17.0,2.0,-8.0,-13.0,-39.0,1650823692763586.0
13.0,12.0,10.0,24.0,7.0,5.0,-5.0,-3.0,1650823692763586.0
-26.0,-11.0,-18.0,-16.0,-15.0,-8.0,3.0,-5.0,1650823692770530.0
21.0,-2.0,26.0,-13.0,-2.0,2.0,-1.0,-1.0,1650823692770530.0
40.0,33.0,18.0,23.0,2.0,5.0,4.0,-9.0,1650823692786615.0
-62.0,-58.0,-20.0,-14.0,-7.0,-15.0,-5.0,4.0,1650823692786615.0
8.0,17.0,-4.0,-10.0,-6.0,-4.0,1.0,10.0,1650823692788610.0
-21.0,-27.0,-21.0,-13.0,-2.0,-4.0,-8.0,-7.0,1650823692788610.0
13.0,11.0,22.0,8.0,0.0,14.0,6.0,31.0,1650823692809614.0
41.0,35.0,24.0,16.0,9.0,3.0,8.0,10.0,1650823692809614.0
26.0,6.0,11.0,11.0,4.0,2.0,1.0,7.0,1650823692810552.0
-41.0,0.0,-6.0,6.0,3.0,2.0,-8.0,-13.0,1650823692810552.0
-30.0,-28.0,-18.0,-14.0,-8.0,-7.0,8.0,-17.0,1650823692823544.0
1.0,-13.0,-18.0,-16.0,-1.0,-4.0,-15.0,-3.0,1650823692823544.0
10.0,23.0,19.0,8.0,-2.0,5.0,1.0,-16.0,1650823692830639.0
9.0,-8.0,-1.0,4.0,-5.0,-6.0,-10.0,-17.0,1650823692830639.0
3.0,11.0,-3.0,2.0,3.0,-2.0,-6.0,-6.0,1650823692847117.0
-5.0,10.0,-6.0,-3.0,-3.0,-3.0,-8.0,-2.0,1650823692847117.0
-28.0,-46.0,-7.0,-1.0,5.0,0.0,4.0,9.0,1650823692848056.0
47.0,-2.0,6.0,9.0,-7.0,-3.0,13.0,12.0,1650823692848056.0
-8.0,64.0,-5.0,-8.0,3.0,0.0,-3.0,7.0,1650823692869720.0
-24.0,-91.0,5.0,28.0,-7.0,-8.0,-4.0,-25.0,1650823692869720.0
56.0,36.0,-17.0,-24.0,6.0,5.0,-12.0,13.0,1650823692870720.0
-54.0,-15.0,5.0,-29.0,-14.0,-16.0,7.0,-9.0,1650823692870720.0
7.0,-58.0,14.0,13.0,-4.0,0.0,5.0,5.0,1650823692883713.0
-12.0,19.0,7.0,-3.0,-2.0,6.0,7.0,12.0,1650823692883713.0
5.0,19.0,19.0,30.0,4.0,5.0,15.0,2.0,1650823692890672.0
28.0,30.0,-9.0,-2.0,7.0,9.0,0.0,0.0,1650823692890672.0
15.0,-28.0,-21.0,-15.0,-4.0,-6.0,8.0,57.0,1650823692906623.0
-48.0,8.0,18.0,14.0,9.0,-9.0,-25.0,-43.0,1650823692906623.0
64.0,19.0,9.0,9.0,-3.0,-1.0,0.0,-24.0,1650823692908620.0
-63.0,-49.0,-21.0,-17.0,6.0,-6.0,-19.0,-10.0,1650823692908620.0
-11.0,8.0,6.0,1.0,-17.0,3.0,-18.0,-33.0,1650823692929629.0
28.0,36.0,0.0,-5.0,6.0,10.0,28.0,31.0,1650823692929629.0
6.0,10.0,13.0,20.0,-5.0,-3.0,3.0,20.0,1650823692930560.0
-15.0,-29.0,-36.0,-28.0,2.0,-5.0,-8.0,-4.0,1650823692930560.0
-7.0,8.0,6.0,-5.0,3.0,-1.0,2.0,-3.0,1650823692942557.0
-7.0,-4.0,-16.0,-10.0,5.0,9.0,23.0,33.0,1650823692942557.0
-11.0,38.0,49.0,-5.0,-24.0,-12.0,-14.0,-30.0,1650823692951568.0
17.0,31.0,22.0,31.0,-4.0,-4.0,-8.0,0.0,1650823692951568.0
-14.0,26.0,14.0,39.0,11.0,3.0,17.0,0.0,1650823692966463.0
-36.0,-43.0,-46.0,-78.0,16.0,-2.0,-30.0,-40.0,1650823692966463.0
-13.0,-39.0,-11.0,-1.0,-3.0,0.0,4.0,-1.0,1650823692968459.0
23.0,41.0,-8.0,-16.0,-8.0,7.0,31.0,28.0,1650823692968459.0
-20.0,76.0,29.0,19.0,2.0,10.0,34.0,-9.0,1650823692989469.0
65.0,18.0,24.0,36.0,1.0,-7.0,-30.0,-21.0,1650823692989469.0
-99.0,-13.0,-4.0,17.0,11.0,5.0,25.0,67.0,1650823692990400.0
17.0,-12.0,-19.0,-6.0,5.0,-1.0,-15.0,-8.0,1650823692990400.0
-30.0,-63.0,-21.0,-17.0,0.0,-4.0,0.0,-23.0,1650823693002995.0
24.0,15.0,4.0,11.0,-1.0,20.0,36.0,39.0,1650823693002995.0
-10.0,14.0,-4.0,-16.0,-14.0,-15.0,-47.0,-30.0,1650823693011915.0
86.0,95.0,24.0,18.0,20.0,15.0,22.0,47.0,1650823693011915.0
-39.0,-84.0,-8.0,-7.0,8.0,0.0,-5.0,-20.0,1650823693027140.0
77.0,16.0,-17.0,29.0,8.0,8.0,28.0,39.0,1650823693027140.0
-78.0,-35.0,2.0,-9.0,-12.0,-11.0,-31.0,-68.0,1650823693028070.0
81.0,76.0,30.0,-9.0,-6.0,7.0,5.0,9.0,1650823693028070.0
24.0,52.0,10.0,6.0,-15.0,-11.0,6.0,-66.0,1650823693049042.0
38.0,42.0,-32.0,-42.0,0.0,-1.0,2.0,5.0,1650823693049042.0
-22.0,-38.0,-53.0,6.0,3.0,4.0,5.0,-7.0,1650823693051009.0
-45.0,-7.0,11.0,13.0,2.0,2.0,-25.0,-30.0,1650823693051009.0
4.0,-18.0,-22.0,-13.0,-1.0,11.0,67.0,82.0,1650823693063040.0
-17.0,-48.0,18.0,-25.0,-10.0,-10.0,-36.0,-43.0,1650823693063040.0
115.0,74.0,18.0,6.0,-2.0,4.0,-1.0,9.0,1650823693072404.0
-128.0,-92.0,-14.0,5.0,-11.0,-5.0,17.0,0.0,1650823693072404.0
62.0,-50.0,-23.0,-3.0,7.0,-14.0,-41.0,12.0,1650823693086399.0
12.0,23.0,-10.0,5.0,9.0,4.0,-13.0,-12.0,1650823693086399.0
45.0,-18.0,4.0,-16.0,-5.0,6.0,4.0,34.0,1650823693088371.0
-33.0,-23.0,-31.0,-8.0,7.0,-13.0,-21.0,-42.0,1650823693088371.0
47.0,18.0,-3.0,-9.0,-31.0,-7.0,-7.0,9.0,1650823693109650.0
2.0,44.0,10.0,48.0,20.0,8.0,16.0,28.0,1650823693109650.0
22.0,59.0,-44.0,-49.0,34.0,29.0,45.0,35.0,1650823693110651.0
-3.0,-68.0,12.0,20.0,-13.0,-14.0,-27.0,-24.0,1650823693110651.0
-13.0,93.0,4.0,16.0,15.0,11.0,-8.0,17.0,1650823693122684.0
-115.0,28.0,-7.0,-18.0,-28.0,-19.0,12.0,0.0,1650823693122684.0
-35.0,39.0,0.0,15.0,2.0,10.0,3.0,-13.0,1650823693131593.0
-18.0,-37.0,-1.0,-4.0,2.0,7.0,11.0,-23.0,1650823693131593.0
-52.0,-14.0,1.0,-2.0,28.0,12.0,-15.0,20.0,1650823693146713.0
56.0,51.0,33.0,56.0,3.0,21.0,10.0,11.0,1650823693146713.0
50.0,35.0,-8.0,-28.0,5.0,5.0,50.0,82.0,1650823693148660.0
46.0,123.0,28.0,10.0,-16.0,-33.0,-84.0,-76.0,1650823693148660.0
-39.0,-11.0,18.0,-3.0,0.0,-6.0,-43.0,-25.0,1650823693169616.0
65.0,91.0,10.0,15.0,-21.0,-21.0,15.0,62.0,1650823693169616.0
-74.0,-27.0,-12.0,-5.0,10.0,-2.0,25.0,25.0,1650823693170597.0
93.0,100.0,26.0,37.0,0.0,9.0,37.0,54.0,1650823693170597.0
24.0,-32.0,-36.0,-35.0,-1.0,-8.0,3.0,12.0,1650823693182620.0
-128.0,-48.0,28.0,-3.0,-2.0,-4.0,-17.0,-41.0,1650823693182620.0
124.0,-71.0,-15.0,-5.0,4.0,10.0,23.0,29.0,1650823693199513.0
-102.0,-73.0,37.0,-6.0,-3.0,-5.0,-21.0,-47.0,1650823693199513.0
-45.0,-80.0,-50.0,-17.0,-30.0,-22.0,16.0,36.0,1650823693206489.0
25.0,28.0,1.0,0.0,12.0,5.0,-13.0,-39.0,1650823693206489.0
-10.0,-25.0,-36.0,8.0,-5.0,2.0,-11.0,-7.0,1650823693208485.0
-9.0,-46.0,7.0,-2.0,5.0,19.0,77.0,90.0,1650823693208485.0
37.0,95.0,9.0,22.0,0.0,7.0,-2.0,-14.0,1650823693229545.0
26.0,-46.0,18.0,-20.0,-12.0,4.0,-17.0,-61.0,1650823693229545.0
-27.0,-47.0,-21.0,-4.0,-25.0,-45.0,22.0,-52.0,1650823693230546.0
73.0,37.0,-18.0,-8.0,-7.0,-11.0,-29.0,10.0,1650823693230546.0
58.0,101.0,55.0,53.0,4.0,-3.0,-85.0,-41.0,1650823693242935.0
-46.0,-94.0,-52.0,-17.0,4.0,-10.0,-14.0,-8.0,1650823693242935.0
45.0,97.0,1.0,-42.0,21.0,33.0,26.0,7.0,1650823693251910.0
24.0,-38.0,-17.0,16.0,-11.0,0.0,53.0,54.0,1650823693251910.0
112.0,25.0,-7.0,-25.0,3.0,26.0,54.0,48.0,1650823693266604.0
-14.0,27.0,25.0,16.0,-23.0,-1.0,27.0,45.0,1650823693266604.0
-92.0,-11.0,50.0,68.0,48.0,18.0,-31.0,-12.0,1650823693268599.0
23.0,9.0,-9.0,-25.0,-11.0,3.0,14.0,53.0,1650823693268599.0
78.0,127.0,49.0,7.0,-11.0,-14.0,-21.0,-3.0,1650823693289725.0
-66.0,-124.0,-105.0,-8.0,16.0,-4.0,-18.0,-33.0,1650823693289725.0
94.0,100.0,-1.0,-31.0,-48.0,-35.0,-64.0,-9.0,1650823693290680.0
53.0,127.0,10.0,13.0,10.0,6.0,35.0,37.0,1650823693290680.0
-53.0,-10.0,-5.0,-7.0,10.0,11.0,43.0,49.0,1650823693302714.0
29.0,118.0,28.0,6.0,5.0,17.0,31.0,23.0,1650823693302714.0
48.0,56.0,25.0,43.0,0.0,-4.0,-16.0,-3.0,1650823693311624.0
-64.0,-84.0,-18.0,-25.0,8.0,-10.0,-77.0,-107.0,1650823693311624.0
87.0,60.0,1.0,-58.0,4.0,-13.0,-56.0,-84.0,1650823693326611.0
-76.0,-1.0,-1.0,33.0,-5.0,10.0,40.0,79.0,1650823693326611.0
-59.0,-83.0,-15.0,-39.0,-18.0,-30.0,-10.0,-14.0,1650823693328578.0
43.0,76.0,-16.0,-4.0,15.0,32.0,35.0,34.0,1650823693328578.0
49.0,69.0,45.0,38.0,-47.0,0.0,63.0,28.0,1650823693356531.0
-8.0,-75.0,-54.0,-16.0,68.0,9.0,-24.0,37.0,1650823693356531.0
-12.0,-25.0,7.0,-3.0,-18.0,-11.0,4.0,0.0,1650823693358503.0
43.0,13.0,13.0,7.0,7.0,17.0,39.0,53.0,1650823693358503.0
17.0,-32.0,-7.0,2.0,7.0,-2.0,30.0,48.0,1650823693362516.0
-4.0,80.0,7.0,-16.0,-25.0,-29.0,-86.0,-104.0,1650823693362516.0
25.0,-4.0,-5.0,27.0,1.0,4.0,9.0,1.0,1650823693371491.0
91.0,84.0,18.0,-2.0,9.0,6.0,16.0,2.0,1650823693371491.0
-110.0,-35.0,-16.0,-17.0,8.0,16.0,-2.0,-68.0,1650823693386450.0
127.0,104.0,50.0,4.0,-42.0,-20.0,-61.0,-46.0,1650823693386450.0
-15.0,-15.0,-28.0,-7.0,43.0,-12.0,-16.0,-26.0,1650823693393410.0
-20.0,49.0,-30.0,-8.0,-17.0,0.0,-26.0,-27.0,1650823693393410.0
6.0,14.0,22.0,-9.0,-19.0,3.0,22.0,59.0,1650823693409362.0
17.0,18.0,-44.0,-36.0,33.0,19.0,62.0,14.0,1650823693409362.0
-3.0,-20.0,45.0,64.0,-36.0,-15.0,-61.0,-27.0,1650823693410360.0
127.0,58.0,4.0,-18.0,36.0,34.0,63.0,107.0,1650823693410360.0
-62.0,-102.0,-24.0,29.0,-10.0,0.0,-17.0,13.0,1650823693423345.0
-84.0,-65.0,-9.0,0.0,1.0,-15.0,-24.0,-39.0,1650823693423345.0
-53.0,31.0,22.0,-23.0,-6.0,14.0,19.0,40.0,1650823693438314.0
-118.0,-15.0,-13.0,13.0,-21.0,-33.0,-15.0,-48.0,1650823693438314.0
82.0,80.0,15.0,-16.0,32.0,13.0,-12.0,-2.0,1650823693446720.0
27.0,19.0,16.0,-13.0,-21.0,-1.0,20.0,-31.0,1650823693446720.0
94.0,-4.0,-3.0,24.0,12.0,15.0,4.0,15.0,1650823693448674.0
-1.0,13.0,-12.0,-29.0,-6.0,-22.0,-36.0,-49.0,1650823693448674.0
51.0,-96.0,-44.0,-8.0,-14.0,-31.0,-82.0,-128.0,1650823693478651.0
6.0,35.0,68.0,44.0,-20.0,-7.0,18.0,53.0,1650823693478651.0
11.0,7.0,-51.0,-54.0,27.0,17.0,47.0,33.0,1650823693479648.0
7.0,49.0,19.0,-15.0,-33.0,5.0,22.0,11.0,1650823693479648.0
27.0,30.0,-14.0,65.0,35.0,5.0,21.0,32.0,1650823693493611.0
-3.0,26.0,3.0,-25.0,5.0,10.0,8.0,36.0,1650823693493611.0
27.0,30.0,-14.0,65.0,35.0,5.0,21.0,32.0,1650823693493611.0
-3.0,26.0,3.0,-25.0,5.0,10.0,8.0,36.0,1650823693493611.0
-54.0,-50.0,34.0,1.0,-3.0,0.0,6.0,20.0,1650823693495606.0
-48.0,-49.0,-20.0,-10.0,2.0,-29.0,-84.0,-56.0,1650823693495606.0
48.0,56.0,25.0,43.0,0.0,-4.0,-16.0,-3.0,1650823693500593.0
-64.0,-84.0,-18.0,-25.0,8.0,-10.0,-77.0,-107.0,1650823693500593.0
87.0,60.0,1.0,-58.0,4.0,-13.0,-56.0,-84.0,1650823693501616.0
-76.0,-1.0,-1.0,33.0,-5.0,10.0,40.0,79.0,1650823693501616.0
27.0,-16.0,-11.0,11.0,-3.0,-10.0,-36.0,-42.0,1650823693506603.0
-98.0,-12.0,35.0,24.0,-21.0,13.0,60.0,93.0,1650823693506603.0
0.0,-18.0,-18.0,-26.0,24.0,1.0,-8.0,-2.0,1650823693508571.0
40.0,92.0,-17.0,-42.0,-13.0,-25.0,-51.0,-54.0,1650823693508571.0
-71.0,1.0,-7.0,-12.0,-4.0,9.0,51.0,36.0,1650823693529534.0
97.0,58.0,2.0,8.0,7.0,-10.0,-41.0,-24.0,1650823693529534.0
41.0,14.0,-3.0,1.0,-19.0,-4.0,7.0,9.0,1650823693530511.0
18.0,-83.0,-1.0,27.0,2.0,-1.0,16.0,10.0,1650823693530511.0
-16.0,17.0,11.0,-13.0,2.0,-3.0,-23.0,-16.0,1650823693551455.0
114.0,60.0,26.0,28.0,-2.0,3.0,20.0,31.0,1650823693551455.0
-102.0,-4.0,-5.0,-17.0,13.0,11.0,3.0,-23.0,1650823693553472.0
14.0,35.0,-5.0,-8.0,11.0,7.0,-13.0,8.0,1650823693553472.0
-6.0,60.0,-18.0,-13.0,-11.0,-7.0,19.0,14.0,1650823693566716.0
105.0,67.0,34.0,20.0,-5.0,16.0,-2.0,-56.0,1650823693566716.0
-55.0,-21.0,-14.0,1.0,2.0,-30.0,-54.0,-51.0,1650823693568732.0
20.0,-18.0,28.0,17.0,8.0,3.0,7.0,-26.0,1650823693568732.0
-94.0,23.0,2.0,-11.0,2.0,0.0,13.0,6.0,1650823693588679.0
-21.0,-65.0,-12.0,-25.0,0.0,11.0,52.0,11.0,1650823693588679.0
82.0,35.0,23.0,21.0,-13.0,2.0,-40.0,23.0,1650823693596638.0
-46.0,4.0,-7.0,9.0,-11.0,-41.0,-61.0,-57.0,1650823693596638.0
107.0,104.0,8.0,31.0,-27.0,-17.0,-11.0,-12.0,1650823693611636.0
-106.0,-88.0,-32.0,-51.0,39.0,-11.0,-21.0,-35.0,1650823693611636.0
17.0,76.0,4.0,14.0,4.0,21.0,49.0,14.0,1650823693613616.0
25.0,-1.0,-6.0,13.0,6.0,16.0,35.0,72.0,1650823693613616.0
100.0,83.0,20.0,-3.0,-5.0,9.0,-7.0,8.0,1650823693634567.0
-40.0,-25.0,-19.0,37.0,17.0,22.0,32.0,40.0,1650823693634567.0
47.0,-97.0,-41.0,-47.0,-17.0,-31.0,-14.0,-31.0,1650823693635541.0
-1.0,18.0,26.0,35.0,-1.0,8.0,2.0,-4.0,1650823693635541.0
71.0,-27.0,-31.0,-62.0,-1.0,-4.0,22.0,47.0,1650823693649547.0
61.0,22.0,1.0,-17.0,-24.0,-10.0,15.0,28.0,1650823693649547.0
2.0,72.0,54.0,44.0,-13.0,-9.0,-17.0,-43.0,1650823693650576.0
-82.0,-128.0,-58.0,-20.0,0.0,-12.0,-45.0,-6.0,1650823693650576.0
-52.0,14.0,5.0,-18.0,-1.0,-16.0,-71.0,-87.0,1650823693671724.0
127.0,71.0,9.0,4.0,-10.0,2.0,16.0,13.0,1650823693671724.0
53.0,83.0,8.0,1.0,-7.0,0.0,32.0,76.0,1650823693673653.0
11.0,33.0,19.0,16.0,-6.0,2.0,35.0,8.0,1650823693673653.0
35.0,-25.0,0.0,-4.0,12.0,10.0,-12.0,-4.0,1650823693685706.0
-54.0,62.0,-22.0,-23.0,17.0,0.0,1.0,10.0,1650823693685706.0
-55.0,-48.0,-24.0,-8.0,-34.0,-40.0,-108.0,-110.0,1650823693692690.0
38.0,72.0,15.0,-13.0,0.0,23.0,55.0,51.0,1650823693692690.0
-30.0,-25.0,-5.0,23.0,21.0,5.0,32.0,69.0,1650823693709764.0
59.0,59.0,0.0,-45.0,-28.0,-7.0,10.0,40.0,1650823693709764.0
-19.0,38.0,5.0,10.0,17.0,24.0,50.0,43.0,1650823693710769.0
-41.0,-89.0,-38.0,4.0,-6.0,-19.0,-25.0,-40.0,1650823693710769.0
-6.0,-25.0,29.0,-3.0,-26.0,-4.0,15.0,0.0,1650823693731813.0
87.0,98.0,13.0,58.0,21.0,11.0,-36.0,-20.0,1650823693731813.0
-105.0,-43.0,-24.0,-13.0,37.0,35.0,44.0,19.0,1650823693733771.0
60.0,44.0,-18.0,-51.0,1.0,-5.0,-47.0,-12.0,1650823693733771.0
2.0,-68.0,-20.0,0.0,-8.0,-4.0,54.0,63.0,1650823693745828.0
-38.0,3.0,-5.0,6.0,-7.0,-4.0,-36.0,14.0,1650823693745828.0
83.0,59.0,12.0,5.0,-21.0,-21.0,-39.0,-58.0,1650823693752909.0
120.0,127.0,31.0,15.0,-5.0,38.0,127.0,94.0,1650823693752909.0
-128.0,-128.0,-34.0,7.0,34.0,-41.0,-66.0,-96.0,1650823693769717.0
-44.0,-26.0,14.0,3.0,-28.0,-23.0,-22.0,-58.0,1650823693769717.0
95.0,106.0,35.0,-24.0,-26.0,0.0,9.0,-12.0,1650823693770664.0
54.0,-38.0,-34.0,-12.0,40.0,22.0,60.0,107.0,1650823693770664.0
-27.0,-8.0,-9.0,-33.0,-4.0,-9.0,-82.0,-88.0,1650823693791865.0
-11.0,-53.0,-2.0,31.0,-8.0,-8.0,9.0,0.0,1650823693791865.0
10.0,90.0,5.0,-29.0,-7.0,-2.0,-3.0,-2.0,1650823693793805.0
73.0,-1.0,13.0,26.0,-7.0,17.0,28.0,33.0,1650823693793805.0
-85.0,1.0,20.0,18.0,26.0,23.0,19.0,10.0,1650823693805826.0
90.0,56.0,-8.0,-20.0,8.0,-6.0,-27.0,9.0,1650823693805826.0
-17.0,-33.0,11.0,27.0,-11.0,-5.0,-3.0,23.0,1650823693812808.0
-42.0,11.0,17.0,17.0,-11.0,-5.0,-31.0,-46.0,1650823693812808.0
118.0,111.0,-8.0,-35.0,18.0,34.0,66.0,88.0,1650823693829742.0
-80.0,-94.0,-41.0,-38.0,-30.0,-39.0,-68.0,-79.0,1650823693829742.0
-26.0,-56.0,-19.0,9.0,-6.0,-9.0,21.0,4.0,1650823693830696.0
31.0,81.0,24.0,35.0,7.0,-4.0,11.0,-1.0,1650823693830696.0
-85.0,-14.0,-18.0,7.0,1.0,15.0,29.0,-1.0,1650823693851790.0
50.0,32.0,18.0,-33.0,3.0,14.0,80.0,91.0,1650823693851790.0
46.0,100.0,-14.0,-39.0,20.0,-9.0,-30.0,-18.0,1650823693853718.0
-36.0,-35.0,-2.0,20.0,-26.0,-16.0,-59.0,-66.0,1650823693853718.0
78.0,127.0,62.0,13.0,-25.0,-2.0,46.0,61.0,1650823693865749.0
-3.0,-23.0,-44.0,-36.0,18.0,12.0,19.0,9.0,1650823693865749.0
-42.0,-86.0,38.0,88.0,-20.0,4.0,21.0,15.0,1650823693872734.0
70.0,24.0,-12.0,-76.0,44.0,14.0,15.0,46.0,1650823693872734.0
23.0,-94.0,-44.0,-11.0,-9.0,-6.0,-40.0,-90.0,1650823693888773.0
-103.0,-96.0,-7.0,20.0,-23.0,-18.0,-22.0,-35.0,1650823693888773.0
49.0,6.0,2.0,24.0,37.0,10.0,-13.0,7.0,1650823693890768.0
-13.0,35.0,57.0,27.0,7.0,19.0,21.0,41.0,1650823693890768.0
-12.0,-34.0,-32.0,2.0,-9.0,-2.0,66.0,101.0,1650823693911687.0
-97.0,20.0,0.0,-10.0,3.0,-9.0,-49.0,-31.0,1650823693911687.0
104.0,-3.0,22.0,48.0,16.0,18.0,26.0,52.0,1650823693913613.0
-128.0,-4.0,-27.0,3.0,3.0,-7.0,-8.0,-13.0,1650823693913613.0
-34.0,39.0,0.0,-11.0,-16.0,-12.0,-52.0,-61.0,1650823693926579.0
127.0,122.0,36.0,54.0,6.0,14.0,22.0,24.0,1650823693926579.0
-108.0,10.0,-45.0,-23.0,58.0,36.0,27.0,-12.0,1650823693933371.0
44.0,-88.0,-52.0,-39.0,-33.0,-12.0,23.0,-23.0,1650823693933371.0
44.0,48.0,16.0,-37.0,1.0,-5.0,-26.0,-23.0,1650823693949434.0
22.0,0.0,-18.0,16.0,-15.0,-2.0,25.0,38.0,1650823693949434.0
-60.0,-62.0,5.0,8.0,-22.0,-19.0,-31.0,-41.0,1650823693950426.0
-128.0,-128.0,-21.0,-24.0,-12.0,-11.0,-8.0,20.0,1650823693950426.0
30.0,66.0,-6.0,8.0,8.0,12.0,12.0,12.0,1650823693971721.0
123.0,103.0,48.0,13.0,-6.0,3.0,14.0,86.0,1650823693971721.0
-83.0,-86.0,-38.0,-11.0,20.0,-23.0,-44.0,-40.0,1650823693973675.0
20.0,-33.0,27.0,13.0,-11.0,-6.0,-11.0,21.0,1650823693973675.0
27.0,16.0,12.0,17.0,0.0,-2.0,7.0,14.0,1650823693985646.0
68.0,14.0,3.0,-28.0,0.0,12.0,17.0,24.0,1650823693985646.0
127.0,127.0,35.0,30.0,13.0,43.0,127.0,127.0,1650823693994599.0
-122.0,-75.0,-21.0,6.0,-9.0,-43.0,-120.0,-128.0,1650823693994599.0
12.0,8.0,15.0,-2.0,5.0,6.0,-8.0,12.0,1650823694009689.0
59.0,-2.0,-64.0,4.0,25.0,25.0,55.0,50.0,1650823694009689.0
-65.0,55.0,-26.0,-116.0,-25.0,-1.0,10.0,-23.0,1650823694010673.0
16.0,-41.0,-34.0,7.0,-10.0,-12.0,-12.0,-15.0,1650823694010673.0
-27.0,3.0,5.0,6.0,-23.0,-2.0,1.0,-8.0,1650823694039627.0
2.0,-10.0,8.0,-4.0,-20.0,-12.0,-21.0,-36.0,1650823694039627.0
63.0,62.0,0.0,26.0,1.0,-7.0,-34.0,-50.0,1650823694040640.0
-8.0,101.0,21.0,16.0,13.0,11.0,18.0,29.0,1650823694040640.0
33.0,-4.0,-1.0,18.0,11.0,11.0,-6.0,9.0,1650823694045613.0
-43.0,-65.0,-9.0,-11.0,10.0,3.0,37.0,8.0,1650823694045613.0
0.0,-3.0,-7.0,-9.0,-18.0,-36.0,-109.0,-48.0,1650823694054615.0
36.0,30.0,23.0,12.0,6.0,-10.0,7.0,-36.0,1650823694054615.0
-17.0,0.0,11.0,12.0,-10.0,-10.0,23.0,4.0,1650823694069643.0
-79.0,38.0,35.0,70.0,-2.0,-5.0,-27.0,-1.0,1650823694069643.0
-33.0,-4.0,-17.0,-58.0,10.0,19.0,7.0,28.0,1650823694070578.0
54.0,-33.0,-37.0,41.0,7.0,4.0,-13.0,0.0,1650823694070578.0
70.0,55.0,57.0,79.0,-28.0,-22.0,3.0,20.0,1650823694091884.0
-78.0,88.0,-60.0,-95.0,65.0,47.0,43.0,24.0,1650823694091884.0
51.0,-47.0,16.0,36.0,-38.0,-11.0,3.0,-12.0,1650823694093884.0
71.0,103.0,6.0,-23.0,-26.0,-32.0,-34.0,-38.0,1650823694093884.0
34.0,55.0,-5.0,24.0,-5.0,9.0,6.0,19.0,1650823694105859.0
30.0,5.0,10.0,-4.0,-18.0,-37.0,-47.0,-8.0,1650823694105859.0
74.0,76.0,44.0,36.0,13.0,32.0,49.0,42.0,1650823694113910.0
-67.0,-58.0,-18.0,-27.0,14.0,19.0,8.0,-38.0,1650823694113910.0
35.0,-65.0,-18.0,-24.0,1.0,-22.0,-40.0,55.0,1650823694128939.0
97.0,64.0,15.0,2.0,2.0,7.0,27.0,51.0,1650823694128939.0
21.0,-119.0,-41.0,-22.0,-9.0,-65.0,-96.0,-90.0,1650823694130880.0
127.0,101.0,80.0,69.0,-50.0,6.0,62.0,67.0,1650823694130880.0
79.0,80.0,8.0,54.0,93.0,68.0,80.0,74.0,1650823694151848.0
-49.0,-128.0,-66.0,-91.0,-14.0,-27.0,-70.0,-93.0,1650823694151848.0
-32.0,8.0,-2.0,47.0,-32.0,-16.0,18.0,-4.0,1650823694153806.0
44.0,96.0,19.0,-6.0,4.0,6.0,-11.0,5.0,1650823694153806.0
-15.0,13.0,6.0,-18.0,-5.0,-2.0,-26.0,-20.0,1650823694165838.0
20.0,2.0,16.0,38.0,14.0,17.0,26.0,-12.0,1650823694165838.0
0.0,-3.0,32.0,-15.0,-20.0,9.0,39.0,67.0,1650823694174756.0
-74.0,-74.0,-34.0,-14.0,11.0,1.0,-7.0,22.0,1650823694174756.0
-60.0,-42.0,-23.0,-29.0,-15.0,-2.0,35.0,-66.0,1650823694189721.0
-12.0,-10.0,2.0,18.0,-6.0,-6.0,-5.0,-53.0,1650823694189721.0
-40.0,-25.0,-8.0,-23.0,-13.0,-16.0,-100.0,17.0,1650823694190708.0
4.0,91.0,16.0,14.0,16.0,5.0,-8.0,8.0,1650823694190708.0
-38.0,-74.0,-25.0,-27.0,1.0,24.0,69.0,48.0,1650823694211696.0
-15.0,-14.0,2.0,7.0,-22.0,-41.0,-91.0,-44.0,1650823694211696.0
64.0,92.0,28.0,24.0,8.0,5.0,79.0,-15.0,1650823694213646.0
49.0,114.0,25.0,-4.0,-7.0,-7.0,14.0,11.0,1650823694213646.0
-96.0,-105.0,-56.0,-13.0,52.0,4.0,-24.0,-56.0,1650823694225681.0
12.0,70.0,31.0,7.0,-12.0,11.0,19.0,12.0,1650823694225681.0
33.0,37.0,2.0,-6.0,-5.0,20.0,22.0,56.0,1650823694234590.0
18.0,17.0,17.0,-1.0,-4.0,15.0,36.0,29.0,1650823694234590.0
4.0,16.0,-3.0,-2.0,-5.0,-10.0,-18.0,-20.0,1650823694249064.0
-21.0,-46.0,-15.0,3.0,21.0,11.0,4.0,5.0,1650823694249064.0
15.0,-10.0,-7.0,-17.0,0.0,1.0,4.0,1.0,1650823694251058.0
-15.0,-32.0,-9.0,-3.0,-1.0,-8.0,20.0,-11.0,1650823694251058.0
-9.0,-18.0,2.0,-12.0,-34.0,-21.0,-46.0,-5.0,1650823694272124.0
-5.0,-6.0,3.0,6.0,2.0,7.0,-15.0,1.0,1650823694272124.0
16.0,2.0,-1.0,6.0,-1.0,-11.0,29.0,19.0,1650823694273053.0
-51.0,-37.0,1.0,3.0,17.0,25.0,11.0,-12.0,1650823694273053.0
-7.0,3.0,6.0,2.0,7.0,-17.0,-54.0,-48.0,1650823694285049.0
7.0,1.0,-1.0,3.0,-12.0,-10.0,-6.0,19.0,1650823694285049.0
-14.0,-2.0,2.0,-2.0,-2.0,6.0,17.0,8.0,1650823694293998.0
-6.0,-27.0,-7.0,-5.0,7.0,1.0,8.0,9.0,1650823694293998.0
23.0,22.0,13.0,-7.0,-6.0,3.0,28.0,61.0,1650823694310038.0
-9.0,9.0,19.0,20.0,12.0,11.0,-9.0,-78.0,1650823694310038.0
-11.0,-18.0,-18.0,-20.0,-21.0,-13.0,-1.0,8.0,1650823694311038.0
3.0,-20.0,-20.0,-36.0,-12.0,-7.0,-25.0,4.0,1650823694311038.0
4.0,-11.0,0.0,5.0,8.0,4.0,8.0,-14.0,1650823694332042.0
6.0,1.0,17.0,14.0,7.0,0.0,24.0,59.0,1650823694332042.0
-5.0,13.0,11.0,20.0,27.0,18.0,-8.0,-49.0,1650823694332986.0
33.0,15.0,3.0,3.0,3.0,-1.0,16.0,28.0,1650823694332986.0
-24.0,-22.0,-24.0,-18.0,-27.0,-17.0,-24.0,-46.0,1650823694345943.0
-7.0,-14.0,-2.0,-5.0,-13.0,-9.0,8.0,8.0,1650823694345943.0
-2.0,-3.0,-18.0,-2.0,1.0,-4.0,-7.0,-17.0,1650823694353924.0
-4.0,-2.0,-2.0,-4.0,0.0,1.0,-2.0,8.0,1650823694353924.0
18.0,19.0,16.0,22.0,14.0,10.0,-1.0,29.0,1650823694369749.0
-1.0,-4.0,-3.0,5.0,11.0,7.0,12.0,29.0,1650823694369749.0
2.0,-3.0,-24.0,-18.0,-4.0,-5.0,-10.0,-15.0,1650823694370749.0
-11.0,-13.0,14.0,10.0,-8.0,-4.0,-13.0,-22.0,1650823694370749.0
3.0,11.0,-7.0,-24.0,-11.0,-9.0,-8.0,4.0,1650823694391719.0
-9.0,-4.0,-2.0,-4.0,-6.0,1.0,13.0,-2.0,1650823694391719.0
-1.0,-5.0,1.0,7.0,5.0,9.0,20.0,27.0,1650823694393687.0
-1.0,20.0,-1.0,3.0,12.0,4.0,-4.0,12.0,1650823694393687.0
-4.0,-17.0,7.0,3.0,-3.0,-8.0,-8.0,-3.0,1650823694405654.0
-5.0,-2.0,-3.0,-12.0,-14.0,-10.0,0.0,-30.0,1650823694405654.0
2.0,-2.0,-7.0,0.0,6.0,7.0,1.0,1.0,1650823694414754.0
-4.0,7.0,2.0,2.0,7.0,0.0,-9.0,-3.0,1650823694414754.0
10.0,8.0,-3.0,-1.0,-12.0,-1.0,3.0,-8.0,1650823694429713.0
17.0,-7.0,1.0,3.0,-3.0,0.0,0.0,-8.0,1650823694429713.0
-16.0,4.0,12.0,12.0,6.0,3.0,2.0,36.0,1650823694430713.0
-4.0,-22.0,-18.0,-5.0,1.0,-2.0,-8.0,-12.0,1650823694430713.0
1.0,16.0,5.0,-10.0,-6.0,-4.0,0.0,8.0,1650823694451654.0
1.0,-1.0,13.0,-2.0,-5.0,-6.0,0.0,8.0,1650823694451654.0
0.0,2.0,4.0,10.0,-9.0,1.0,3.0,-19.0,1650823694453649.0
3.0,3.0,-13.0,3.0,18.0,13.0,-2.0,-22.0,1650823694453649.0
5.0,-21.0,8.0,0.0,1.0,-3.0,1.0,28.0,1650823694474714.0
-16.0,11.0,-10.0,-14.0,-9.0,-8.0,-9.0,-24.0,1650823694474714.0
13.0,-11.0,11.0,8.0,1.0,0.0,-3.0,-14.0,1650823694475712.0
-1.0,12.0,-1.0,3.0,-2.0,-1.0,-13.0,3.0,1650823694475712.0
21.0,24.0,1.0,2.0,1.0,10.0,8.0,2.0,1650823694489713.0
-15.0,-2.0,15.0,9.0,9.0,-2.0,-1.0,10.0,1650823694489713.0
-35.0,-18.0,-29.0,-10.0,2.0,-4.0,-9.0,5.0,1650823694491053.0
3.0,-12.0,1.0,5.0,0.0,3.0,1.0,-9.0,1650823694491053.0
5.0,22.0,12.0,9.0,1.0,-2.0,-3.0,-6.0,1650823694511876.0
3.0,-14.0,-9.0,-6.0,-9.0,-5.0,7.0,6.0,1650823694511876.0
5.0,-9.0,-10.0,0.0,1.0,-2.0,2.0,0.0,1650823694512859.0
-16.0,-12.0,2.0,-19.0,-21.0,-16.0,-10.0,-41.0,1650823694512859.0
-7.0,0.0,2.0,8.0,4.0,10.0,5.0,-15.0,1650823694534648.0
0.0,4.0,5.0,9.0,13.0,4.0,5.0,6.0,1650823694534648.0
7.0,10.0,12.0,10.0,-1.0,-1.0,1.0,7.0,1650823694535871.0
-5.0,-19.0,-15.0,-16.0,-3.0,-6.0,-3.0,-9.0,1650823694535871.0
-3.0,-4.0,9.0,-1.0,-5.0,-3.0,-6.0,-6.0,1650823694548903.0
4.0,11.0,3.0,10.0,4.0,3.0,2.0,-12.0,1650823694548903.0
7.0,-1.0,11.0,6.0,6.0,2.0,12.0,63.0,1650823694550830.0
14.0,-4.0,-8.0,-22.0,0.0,3.0,2.0,1.0,1650823694550830.0
-11.0,11.0,-23.0,-9.0,-2.0,-2.0,1.0,2.0,1650823694571773.0
-9.0,-12.0,5.0,-3.0,-4.0,-3.0,-11.0,-23.0,1650823694571773.0
0.0,15.0,10.0,-5.0,1.0,-1.0,7.0,-5.0,1650823694573768.0
0.0,0.0,0.0,5.0,-3.0,-9.0,2.0,15.0,1650823694573768.0
16.0,-4.0,2.0,-3.0,0.0,1.0,-3.0,-28.0,1650823694594712.0
-5.0,7.0,-4.0,-4.0,-1.0,1.0,8.0,13.0,1650823694594712.0
4.0,0.0,-13.0,-18.0,-3.0,2.0,-3.0,-14.0,1650823694595713.0
-5.0,-22.0,10.0,17.0,17.0,10.0,3.0,40.0,1650823694595713.0
-7.0,-4.0,-10.0,-3.0,-16.0,-11.0,-24.0,-56.0,1650823694607742.0
11.0,-2.0,4.0,-1.0,-8.0,-5.0,-5.0,3.0,1650823694607742.0
5.0,-5.0,3.0,-6.0,-6.0,-8.0,-4.0,-6.0,1650823694616654.0
1.0,15.0,24.0,16.0,6.0,5.0,6.0,15.0,1650823694616654.0
-6.0,-8.0,-20.0,-17.0,11.0,7.0,4.0,24.0,1650823694631682.0
-2.0,-3.0,-10.0,3.0,5.0,7.0,4.0,1.0,1650823694631682.0
-5.0,-14.0,-13.0,-5.0,-2.0,-1.0,-5.0,-18.0,1650823694633636.0
-1.0,-1.0,14.0,10.0,-6.0,-1.0,0.0,-4.0,1650823694633636.0
-4.0,-1.0,-26.0,-26.0,-11.0,-14.0,0.0,7.0,1650823694654552.0
-5.0,-6.0,-15.0,-8.0,-10.0,-10.0,0.0,-6.0,1650823694654552.0
6.0,8.0,-3.0,-5.0,6.0,7.0,0.0,0.0,1650823694655555.0
-5.0,-3.0,-5.0,6.0,-1.0,-4.0,1.0,-1.0,1650823694655555.0
4.0,-7.0,10.0,18.0,5.0,7.0,1.0,8.0,1650823694668542.0
8.0,22.0,2.0,1.0,-2.0,-2.0,4.0,24.0,1650823694668542.0
4.0,29.0,24.0,8.0,0.0,-1.0,1.0,0.0,1650823694675496.0
-3.0,-2.0,-4.0,0.0,1.0,4.0,4.0,2.0,1650823694675496.0
-9.0,1.0,12.0,10.0,2.0,0.0,-5.0,-21.0,1650823694691481.0
16.0,-5.0,-8.0,-13.0,0.0,1.0,-2.0,8.0,1650823694691481.0
-13.0,13.0,5.0,4.0,-6.0,-2.0,-5.0,-15.0,1650823694693449.0
-4.0,-21.0,4.0,-5.0,-6.0,-5.0,-3.0,3.0,1650823694693449.0
-2.0,6.0,-3.0,5.0,12.0,1.0,7.0,10.0,1650823694714461.0
-2.0,2.0,17.0,23.0,0.0,8.0,2.0,-1.0,1650823694714461.0
-4.0,-22.0,-26.0,-20.0,-11.0,-5.0,-5.0,-18.0,1650823694715419.0
1.0,10.0,0.0,-11.0,-4.0,-4.0,-2.0,-5.0,1650823694715419.0
4.0,0.0,11.0,0.0,-10.0,-6.0,0.0,8.0,1650823694728355.0
-7.0,-15.0,-1.0,9.0,8.0,2.0,-4.0,-8.0,1650823694728355.0
1.0,-9.0,4.0,18.0,14.0,6.0,2.0,5.0,1650823694735404.0
-1.0,5.0,-29.0,-26.0,-2.0,-2.0,1.0,-3.0,1650823694735404.0
0.0,-22.0,3.0,2.0,-7.0,-6.0,-1.0,6.0,1650823694751997.0
-1.0,27.0,15.0,0.0,6.0,2.0,2.0,-1.0,1650823694751997.0
2.0,3.0,6.0,8.0,1.0,3.0,1.0,-1.0,1650823694752928.0
1.0,4.0,-3.0,6.0,0.0,1.0,-2.0,0.0,1650823694752928.0
-3.0,-14.0,-6.0,-9.0,-7.0,-4.0,-1.0,-3.0,1650823694774492.0
2.0,17.0,18.0,1.0,-4.0,0.0,2.0,1.0,1650823694774492.0
0.0,-14.0,-11.0,-6.0,4.0,0.0,-1.0,1.0,1650823694775463.0
1.0,0.0,-5.0,5.0,0.0,-3.0,-2.0,-3.0,1650823694775463.0
0.0,10.0,21.0,4.0,-1.0,2.0,-1.0,5.0,1650823694788458.0
-6.0,-14.0,-17.0,-3.0,0.0,1.0,3.0,-3.0,1650823694788458.0
14.0,22.0,23.0,5.0,0.0,1.0,1.0,4.0,1650823694795410.0
-10.0,-2.0,-15.0,-4.0,-1.0,0.0,0.0,-4.0,1650823694795410.0
0.0,14.0,14.0,6.0,-1.0,-1.0,-2.0,4.0,1650823694811366.0
-6.0,-24.0,-39.0,-13.0,-2.0,-4.0,-2.0,-2.0,1650823694811366.0
2.0,5.0,11.0,-4.0,-7.0,-6.0,-3.0,-6.0,1650823694813362.0
1.0,-8.0,-1.0,1.0,6.0,11.0,2.0,1.0,1650823694813362.0
17.0,44.0,30.0,4.0,-10.0,-12.0,-1.0,3.0,1650823694834332.0
-15.0,-32.0,-27.0,-6.0,-9.0,-9.0,-3.0,-6.0,1650823694834332.0
-2.0,-4.0,-11.0,-2.0,2.0,2.0,1.0,0.0,1650823694836335.0
-4.0,-3.0,-10.0,-3.0,-7.0,-6.0,-3.0,-4.0,1650823694836335.0
2.0,7.0,1.0,0.0,9.0,10.0,2.0,1.0,1650823694849269.0
5.0,6.0,10.0,2.0,12.0,10.0,2.0,-1.0,1650823694849269.0
0.0,-6.0,6.0,7.0,0.0,-7.0,0.0,1.0,1650823694864284.0
0.0,-1.0,6.0,1.0,-2.0,-3.0,-2.0,-1.0,1650823694864284.0
-2.0,-7.0,-14.0,-2.0,0.0,4.0,3.0,1.0,1650823694871298.0
2.0,5.0,16.0,6.0,0.0,2.0,0.0,1.0,1650823694871298.0
-6.0,-24.0,20.0,12.0,-4.0,-1.0,-4.0,-3.0,1650823694873266.0
-2.0,12.0,-33.0,-29.0,-6.0,-5.0,-4.0,-5.0,1650823694873266.0
-4.0,-4.0,9.0,-7.0,-5.0,-3.0,0.0,-1.0,1650823694893356.0
-2.0,-1.0,-12.0,-2.0,-5.0,0.0,-1.0,-2.0,1650823694893356.0
2.0,-10.0,1.0,6.0,11.0,2.0,1.0,2.0,1650823694902316.0
2.0,1.0,8.0,8.0,-5.0,6.0,-1.0,-1.0,1650823694902316.0
-4.0,-7.0,-11.0,2.0,7.0,-7.0,2.0,2.0,1650823694908356.0
8.0,29.0,16.0,3.0,0.0,4.0,-1.0,3.0,1650823694908356.0
-9.0,-13.0,-19.0,-5.0,-2.0,-2.0,-1.0,-2.0,1650823694917292.0
-1.0,-2.0,-2.0,-2.0,-3.0,-5.0,-1.0,-3.0,1650823694917292.0
-2.0,-8.0,-18.0,-4.0,-4.0,-1.0,-1.0,-1.0,1650823694932265.0
0.0,9.0,13.0,0.0,3.0,5.0,-1.0,1.0,1650823694932265.0
-3.0,-19.0,-18.0,-6.0,-3.0,-1.0,-3.0,-3.0,1650823694933223.0
-3.0,1.0,0.0,1.0,4.0,-1.0,-2.0,0.0,1650823694933223.0
-2.0,-11.0,-4.0,5.0,-8.0,0.0,2.0,1.0,1650823694954166.0
-3.0,-11.0,-15.0,-8.0,-4.0,-6.0,-1.0,-4.0,1650823694954166.0
-1.0,13.0,-6.0,-8.0,-3.0,-4.0,-1.0,2.0,1650823694956181.0
3.0,7.0,27.0,17.0,8.0,-1.0,1.0,0.0,1650823694956181.0
-5.0,-9.0,-42.0,-25.0,-4.0,-1.0,-5.0,-2.0,1650823694968193.0
4.0,13.0,21.0,6.0,-2.0,1.0,-2.0,-2.0,1650823694968193.0
-4.0,-5.0,-4.0,-4.0,2.0,13.0,3.0,-3.0,1650823694976658.0
1.0,16.0,29.0,12.0,-6.0,-12.0,0.0,1.0,1650823694976658.0
2.0,4.0,-5.0,4.0,10.0,3.0,2.0,2.0,1650823694991683.0
-3.0,-10.0,-12.0,0.0,0.0,0.0,4.0,2.0,1650823694991683.0
6.0,47.0,16.0,-2.0,-1.0,1.0,0.0,0.0,1650823694993643.0
-2.0,-22.0,-8.0,2.0,-7.0,-5.0,-6.0,-1.0,1650823694993643.0
-4.0,-2.0,16.0,-2.0,-7.0,-2.0,-2.0,-2.0,1650823695013581.0
-2.0,-12.0,-3.0,-6.0,1.0,2.0,2.0,-1.0,1650823695013581.0
3.0,7.0,-2.0,10.0,6.0,-1.0,1.0,3.0,1650823695021551.0
0.0,-2.0,-4.0,-9.0,2.0,7.0,2.0,0.0,1650823695021551.0
-2.0,2.0,1.0,1.0,-2.0,-5.0,-5.0,-1.0,1650823695027550.0
-1.0,-17.0,-24.0,-7.0,-5.0,-8.0,-4.0,1.0,1650823695027550.0
-1.0,8.0,15.0,7.0,-4.0,-4.0,0.0,-2.0,1650823695036498.0
0.0,4.0,1.0,6.0,15.0,8.0,1.0,1.0,1650823695036498.0
0.0,-15.0,-7.0,-13.0,-3.0,4.0,0.0,0.0,1650823695051458.0
2.0,6.0,14.0,9.0,7.0,1.0,-1.0,-1.0,1650823695051458.0
1.0,-1.0,-12.0,-5.0,-4.0,-4.0,0.0,1.0,1650823695053474.0
-5.0,-35.0,0.0,-5.0,-3.0,-3.0,-1.0,-3.0,1650823695053474.0
-1.0,4.0,-7.0,3.0,-1.0,0.0,-1.0,0.0,1650823695074418.0
-4.0,-7.0,-3.0,-6.0,-6.0,-3.0,-3.0,-4.0,1650823695074418.0
0.0,-10.0,-8.0,-7.0,-8.0,-4.0,-1.0,-1.0,1650823695075395.0
7.0,43.0,26.0,16.0,1.0,-7.0,9.0,3.0,1650823695075395.0
-2.0,-18.0,6.0,10.0,13.0,5.0,2.0,0.0,1650823695088360.0
-7.0,-2.0,-2.0,-12.0,-13.0,-12.0,-6.0,-8.0,1650823695088360.0
-4.0,-10.0,-15.0,-26.0,2.0,4.0,-3.0,0.0,1650823695103409.0
-2.0,-2.0,-18.0,-6.0,-1.0,3.0,-2.0,1.0,1650823695103409.0
5.0,8.0,19.0,11.0,-5.0,-2.0,2.0,2.0,1650823695111390.0
1.0,1.0,1.0,5.0,4.0,3.0,0.0,0.0,1650823695111390.0
1.0,2.0,-2.0,-2.0,-3.0,-1.0,0.0,-3.0,1650823695113385.0
-2.0,-4.0,0.0,-5.0,-6.0,0.0,-4.0,0.0,1650823695113385.0
-1.0,4.0,-3.0,3.0,6.0,-1.0,-1.0,-1.0,1650823695141502.0
4.0,-8.0,-12.0,2.0,8.0,7.0,5.0,6.0,1650823695141502.0
-2.0,36.0,33.0,8.0,3.0,-1.0,-1.0,-2.0,1650823695143430.0
2.0,9.0,7.0,-1.0,-5.0,0.0,1.0,1.0,1650823695143430.0
-1.0,-5.0,1.0,1.0,-4.0,-2.0,-6.0,-1.0,1650823695147419.0
-4.0,1.0,-7.0,-7.0,11.0,6.0,1.0,-3.0,1650823695147419.0
2.0,-7.0,1.0,6.0,-3.0,-1.0,6.0,2.0,1650823695157420.0
1.0,6.0,-2.0,-7.0,-1.0,-4.0,-1.0,-1.0,1650823695157420.0
0.0,11.0,7.0,-3.0,-6.0,-5.0,-3.0,-3.0,1650823695171423.0
0.0,-7.0,1.0,-3.0,-5.0,-8.0,-4.0,2.0,1650823695171423.0
0.0,-10.0,-16.0,-4.0,-1.0,6.0,-1.0,-2.0,1650823695173350.0
-4.0,-10.0,-4.0,-4.0,-5.0,-7.0,0.0,-3.0,1650823695173350.0
-2.0,-3.0,-3.0,1.0,3.0,7.0,2.0,0.0,1650823695194120.0
2.0,-4.0,3.0,9.0,19.0,10.0,2.0,2.0,1650823695194120.0
4.0,-9.0,-16.0,3.0,-2.0,-4.0,2.0,3.0,1650823695196118.0
2.0,13.0,15.0,13.0,1.0,4.0,1.0,2.0,1650823695196118.0
-6.0,-24.0,-29.0,-26.0,-7.0,-10.0,-2.0,-5.0,1650823695208149.0
-3.0,-3.0,-1.0,-3.0,-6.0,0.0,-1.0,-1.0,1650823695208149.0
1.0,3.0,6.0,-2.0,-1.0,-2.0,-1.0,-1.0,1650823695217153.0
1.0,-8.0,-7.0,2.0,3.0,4.0,0.0,-1.0,1650823695217153.0
3.0,9.0,9.0,9.0,0.0,3.0,3.0,2.0,1650823695232255.0
-2.0,-1.0,-1.0,-7.0,-4.0,0.0,-4.0,-1.0,1650823695232255.0
-1.0,-8.0,-11.0,-4.0,-21.0,-11.0,-4.0,-1.0,1650823695233218.0
0.0,5.0,-1.0,10.0,10.0,8.0,7.0,3.0,1650823695233218.0
2.0,6.0,20.0,19.0,18.0,8.0,2.0,2.0,1650823695254278.0
0.0,-4.0,15.0,-8.0,-12.0,-10.0,-1.0,0.0,1650823695254278.0
-2.0,23.0,-13.0,-3.0,6.0,3.0,-1.0,-3.0,1650823695256309.0
-1.0,-1.0,5.0,-7.0,-3.0,-3.0,-3.0,-1.0,1650823695256309.0
1.0,8.0,-4.0,-1.0,-7.0,-4.0,1.0,1.0,1650823695268304.0
1.0,-5.0,-4.0,3.0,-4.0,-5.0,0.0,0.0,1650823695268304.0
-1.0,-1.0,4.0,-1.0,-2.0,-2.0,-4.0,0.0,1650823695277224.0
-3.0,-10.0,-10.0,-11.0,-6.0,-5.0,-5.0,-4.0,1650823695277224.0
0.0,-1.0,6.0,5.0,5.0,-3.0,-1.0,1.0,1650823695291154.0
-1.0,9.0,15.0,10.0,0.0,5.0,3.0,-1.0,1650823695291154.0
-6.0,-25.0,-1.0,8.0,15.0,11.0,5.0,-1.0,1650823695299164.0
0.0,2.0,-8.0,-3.0,4.0,2.0,-1.0,-2.0,1650823695299164.0
0.0,-5.0,-9.0,-14.0,-10.0,-6.0,-5.0,-2.0,1650823695314649.0
-5.0,3.0,-7.0,-5.0,-9.0,-6.0,-3.0,-3.0,1650823695314649.0
1.0,-8.0,-5.0,-4.0,-4.0,-2.0,1.0,-1.0,1650823695315650.0
4.0,-10.0,-4.0,-1.0,-4.0,0.0,-5.0,2.0,1650823695315650.0
-12.0,0.0,-1.0,-4.0,-6.0,-12.0,-4.0,-6.0,1650823695327673.0
-1.0,-1.0,-7.0,0.0,1.0,-3.0,1.0,-1.0,1650823695327673.0
-2.0,0.0,10.0,7.0,6.0,3.0,1.0,0.0,1650823695336592.0
4.0,8.0,2.0,3.0,-3.0,-2.0,2.0,4.0,1650823695336592.0
16.0,19.0,9.0,6.0,1.0,5.0,-1.0,3.0,1650823695351615.0
-19.0,-24.0,-14.0,-15.0,-6.0,-1.0,-5.0,0.0,1650823695351615.0
-24.0,2.0,14.0,7.0,7.0,1.0,-2.0,-26.0,1650823695353573.0
3.0,-4.0,-4.0,-10.0,-1.0,1.0,0.0,-1.0,1650823695353573.0
5.0,1.0,-9.0,-3.0,-2.0,2.0,0.0,0.0,1650823695374325.0
5.0,7.0,8.0,6.0,-6.0,5.0,0.0,-1.0,1650823695374325.0
9.0,-2.0,6.0,-5.0,-3.0,-10.0,-2.0,9.0,1650823695376153.0
-6.0,4.0,16.0,10.0,-3.0,-5.0,-1.0,-1.0,1650823695376153.0
0.0,1.0,1.0,-4.0,1.0,7.0,5.0,1.0,1650823695396808.0
3.0,6.0,-4.0,7.0,4.0,-6.0,-6.0,-11.0,1650823695396808.0
1.0,-10.0,-4.0,-4.0,2.0,7.0,-2.0,-2.0,1650823695398816.0
2.0,4.0,-7.0,-9.0,-1.0,-2.0,0.0,-1.0,1650823695398816.0
-6.0,-30.0,-5.0,-2.0,0.0,-5.0,-4.0,0.0,1650823695411805.0
2.0,-1.0,-7.0,-2.0,-7.0,-4.0,-1.0,3.0,1650823695411805.0
4.0,20.0,-5.0,-7.0,-6.0,-1.0,2.0,6.0,1650823695413736.0
-4.0,-10.0,0.0,11.0,13.0,3.0,0.0,-6.0,1650823695413736.0
-1.0,9.0,9.0,4.0,2.0,3.0,2.0,1.0,1650823695434651.0
-2.0,5.0,-4.0,0.0,4.0,2.0,2.0,0.0,1650823695434651.0
6.0,-5.0,-2.0,1.0,20.0,16.0,-3.0,2.0,1650823695435656.0
-4.0,-11.0,-3.0,-8.0,-31.0,-18.0,0.0,0.0,1650823695435656.0
2.0,9.0,8.0,7.0,3.0,0.0,2.0,-1.0,1650823695456661.0
4.0,4.0,6.0,8.0,0.0,-2.0,-1.0,-1.0,1650823695456661.0
2.0,-9.0,1.0,-7.0,-3.0,-7.0,-2.0,5.0,1650823695458617.0
-3.0,-2.0,-12.0,-3.0,3.0,5.0,-2.0,-1.0,1650823695458617.0
-1.0,-4.0,-10.0,2.0,2.0,5.0,-1.0,-3.0,1650823695471986.0
2.0,-3.0,16.0,1.0,2.0,-1.0,7.0,9.0,1650823695471986.0
-3.0,-12.0,-9.0,-4.0,-9.0,-6.0,-4.0,-12.0,1650823695472913.0
-3.0,-4.0,-3.0,-4.0,2.0,1.0,-4.0,-4.0,1650823695472913.0
-1.0,2.0,3.0,-5.0,-5.0,0.0,2.0,-1.0,1650823695493998.0
3.0,-6.0,-8.0,0.0,3.0,2.0,0.0,3.0,1650823695493998.0
1.0,7.0,4.0,7.0,-1.0,-3.0,2.0,8.0,1650823695495996.0
-4.0,-7.0,-5.0,3.0,4.0,2.0,0.0,-15.0,1650823695495996.0
0.0,-10.0,0.0,3.0,-2.0,-3.0,-2.0,-2.0,1650823695517000.0
-1.0,-1.0,-12.0,-12.0,8.0,7.0,-1.0,0.0,1650823695517000.0
0.0,1.0,-2.0,-2.0,-12.0,-2.0,3.0,-5.0,1650823695517937.0
1.0,3.0,2.0,5.0,4.0,-3.0,-1.0,3.0,1650823695517937.0
-2.0,-2.0,-11.0,-3.0,-5.0,-3.0,-3.0,1.0,1650823695530902.0
-2.0,8.0,11.0,0.0,-10.0,-6.0,0.0,-4.0,1650823695530902.0
-1.0,-12.0,-25.0,-7.0,-5.0,4.0,1.0,2.0,1650823695539938.0
1.0,7.0,6.0,-3.0,8.0,3.0,5.0,7.0,1650823695539938.0
-6.0,-3.0,-5.0,-1.0,-4.0,-8.0,-6.0,-14.0,1650823695553942.0
1.0,-5.0,-1.0,5.0,-4.0,-4.0,-2.0,-1.0,1650823695553942.0
1.0,6.0,5.0,1.0,-7.0,-8.0,-2.0,1.0,1650823695555907.0
-2.0,-10.0,0.0,-5.0,5.0,14.0,1.0,0.0,1650823695555907.0
-1.0,7.0,13.0,11.0,8.0,6.0,2.0,3.0,1650823695576879.0
-1.0,-5.0,-17.0,-8.0,5.0,-1.0,3.0,-2.0,1650823695576879.0
-1.0,-12.0,-9.0,3.0,1.0,0.0,0.0,-1.0,1650823695578845.0
-4.0,-12.0,-6.0,-6.0,0.0,-4.0,-6.0,0.0,1650823695578845.0
-4.0,-6.0,1.0,-6.0,-24.0,-9.0,3.0,12.0,1650823695590840.0
3.0,2.0,-3.0,1.0,5.0,1.0,-2.0,0.0,1650823695590840.0
2.0,-4.0,-1.0,5.0,9.0,-1.0,-2.0,2.0,1650823695597822.0
4.0,14.0,5.0,1.0,1.0,9.0,3.0,2.0,1650823695597822.0
-3.0,-3.0,-16.0,-5.0,1.0,-1.0,-1.0,-1.0,1650823695614751.0
-1.0,0.0,5.0,-3.0,-5.0,1.0,0.0,5.0,1650823695614751.0
-3.0,4.0,2.0,-4.0,-7.0,-3.0,-2.0,-3.0,1650823695615754.0
3.0,6.0,6.0,7.0,-5.0,-9.0,-1.0,5.0,1650823695615754.0
1.0,1.0,-10.0,-9.0,1.0,4.0,2.0,-1.0,1650823695636759.0
0.0,5.0,6.0,3.0,-4.0,-1.0,5.0,25.0,1650823695636759.0
-5.0,2.0,-1.0,-13.0,2.0,2.0,-11.0,-55.0,1650823695638713.0
-4.0,-5.0,-8.0,-3.0,-4.0,0.0,4.0,-5.0,1650823695638713.0
5.0,6.0,10.0,14.0,14.0,-2.0,1.0,-2.0,1650823695651651.0
0.0,-4.0,3.0,-2.0,0.0,-2.0,-7.0,-7.0,1650823695651651.0
-1.0,-1.0,4.0,6.0,-2.0,-3.0,2.0,19.0,1650823695657664.0
12.0,-3.0,-13.0,-3.0,-4.0,2.0,2.0,11.0,1650823695657664.0
-17.0,-1.0,3.0,-11.0,-9.0,-3.0,-1.0,2.0,1650823695674554.0
-6.0,-4.0,-28.0,-1.0,-13.0,-8.0,-4.0,-17.0,1650823695674554.0
2.0,3.0,8.0,-5.0,10.0,5.0,2.0,7.0,1650823695675524.0
-6.0,5.0,10.0,9.0,8.0,5.0,-5.0,-14.0,1650823695675524.0
6.0,-6.0,-13.0,-2.0,8.0,11.0,4.0,8.0,1650823695697487.0
5.0,1.0,8.0,2.0,-4.0,-12.0,0.0,9.0,1650823695697487.0
-4.0,1.0,9.0,11.0,-3.0,-3.0,3.0,9.0,1650823695698469.0
2.0,0.0,-9.0,-17.0,-2.0,-8.0,-1.0,5.0,1650823695698469.0
5.0,5.0,10.0,6.0,-1.0,1.0,5.0,19.0,1650823695711495.0
-5.0,-7.0,-3.0,-1.0,0.0,6.0,-3.0,-14.0,1650823695711495.0
4.0,-4.0,-5.0,-3.0,-3.0,1.0,-1.0,1.0,1650823695717479.0
