EMG_s0,EMG_s1,EMG_s2,EMG_s3,EMG_s4,EMG_s5,EMG_s6,EMG_s7,timestamp
9.0,38.0,32.0,10.0,17.0,22.0,6.0,1.0,1650846647700049.0
-12.0,4.0,-11.0,-13.0,-5.0,0.0,1.0,-24.0,1650846647700049.0
-6.0,-32.0,-26.0,0.0,-17.0,-26.0,-19.0,6.0,1650846647701038.0
-3.0,4.0,9.0,-2.0,5.0,7.0,4.0,-4.0,1650846647701038.0
-2.0,17.0,6.0,-8.0,2.0,13.0,8.0,-7.0,1650846647704031.0
-1.0,-31.0,-25.0,4.0,-10.0,-23.0,-17.0,25.0,1650846647704031.0
-16.0,-4.0,10.0,2.0,4.0,5.0,1.0,-13.0,1650846647707046.0
17.0,25.0,16.0,1.0,9.0,16.0,8.0,-4.0,1650846647707046.0
-9.0,-41.0,-28.0,-5.0,-11.0,-20.0,-11.0,-1.0,1650846647712017.0
3.0,17.0,2.0,3.0,-5.0,1.0,15.0,4.0,1650846647712017.0
-1.0,18.0,21.0,3.0,11.0,13.0,-1.0,-9.0,1650846647719035.0
8.0,3.0,-10.0,-7.0,-7.0,-6.0,-3.0,6.0,1650846647719035.0
-14.0,-31.0,-17.0,4.0,-9.0,-15.0,-4.0,-3.0,1650846647733978.0
12.0,16.0,19.0,-1.0,9.0,11.0,0.0,-3.0,1650846647733978.0
0.0,14.0,2.0,-5.0,5.0,12.0,19.0,18.0,1650846647741053.0
-15.0,-16.0,-13.0,3.0,-9.0,-16.0,-18.0,-18.0,1650846647741053.0
8.0,2.0,4.0,-3.0,-1.0,-2.0,7.0,26.0,1650846647752606.0
0.0,12.0,15.0,3.0,11.0,15.0,23.0,4.0,1650846647752606.0
-9.0,-6.0,-13.0,-2.0,-6.0,-6.0,-8.0,-4.0,1650846647772627.0
6.0,-12.0,-2.0,3.0,-4.0,-3.0,-7.0,4.0,1650846647772627.0
-8.0,13.0,8.0,-7.0,1.0,3.0,-4.0,-2.0,1650846647773632.0
-1.0,-10.0,1.0,6.0,1.0,0.0,4.0,2.0,1650846647773632.0
6.0,29.0,28.0,-4.0,15.0,26.0,28.0,1.0,1650846647824497.0
-2.0,-9.0,-23.0,-10.0,-7.0,-16.0,-10.0,-1.0,1650846647824497.0
-5.0,-25.0,-6.0,18.0,-7.0,-15.0,-8.0,4.0,1650846647825489.0
7.0,32.0,21.0,-7.0,7.0,16.0,1.0,-3.0,1650846647825489.0
4.0,23.0,-1.0,-1.0,2.0,-2.0,-6.0,-18.0,1650846647826483.0
1.0,-42.0,-19.0,5.0,-6.0,-12.0,-12.0,13.0,1650846647826483.0
2.0,10.0,10.0,-7.0,4.0,10.0,12.0,-8.0,1650846647827480.0
7.0,13.0,8.0,0.0,7.0,13.0,12.0,-1.0,1650846647827480.0
1.0,-26.0,-23.0,1.0,-13.0,-25.0,-24.0,3.0,1650846647831470.0
-6.0,8.0,19.0,0.0,0.0,7.0,6.0,6.0,1650846647831470.0
-4.0,17.0,14.0,-5.0,12.0,16.0,-3.0,-14.0,1650846647837455.0
-4.0,-18.0,-18.0,5.0,-3.0,-10.0,-4.0,1.0,1650846647837455.0
4.0,-19.0,-6.0,1.0,-7.0,-9.0,-2.0,30.0,1650846647847427.0
-11.0,15.0,14.0,-3.0,3.0,14.0,13.0,-10.0,1650846647847427.0
-1.0,-8.0,-3.0,2.0,1.0,-3.0,-5.0,3.0,1650846647860391.0
-6.0,-16.0,-9.0,-1.0,-13.0,-16.0,6.0,4.0,1650846647860391.0
-2.0,8.0,5.0,0.0,8.0,11.0,6.0,-2.0,1650846647869368.0
1.0,9.0,4.0,1.0,5.0,8.0,4.0,-2.0,1650846647869368.0
0.0,-10.0,-13.0,-1.0,-7.0,-12.0,-6.0,21.0,1650846647892308.0
-15.0,0.0,-1.0,-2.0,-1.0,-1.0,-8.0,-14.0,1650846647892308.0
0.0,0.0,4.0,-3.0,1.0,5.0,11.0,-2.0,1650846647893308.0
-3.0,-10.0,-12.0,-6.0,-6.0,-7.0,-10.0,-9.0,1650846647893308.0
2.0,4.0,-4.0,-2.0,0.0,-3.0,5.0,2.0,1650846647906272.0
5.0,13.0,14.0,1.0,3.0,4.0,-2.0,2.0,1650846647906272.0
-2.0,-9.0,-5.0,-1.0,-3.0,-4.0,-9.0,-9.0,1650846647914259.0
1.0,2.0,-1.0,-2.0,-3.0,-1.0,20.0,13.0,1650846647914259.0
1.0,7.0,0.0,3.0,5.0,2.0,-7.0,-8.0,1650846647929242.0
-2.0,-25.0,-3.0,8.0,-1.0,-1.0,-5.0,-11.0,1650846647929242.0
-6.0,16.0,0.0,2.0,1.0,-4.0,-5.0,13.0,1650846647931230.0
0.0,12.0,8.0,4.0,1.0,3.0,-1.0,-20.0,1650846647931230.0
2.0,-5.0,-1.0,-7.0,-2.0,2.0,7.0,-4.0,1650846647952166.0
4.0,6.0,-5.0,1.0,-2.0,-3.0,-3.0,6.0,1650846647952166.0
-11.0,-36.0,-2.0,4.0,1.0,1.0,-2.0,-10.0,1650846647953144.0
11.0,12.0,-3.0,-11.0,-3.0,-2.0,7.0,8.0,1650846647953144.0
2.0,12.0,-5.0,-3.0,-6.0,-4.0,-10.0,3.0,1650846647966109.0
-5.0,-13.0,-6.0,1.0,3.0,-2.0,7.0,0.0,1650846647966109.0
14.0,9.0,6.0,3.0,2.0,4.0,1.0,0.0,1650846647973094.0
-11.0,-4.0,0.0,-2.0,2.0,-2.0,-8.0,-6.0,1650846647973094.0
-2.0,-12.0,-2.0,0.0,-6.0,-2.0,6.0,5.0,1650846647989048.0
-1.0,5.0,1.0,-6.0,-5.0,0.0,-7.0,-2.0,1650846647989048.0
1.0,-1.0,-4.0,-6.0,-4.0,0.0,1.0,0.0,1650846647991042.0
2.0,-20.0,1.0,7.0,3.0,-3.0,-6.0,6.0,1650846647991042.0
2.0,17.0,4.0,-4.0,0.0,1.0,6.0,-7.0,1650846648011985.0
-1.0,0.0,-1.0,-1.0,4.0,3.0,4.0,11.0,1650846648011985.0
-3.0,3.0,-4.0,-1.0,-3.0,-5.0,-1.0,0.0,1650846648012987.0
-1.0,-11.0,-8.0,-2.0,-4.0,-1.0,-2.0,-5.0,1650846648012987.0
0.0,-1.0,2.0,0.0,2.0,1.0,-3.0,0.0,1650846648026006.0
-4.0,-6.0,-7.0,-5.0,-3.0,-3.0,20.0,6.0,1650846648026006.0
3.0,7.0,-2.0,-4.0,-5.0,-1.0,-11.0,-8.0,1650846648032950.0
7.0,17.0,1.0,1.0,2.0,1.0,-4.0,-1.0,1650846648032950.0
3.0,-7.0,-2.0,-1.0,0.0,-2.0,-4.0,6.0,1650846648048920.0
-12.0,-3.0,0.0,-1.0,-1.0,-3.0,1.0,-12.0,1650846648048920.0
-4.0,0.0,3.0,0.0,-3.0,-3.0,-6.0,-3.0,1650846648050883.0
-3.0,2.0,-1.0,0.0,3.0,3.0,-14.0,-10.0,1650846648050883.0
2.0,1.0,4.0,3.0,1.0,0.0,13.0,12.0,1650846648071827.0
-1.0,-1.0,-8.0,-7.0,-2.0,1.0,-4.0,-3.0,1650846648071827.0
0.0,5.0,8.0,-3.0,2.0,4.0,11.0,9.0,1650846648073841.0
0.0,-1.0,-8.0,1.0,-2.0,-3.0,-4.0,10.0,1650846648073841.0
-5.0,-11.0,-2.0,-3.0,-2.0,-3.0,-3.0,-9.0,1650846648094769.0
4.0,-2.0,2.0,-1.0,-1.0,-1.0,-11.0,-2.0,1650846648094769.0
-6.0,4.0,-4.0,-2.0,-1.0,1.0,2.0,-16.0,1650846648095763.0
-3.0,-9.0,-9.0,-1.0,3.0,4.0,18.0,14.0,1650846648095763.0
-1.0,2.0,7.0,2.0,0.0,4.0,-3.0,-5.0,1650846648109783.0
7.0,-7.0,-5.0,-2.0,-1.0,1.0,2.0,9.0,1650846648109783.0
-2.0,14.0,-4.0,-2.0,-2.0,-7.0,-18.0,-33.0,1650846648110793.0
-1.0,3.0,8.0,2.0,1.0,3.0,2.0,-1.0,1650846648110793.0
-4.0,-1.0,-2.0,-3.0,0.0,2.0,23.0,24.0,1650846648131827.0
4.0,-4.0,-1.0,-2.0,-2.0,-3.0,-13.0,-9.0,1650846648131827.0
1.0,4.0,4.0,4.0,-2.0,0.0,5.0,8.0,1650846648133814.0
5.0,-4.0,2.0,0.0,1.0,0.0,-1.0,-9.0,1650846648133814.0
1.0,4.0,-3.0,0.0,3.0,0.0,-3.0,4.0,1650846648145790.0
-3.0,-4.0,0.0,-1.0,0.0,-5.0,-1.0,4.0,1650846648145790.0
-4.0,-9.0,-2.0,-5.0,1.0,1.0,3.0,5.0,1650846648154739.0
0.0,1.0,2.0,2.0,-3.0,0.0,0.0,1.0,1650846648154739.0
-2.0,-6.0,-5.0,0.0,-4.0,-1.0,-7.0,-11.0,1650846648169698.0
2.0,-2.0,4.0,4.0,0.0,3.0,2.0,-2.0,1650846648169698.0
-5.0,-7.0,-5.0,-1.0,2.0,2.0,1.0,3.0,1650846648170700.0
4.0,14.0,3.0,2.0,-1.0,-5.0,-3.0,-2.0,1650846648170700.0
-4.0,-10.0,-4.0,-6.0,0.0,1.0,-4.0,-7.0,1650846648191679.0
0.0,18.0,10.0,13.0,3.0,1.0,0.0,14.0,1650846648191679.0
-2.0,-32.0,-12.0,-1.0,-1.0,-1.0,7.0,8.0,1650846648193655.0
-3.0,3.0,5.0,-3.0,-4.0,-6.0,-18.0,-15.0,1650846648193655.0
-4.0,7.0,-1.0,-4.0,-1.0,1.0,8.0,1.0,1650846648205613.0
3.0,0.0,-1.0,0.0,1.0,0.0,-5.0,-12.0,1650846648205613.0
-1.0,2.0,-2.0,1.0,0.0,-4.0,0.0,2.0,1650846648214578.0
-3.0,-4.0,4.0,1.0,1.0,1.0,9.0,17.0,1650846648214578.0
2.0,2.0,0.0,-2.0,-4.0,0.0,-11.0,-10.0,1650846648229539.0
1.0,0.0,-2.0,2.0,3.0,-1.0,1.0,-1.0,1650846648229539.0
-5.0,-3.0,-3.0,-2.0,-3.0,-2.0,0.0,-1.0,1650846648230543.0
1.0,0.0,0.0,-4.0,4.0,4.0,3.0,-6.0,1650846648230543.0
-1.0,1.0,3.0,3.0,-1.0,-3.0,-2.0,-4.0,1650846648251479.0
-5.0,-14.0,-5.0,-3.0,-3.0,-2.0,-2.0,-1.0,1650846648251479.0
7.0,32.0,9.0,1.0,1.0,3.0,0.0,4.0,1650846648253475.0
-1.0,6.0,0.0,3.0,2.0,-2.0,2.0,-1.0,1650846648253475.0
0.0,-6.0,-2.0,2.0,-1.0,-4.0,-1.0,-2.0,1650846648265442.0
-1.0,-7.0,2.0,2.0,3.0,3.0,1.0,-1.0,1650846648265442.0
-1.0,-2.0,-1.0,0.0,3.0,3.0,1.0,5.0,1650846648274422.0
3.0,5.0,1.0,-2.0,-5.0,-4.0,2.0,0.0,1650846648274422.0
-6.0,-11.0,-2.0,-3.0,0.0,2.0,-4.0,-19.0,1650846648289380.0
4.0,10.0,3.0,-3.0,0.0,1.0,4.0,10.0,1650846648289380.0
-3.0,-3.0,-1.0,1.0,-2.0,-2.0,-1.0,-1.0,1650846648291401.0
1.0,-1.0,1.0,2.0,0.0,1.0,-1.0,1.0,1650846648291401.0
5.0,20.0,5.0,0.0,-1.0,0.0,1.0,-1.0,1650846648311355.0
-6.0,-21.0,-7.0,-4.0,-2.0,-1.0,-1.0,-6.0,1650846648311355.0
0.0,-7.0,-3.0,-1.0,-3.0,-2.0,-1.0,1.0,1650846648313315.0
-1.0,-4.0,2.0,0.0,1.0,1.0,3.0,-1.0,1650846648313315.0
5.0,16.0,7.0,6.0,3.0,2.0,-1.0,1.0,1650846648325322.0
-5.0,-22.0,-8.0,-9.0,-3.0,-4.0,-2.0,0.0,1650846648325322.0
4.0,19.0,4.0,-2.0,1.0,0.0,0.0,5.0,1650846648334258.0
-3.0,0.0,7.0,0.0,3.0,4.0,3.0,-7.0,1650846648334258.0
4.0,14.0,-3.0,-3.0,-3.0,-7.0,1.0,16.0,1650846648349239.0
-8.0,6.0,4.0,10.0,3.0,-2.0,-3.0,-21.0,1650846648349239.0
-6.0,-21.0,-11.0,-7.0,-2.0,1.0,2.0,-3.0,1650846648351233.0
3.0,-1.0,15.0,12.0,2.0,0.0,-3.0,2.0,1650846648351233.0
-10.0,-13.0,-32.0,-27.0,-15.0,-10.0,-10.0,-11.0,1650846648372167.0
3.0,13.0,-7.0,-3.0,-2.0,-1.0,-1.0,1.0,1650846648372167.0
5.0,7.0,12.0,6.0,4.0,5.0,0.0,0.0,1650846648373155.0
0.0,-2.0,-7.0,-1.0,0.0,0.0,-1.0,-2.0,1650846648373155.0
-7.0,-31.0,-7.0,1.0,-2.0,-4.0,-4.0,-6.0,1650846648385152.0
6.0,11.0,4.0,-6.0,-2.0,1.0,-2.0,3.0,1650846648385152.0
-5.0,-12.0,-7.0,-1.0,-3.0,-3.0,-3.0,-4.0,1650846648394098.0
4.0,1.0,1.0,1.0,-5.0,-3.0,2.0,4.0,1650846648394098.0
4.0,14.0,17.0,7.0,5.0,4.0,1.0,-1.0,1650846648409771.0
2.0,3.0,-1.0,-4.0,1.0,3.0,-1.0,1.0,1650846648409771.0
-6.0,-15.0,-4.0,1.0,-1.0,-5.0,-1.0,-1.0,1650846648410774.0
0.0,13.0,0.0,-2.0,-1.0,1.0,-1.0,-2.0,1650846648410774.0
3.0,5.0,-1.0,1.0,2.0,4.0,4.0,2.0,1650846648431735.0
-1.0,-4.0,-5.0,7.0,0.0,-6.0,-1.0,-1.0,1650846648431735.0
0.0,3.0,3.0,-4.0,-3.0,3.0,0.0,-1.0,1650846648433729.0
-3.0,2.0,-2.0,-5.0,-3.0,2.0,-4.0,-1.0,1650846648433729.0
-3.0,-36.0,-2.0,1.0,2.0,-1.0,0.0,1.0,1650846648445706.0
4.0,47.0,8.0,-2.0,-3.0,-1.0,-1.0,2.0,1650846648445706.0
2.0,1.0,-2.0,-1.0,1.0,1.0,-1.0,-4.0,1650846648454654.0
-2.0,7.0,1.0,1.0,-2.0,-1.0,0.0,-1.0,1650846648454654.0
-4.0,-10.0,-4.0,-2.0,-3.0,-1.0,-3.0,-3.0,1650846648469641.0
-1.0,-11.0,1.0,-2.0,5.0,5.0,4.0,3.0,1650846648469641.0
5.0,25.0,5.0,-1.0,-3.0,0.0,0.0,-2.0,1650846648470617.0
-5.0,-40.0,-12.0,-2.0,-2.0,-6.0,0.0,0.0,1650846648470617.0
5.0,7.0,2.0,5.0,3.0,1.0,1.0,3.0,1650846648491593.0
2.0,5.0,6.0,-1.0,-4.0,0.0,-2.0,-2.0,1650846648491593.0
-4.0,-1.0,-3.0,4.0,0.0,-2.0,-2.0,0.0,1650846648493582.0
-2.0,-14.0,0.0,2.0,-1.0,-2.0,-1.0,1.0,1650846648493582.0
0.0,8.0,2.0,-2.0,0.0,3.0,-1.0,-3.0,1650846648505517.0
-1.0,-16.0,-6.0,-6.0,-3.0,0.0,1.0,2.0,1650846648505517.0
0.0,2.0,2.0,10.0,0.0,-4.0,-3.0,3.0,1650846648514494.0
2.0,16.0,0.0,-3.0,3.0,2.0,1.0,-1.0,1650846648514494.0
-2.0,-1.0,-2.0,0.0,-2.0,-1.0,0.0,-3.0,1650846648529453.0
0.0,0.0,-5.0,-5.0,-5.0,-5.0,-4.0,-1.0,1650846648529453.0
2.0,-2.0,6.0,3.0,1.0,2.0,1.0,-3.0,1650846648530472.0
-4.0,-6.0,-7.0,-1.0,0.0,0.0,1.0,-3.0,1650846648530472.0
-2.0,10.0,-2.0,-1.0,-2.0,-2.0,-3.0,0.0,1650846648551394.0
-2.0,-21.0,1.0,0.0,0.0,0.0,-1.0,0.0,1650846648551394.0
-2.0,-5.0,-3.0,-7.0,1.0,-1.0,0.0,-1.0,1650846648553389.0
1.0,35.0,-2.0,-2.0,-3.0,-3.0,-4.0,-4.0,1650846648553389.0
-2.0,-32.0,-5.0,0.0,-3.0,-3.0,1.0,3.0,1650846648565357.0
-2.0,9.0,4.0,1.0,3.0,3.0,3.0,-3.0,1650846648565357.0
-1.0,-3.0,-6.0,-15.0,-13.0,-4.0,-1.0,1.0,1650846648574334.0
1.0,-6.0,12.0,43.0,28.0,7.0,2.0,3.0,1650846648574334.0
5.0,23.0,3.0,-5.0,-3.0,0.0,0.0,-2.0,1650846648589293.0
-4.0,-10.0,-3.0,1.0,-6.0,-2.0,-1.0,-2.0,1650846648589293.0
2.0,13.0,3.0,5.0,5.0,-1.0,0.0,0.0,1650846648591288.0
-2.0,-37.0,-9.0,-14.0,-9.0,-1.0,3.0,-1.0,1650846648591288.0
-3.0,6.0,-2.0,0.0,2.0,3.0,-3.0,-2.0,1650846648612243.0
-1.0,-9.0,-7.0,2.0,-2.0,-7.0,-10.0,0.0,1650846648612243.0
2.0,10.0,11.0,4.0,12.0,10.0,7.0,2.0,1650846648618243.0
-1.0,4.0,-5.0,-16.0,-8.0,-4.0,-1.0,-2.0,1650846648618243.0
-6.0,-21.0,-13.0,7.0,2.0,-14.0,-5.0,5.0,1650846648633245.0
1.0,7.0,3.0,-1.0,-7.0,-2.0,3.0,0.0,1650846648633245.0
0.0,15.0,12.0,-6.0,5.0,16.0,8.0,-6.0,1650846648642159.0
0.0,6.0,-9.0,1.0,-2.0,-5.0,-5.0,1.0,1650846648642159.0
-1.0,-9.0,-7.0,0.0,-7.0,-9.0,-5.0,0.0,1650846648649158.0
2.0,19.0,16.0,-2.0,6.0,15.0,7.0,-2.0,1650846648649158.0
0.0,0.0,-9.0,-1.0,-6.0,-7.0,-5.0,0.0,1650846648651152.0
-6.0,-36.0,-13.0,-3.0,-10.0,-12.0,-7.0,1.0,1650846648651152.0
5.0,56.0,23.0,-2.0,6.0,13.0,7.0,-1.0,1650846648672072.0
3.0,11.0,-5.0,-5.0,1.0,3.0,4.0,0.0,1650846648672072.0
-7.0,-56.0,-19.0,9.0,-6.0,-12.0,-4.0,5.0,1650846648673069.0
-1.0,11.0,4.0,-4.0,-3.0,1.0,-2.0,-3.0,1650846648673069.0
1.0,2.0,10.0,4.0,17.0,17.0,9.0,2.0,1650846648694081.0
-8.0,-13.0,-6.0,6.0,-7.0,-16.0,-18.0,-11.0,1650846648694081.0
7.0,23.0,-4.0,-3.0,-4.0,-5.0,7.0,11.0,1650846648696031.0
5.0,19.0,9.0,-14.0,-2.0,9.0,2.0,-3.0,1650846648696031.0
-5.0,-10.0,-3.0,4.0,1.0,1.0,-4.0,-9.0,1650846648709786.0
0.0,-5.0,-7.0,-1.0,-2.0,-7.0,7.0,6.0,1650846648709786.0
0.0,-5.0,5.0,0.0,1.0,6.0,-5.0,-3.0,1650846648710799.0
0.0,13.0,4.0,-2.0,2.0,2.0,4.0,1.0,1650846648710799.0
2.0,-6.0,-8.0,-3.0,-7.0,-8.0,-2.0,3.0,1650846648732026.0
-2.0,-5.0,3.0,2.0,0.0,-1.0,-4.0,-1.0,1650846648732026.0
-3.0,-7.0,1.0,0.0,0.0,3.0,1.0,-5.0,1650846648732996.0
4.0,24.0,0.0,-1.0,-1.0,-2.0,-4.0,0.0,1650846648732996.0
-1.0,0.0,-4.0,-7.0,-7.0,-7.0,-4.0,-2.0,1650846648753939.0
2.0,-7.0,3.0,4.0,7.0,9.0,7.0,1.0,1650846648753939.0
-5.0,-4.0,-5.0,-3.0,0.0,-5.0,-4.0,-6.0,1650846648755935.0
-6.0,-21.0,-9.0,-7.0,-9.0,-11.0,-9.0,1.0,1650846648755935.0
-2.0,-13.0,2.0,-3.0,-5.0,0.0,-21.0,-9.0,1650846648768927.0
5.0,36.0,3.0,-3.0,5.0,5.0,18.0,3.0,1650846648768927.0
-2.0,-11.0,-7.0,1.0,3.0,-1.0,16.0,2.0,1650846648775942.0
-2.0,-6.0,-1.0,2.0,-3.0,-1.0,-6.0,-1.0,1650846648775942.0
-1.0,-6.0,-1.0,1.0,1.0,0.0,1.0,1.0,1650846648790913.0
-1.0,-1.0,-2.0,-2.0,-3.0,-2.0,-14.0,-2.0,1650846648790913.0
-1.0,-16.0,-4.0,-3.0,-3.0,-3.0,-8.0,-2.0,1650846648799845.0
-1.0,2.0,5.0,-1.0,5.0,7.0,7.0,-1.0,1650846648799845.0
0.0,1.0,2.0,1.0,1.0,2.0,6.0,2.0,1650846648813928.0
-3.0,8.0,-7.0,-2.0,-5.0,-6.0,-6.0,0.0,1650846648813928.0
-1.0,7.0,2.0,-6.0,-3.0,-3.0,0.0,-1.0,1650846648815896.0
1.0,0.0,6.0,12.0,9.0,7.0,4.0,0.0,1650846648815896.0
3.0,-2.0,-2.0,1.0,-2.0,-1.0,1.0,0.0,1650846648836839.0
-3.0,-5.0,-1.0,2.0,1.0,-1.0,1.0,1.0,1650846648836839.0
0.0,2.0,2.0,-6.0,-6.0,-2.0,-2.0,1.0,1650846648838833.0
0.0,-3.0,-1.0,-3.0,4.0,-3.0,0.0,-2.0,1650846648838833.0
2.0,21.0,6.0,8.0,1.0,2.0,5.0,3.0,1650846648850830.0
0.0,-11.0,-3.0,-10.0,-4.0,-3.0,-1.0,-1.0,1650846648850830.0
0.0,5.0,-1.0,-4.0,-1.0,0.0,-5.0,-1.0,1650846648859779.0
-1.0,-16.0,-9.0,-2.0,-3.0,-2.0,0.0,0.0,1650846648859779.0
1.0,-1.0,-4.0,-3.0,-2.0,0.0,5.0,2.0,1650846648874749.0
-2.0,-11.0,-2.0,-7.0,-3.0,-1.0,1.0,0.0,1650846648874749.0
0.0,-9.0,-2.0,0.0,-1.0,-1.0,-7.0,-5.0,1650846648875739.0
3.0,20.0,4.0,-3.0,-4.0,-2.0,1.0,0.0,1650846648875739.0
-3.0,-10.0,-4.0,-10.0,-2.0,-1.0,2.0,0.0,1650846648896800.0
5.0,7.0,3.0,15.0,-2.0,2.0,0.0,9.0,1650846648896800.0
-11.0,-25.0,-8.0,-6.0,4.0,0.0,4.0,-1.0,1650846648898795.0
2.0,28.0,2.0,-4.0,-4.0,0.0,-2.0,-1.0,1650846648898795.0
0.0,-3.0,1.0,-2.0,0.0,-2.0,-1.0,-3.0,1650846648910829.0
2.0,-5.0,-2.0,-5.0,-4.0,-1.0,-2.0,0.0,1650846648910829.0
3.0,4.0,1.0,5.0,0.0,1.0,0.0,1.0,1650846648919739.0
-4.0,-15.0,-3.0,-2.0,2.0,2.0,0.0,-3.0,1650846648919739.0
1.0,13.0,-1.0,-2.0,-5.0,-3.0,-2.0,1.0,1650846648934698.0
-3.0,-4.0,2.0,7.0,12.0,0.0,-2.0,-4.0,1650846648934698.0
-1.0,-2.0,0.0,0.0,-3.0,-1.0,-4.0,-1.0,1650846648935697.0
-4.0,-11.0,-2.0,-2.0,-6.0,-4.0,0.0,1.0,1650846648935697.0
-2.0,-11.0,0.0,0.0,4.0,0.0,1.0,3.0,1650846648956655.0
2.0,5.0,1.0,-1.0,2.0,-1.0,2.0,-1.0,1650846648956655.0
1.0,5.0,-2.0,5.0,-1.0,-2.0,-4.0,-1.0,1650846648958635.0
-1.0,-4.0,2.0,-2.0,-3.0,-1.0,1.0,0.0,1650846648958635.0
0.0,5.0,2.0,-5.0,-4.0,0.0,2.0,1.0,1650846648970630.0
-4.0,-20.0,-7.0,-7.0,1.0,1.0,0.0,-2.0,1650846648970630.0
-3.0,7.0,-1.0,-1.0,-5.0,-4.0,-2.0,-1.0,1650846648979578.0
2.0,-3.0,-2.0,-7.0,-3.0,0.0,-1.0,3.0,1650846648979578.0
-1.0,2.0,6.0,14.0,8.0,2.0,2.0,0.0,1650846648994539.0
-2.0,-3.0,-2.0,-1.0,3.0,2.0,-1.0,-4.0,1650846648994539.0
1.0,-2.0,-4.0,-11.0,-4.0,-3.0,-3.0,-2.0,1650846648995536.0
1.0,2.0,-1.0,-1.0,1.0,1.0,1.0,-3.0,1650846648995536.0
1.0,1.0,3.0,1.0,-2.0,-1.0,0.0,0.0,1650846649016479.0
-1.0,2.0,-3.0,1.0,-1.0,-2.0,-4.0,0.0,1650846649016479.0
-3.0,-8.0,-6.0,-1.0,-1.0,-1.0,-1.0,1.0,1650846649018475.0
-1.0,4.0,3.0,6.0,1.0,-3.0,1.0,-1.0,1650846649018475.0
-3.0,-14.0,-5.0,-4.0,1.0,3.0,-1.0,0.0,1650846649030510.0
3.0,10.0,-2.0,-1.0,-4.0,-4.0,-1.0,0.0,1650846649030510.0
2.0,8.0,7.0,4.0,5.0,1.0,1.0,1.0,1650846649039435.0
0.0,-3.0,-1.0,0.0,4.0,3.0,-6.0,-1.0,1650846649039435.0
-4.0,-12.0,-7.0,-5.0,-5.0,-3.0,1.0,-3.0,1650846649054379.0
0.0,3.0,4.0,-2.0,-2.0,-1.0,0.0,-4.0,1650846649054379.0
-1.0,3.0,-1.0,2.0,-4.0,-1.0,-5.0,-2.0,1650846649055376.0
1.0,-7.0,-5.0,-3.0,-5.0,-1.0,0.0,1.0,1650846649055376.0
0.0,10.0,3.0,8.0,5.0,0.0,-4.0,-5.0,1650846649077343.0
0.0,-1.0,0.0,-4.0,-5.0,0.0,-2.0,1.0,1650846649077343.0
0.0,3.0,0.0,-4.0,-1.0,-2.0,1.0,1.0,1650846649078319.0
-2.0,-3.0,-2.0,6.0,3.0,-2.0,0.0,1.0,1650846649078319.0
2.0,4.0,-1.0,-12.0,-5.0,-3.0,2.0,0.0,1650846649099258.0
-1.0,0.0,2.0,7.0,-1.0,-2.0,-2.0,0.0,1650846649099258.0
0.0,-2.0,1.0,2.0,0.0,-1.0,-1.0,0.0,1650846649101253.0
2.0,3.0,1.0,-4.0,-2.0,1.0,0.0,0.0,1650846649101253.0
-1.0,3.0,-3.0,-7.0,-3.0,1.0,0.0,-1.0,1650846649114246.0
-3.0,-2.0,0.0,8.0,-1.0,0.0,0.0,-1.0,1650846649114246.0
1.0,-2.0,0.0,1.0,4.0,2.0,0.0,1.0,1650846649116213.0
-1.0,15.0,3.0,3.0,0.0,-3.0,0.0,-2.0,1650846649116213.0
1.0,-23.0,-6.0,4.0,1.0,0.0,-2.0,0.0,1650846649137186.0
-2.0,1.0,-2.0,-7.0,-2.0,-2.0,1.0,3.0,1650846649137186.0
-1.0,2.0,2.0,2.0,-1.0,1.0,2.0,1.0,1650846649138165.0
1.0,3.0,-2.0,-3.0,2.0,1.0,0.0,1.0,1650846649138165.0
-2.0,-6.0,0.0,1.0,0.0,0.0,-3.0,-2.0,1650846649159108.0
1.0,7.0,2.0,0.0,-4.0,0.0,0.0,3.0,1650846649159108.0
0.0,-9.0,-5.0,-5.0,0.0,0.0,-1.0,0.0,1650846649161093.0
-1.0,-6.0,-2.0,-3.0,-4.0,-2.0,-1.0,-1.0,1650846649161093.0
0.0,4.0,0.0,2.0,0.0,0.0,-2.0,2.0,1650846649174059.0
0.0,2.0,1.0,-3.0,0.0,1.0,-2.0,0.0,1650846649174059.0
0.0,3.0,2.0,-2.0,-1.0,-1.0,0.0,0.0,1650846649176054.0
-2.0,0.0,0.0,-4.0,-2.0,-3.0,-2.0,-2.0,1650846649176054.0
0.0,5.0,1.0,3.0,1.0,-1.0,-1.0,0.0,1650846649196997.0
-1.0,-3.0,-4.0,-9.0,-2.0,-2.0,-2.0,-1.0,1650846649196997.0
-1.0,0.0,-1.0,6.0,-2.0,-1.0,0.0,-1.0,1650846649197994.0
-3.0,-7.0,-8.0,-9.0,-2.0,2.0,1.0,-1.0,1650846649197994.0
0.0,4.0,3.0,11.0,3.0,1.0,0.0,1.0,1650846649218938.0
1.0,4.0,-4.0,-6.0,-8.0,-4.0,0.0,-1.0,1650846649218938.0
-3.0,-7.0,0.0,3.0,2.0,0.0,-2.0,-4.0,1650846649220933.0
0.0,-1.0,1.0,-1.0,0.0,-1.0,1.0,1.0,1650846649220933.0
-1.0,-2.0,-5.0,2.0,-2.0,-4.0,-2.0,0.0,1650846649233898.0
0.0,-3.0,1.0,-6.0,-2.0,1.0,-1.0,-1.0,1650846649233898.0
0.0,4.0,-2.0,0.0,-3.0,-3.0,-2.0,-1.0,1650846649235893.0
0.0,-4.0,-1.0,4.0,1.0,-1.0,-2.0,-1.0,1650846649235893.0
4.0,9.0,2.0,-2.0,1.0,0.0,0.0,-1.0,1650846649256652.0
-3.0,-8.0,-1.0,1.0,2.0,-1.0,-1.0,-2.0,1650846649256652.0
-1.0,1.0,1.0,-2.0,-1.0,0.0,0.0,-1.0,1650846649258647.0
-3.0,-2.0,-1.0,-1.0,0.0,1.0,-2.0,0.0,1650846649258647.0
-2.0,3.0,-2.0,-2.0,-5.0,-1.0,0.0,1.0,1650846649279592.0
-1.0,-11.0,-2.0,-1.0,2.0,0.0,0.0,1.0,1650846649279592.0
1.0,5.0,3.0,2.0,0.0,0.0,1.0,-2.0,1650846649280593.0
0.0,-16.0,-1.0,1.0,-3.0,-2.0,-1.0,-1.0,1650846649280593.0
-1.0,1.0,0.0,-1.0,0.0,-1.0,-2.0,2.0,1650846649293556.0
0.0,4.0,1.0,-2.0,1.0,1.0,1.0,0.0,1650846649293556.0
-1.0,-1.0,-3.0,-1.0,-3.0,-2.0,0.0,0.0,1650846649300535.0
-1.0,4.0,2.0,2.0,1.0,-1.0,-1.0,-2.0,1650846649300535.0
-1.0,-1.0,-1.0,-5.0,-2.0,0.0,-1.0,-3.0,1650846649316784.0
-1.0,-6.0,-6.0,-5.0,-1.0,-1.0,0.0,-1.0,1650846649316784.0
0.0,6.0,4.0,7.0,-1.0,0.0,1.0,0.0,1650846649318807.0
1.0,5.0,-2.0,-5.0,-1.0,-2.0,0.0,-1.0,1650846649318807.0
-2.0,-11.0,-1.0,-1.0,1.0,1.0,1.0,0.0,1650846649339722.0
-1.0,1.0,0.0,1.0,2.0,-1.0,-1.0,0.0,1650846649339722.0
-1.0,14.0,1.0,-5.0,-1.0,2.0,-1.0,0.0,1650846649340721.0
-4.0,-23.0,-8.0,-4.0,-6.0,-3.0,-1.0,-3.0,1650846649340721.0
1.0,14.0,0.0,-2.0,0.0,-3.0,-2.0,-2.0,1650846649353685.0
2.0,-1.0,1.0,3.0,2.0,2.0,0.0,-1.0,1650846649353685.0
1.0,5.0,4.0,2.0,1.0,-2.0,1.0,-1.0,1650846649360705.0
-4.0,-3.0,-4.0,1.0,-2.0,1.0,-2.0,0.0,1650846649360705.0
-2.0,-3.0,1.0,-4.0,-1.0,-1.0,2.0,0.0,1650846649376625.0
0.0,0.0,-5.0,1.0,-1.0,-1.0,-2.0,-2.0,1650846649376625.0
1.0,-4.0,-1.0,-1.0,-1.0,-3.0,-1.0,1.0,1650846649378646.0
0.0,9.0,2.0,3.0,3.0,0.0,1.0,2.0,1650846649378646.0
0.0,-6.0,-1.0,-2.0,0.0,0.0,2.0,-1.0,1650846649399606.0
0.0,2.0,4.0,2.0,-2.0,-2.0,1.0,0.0,1650846649399606.0
0.0,0.0,2.0,0.0,-1.0,-1.0,-3.0,-1.0,1650846649400563.0
0.0,1.0,-5.0,1.0,2.0,1.0,1.0,2.0,1650846649400563.0
-4.0,2.0,8.0,2.0,-2.0,-2.0,-3.0,-4.0,1650846649413564.0
-2.0,-14.0,-17.0,-6.0,0.0,0.0,-2.0,-2.0,1650846649413564.0
1.0,-7.0,-10.0,-6.0,0.0,1.0,2.0,-1.0,1650846649420541.0
1.0,6.0,5.0,0.0,-1.0,0.0,-1.0,0.0,1650846649420541.0
1.0,17.0,1.0,2.0,4.0,0.0,3.0,4.0,1650846649436498.0
5.0,1.0,5.0,13.0,0.0,-4.0,-4.0,-2.0,1650846649436498.0
-2.0,-13.0,-7.0,-19.0,-9.0,-5.0,-2.0,9.0,1650846649438459.0
-13.0,-5.0,-1.0,2.0,2.0,1.0,0.0,-10.0,1650846649438459.0
2.0,-3.0,-4.0,-3.0,-1.0,-1.0,0.0,1.0,1650846649459403.0
-2.0,2.0,3.0,1.0,3.0,2.0,3.0,-1.0,1650846649459403.0
10.0,4.0,-3.0,2.0,3.0,1.0,-1.0,5.0,1650846649461429.0
4.0,4.0,2.0,-1.0,0.0,-2.0,-1.0,5.0,1650846649461429.0
-2.0,-6.0,0.0,0.0,2.0,-1.0,0.0,-4.0,1650846649473400.0
-2.0,-1.0,4.0,-4.0,-5.0,0.0,0.0,0.0,1650846649473400.0
-3.0,-2.0,1.0,2.0,-1.0,0.0,-1.0,-3.0,1650846649480386.0
0.0,0.0,1.0,-1.0,-1.0,-1.0,-2.0,1.0,1650846649480386.0
-2.0,-6.0,-3.0,1.0,-2.0,1.0,-3.0,-2.0,1650846649496833.0
1.0,2.0,-2.0,-3.0,0.0,-1.0,-2.0,2.0,1650846649496833.0
-5.0,3.0,1.0,3.0,3.0,-3.0,-1.0,-4.0,1650846649498827.0
4.0,-1.0,-2.0,0.0,-1.0,2.0,1.0,0.0,1650846649498827.0
2.0,0.0,7.0,5.0,-3.0,-2.0,-3.0,0.0,1650846649518779.0
-1.0,5.0,14.0,5.0,2.0,2.0,1.0,3.0,1650846649518779.0
-2.0,-16.0,12.0,2.0,-1.0,-3.0,-1.0,-2.0,1650846649520756.0
0.0,-1.0,6.0,-3.0,-8.0,-6.0,-2.0,6.0,1650846649520756.0
-17.0,0.0,-2.0,2.0,4.0,-1.0,-3.0,-15.0,1650846649533733.0
4.0,-9.0,-3.0,-6.0,-1.0,-2.0,-1.0,0.0,1650846649533733.0
-4.0,8.0,-4.0,2.0,1.0,3.0,-1.0,-3.0,1650846649540694.0
3.0,-4.0,1.0,0.0,1.0,0.0,-2.0,3.0,1650846649540694.0
2.0,4.0,-6.0,-5.0,-6.0,-2.0,1.0,6.0,1650846649556651.0
-5.0,-9.0,-7.0,2.0,-2.0,-2.0,-3.0,-5.0,1650846649556651.0
4.0,6.0,-1.0,-1.0,4.0,1.0,3.0,2.0,1650846649558647.0
-3.0,3.0,-2.0,1.0,-1.0,-1.0,0.0,-8.0,1650846649558647.0
3.0,-5.0,-2.0,0.0,0.0,0.0,2.0,3.0,1650846649579659.0
-2.0,3.0,-3.0,0.0,1.0,-2.0,-2.0,-1.0,1650846649579659.0
1.0,-3.0,-4.0,1.0,-3.0,-3.0,-1.0,1.0,1650846649580599.0
-1.0,3.0,-3.0,-7.0,-4.0,-2.0,0.0,-2.0,1650846649580599.0
0.0,-4.0,-1.0,-1.0,0.0,1.0,-1.0,-1.0,1650846649592852.0
1.0,-1.0,-1.0,0.0,-2.0,-1.0,1.0,3.0,1650846649592852.0
-3.0,5.0,1.0,-3.0,-1.0,3.0,-2.0,-5.0,1650846649601780.0
1.0,-5.0,1.0,4.0,6.0,0.0,1.0,-1.0,1650846649601780.0
2.0,-6.0,-4.0,-3.0,-1.0,0.0,-2.0,1.0,1650846649616760.0
-1.0,4.0,-1.0,-1.0,0.0,0.0,0.0,-2.0,1650846649616760.0
-1.0,5.0,-2.0,-2.0,-2.0,-2.0,-2.0,-4.0,1650846649618754.0
1.0,4.0,-4.0,2.0,0.0,0.0,1.0,0.0,1650846649618754.0
0.0,-5.0,-4.0,-3.0,-1.0,-1.0,-1.0,2.0,1650846649639705.0
1.0,4.0,-1.0,0.0,-1.0,0.0,0.0,-2.0,1650846649639705.0
0.0,0.0,7.0,5.0,1.0,-2.0,-1.0,-1.0,1650846649640675.0
0.0,-6.0,-4.0,-3.0,-2.0,1.0,-2.0,-2.0,1650846649640675.0
3.0,3.0,-7.0,-2.0,-2.0,1.0,0.0,3.0,1650846649652670.0
-4.0,2.0,15.0,-3.0,-5.0,-1.0,-2.0,-1.0,1650846649652670.0
0.0,-2.0,-15.0,1.0,2.0,2.0,0.0,0.0,1650846649661663.0
0.0,3.0,6.0,-1.0,-4.0,-1.0,-1.0,0.0,1650846649661663.0
-2.0,-6.0,-9.0,-3.0,-3.0,-3.0,-1.0,-1.0,1650846649676584.0
1.0,6.0,-5.0,-4.0,-1.0,0.0,1.0,0.0,1650846649676584.0
-1.0,-4.0,5.0,3.0,-1.0,-3.0,2.0,2.0,1650846649678574.0
0.0,-8.0,-4.0,-4.0,-2.0,0.0,-1.0,0.0,1650846649678574.0
1.0,9.0,0.0,-1.0,1.0,-2.0,-1.0,-1.0,1650846649699545.0
0.0,-3.0,3.0,4.0,3.0,2.0,0.0,0.0,1650846649699545.0
-1.0,2.0,-2.0,-1.0,0.0,-2.0,-1.0,-1.0,1650846649700535.0
0.0,-1.0,-4.0,1.0,0.0,-1.0,-1.0,-2.0,1650846649700535.0
-1.0,-3.0,6.0,0.0,1.0,1.0,0.0,0.0,1650846649712550.0
0.0,-2.0,-1.0,1.0,-1.0,-1.0,-1.0,-2.0,1650846649712550.0
-2.0,-3.0,-2.0,-4.0,-2.0,1.0,-1.0,-2.0,1650846649721488.0
1.0,1.0,-1.0,1.0,1.0,-2.0,3.0,0.0,1650846649721488.0
-1.0,-1.0,6.0,3.0,-1.0,-1.0,-1.0,0.0,1650846649736446.0
-3.0,-6.0,-8.0,-3.0,1.0,0.0,0.0,-1.0,1650846649736446.0
-1.0,1.0,-1.0,-1.0,-1.0,1.0,0.0,-2.0,1650846649738413.0
-1.0,1.0,2.0,-3.0,0.0,-1.0,-2.0,1.0,1650846649738413.0
-2.0,-6.0,-2.0,1.0,4.0,2.0,2.0,-2.0,1650846649759227.0
-1.0,-1.0,-1.0,0.0,-2.0,-1.0,-1.0,-2.0,1650846649759227.0
1.0,2.0,-2.0,-5.0,-5.0,-1.0,-1.0,1.0,1650846649761199.0
-2.0,-2.0,-1.0,7.0,2.0,0.0,-2.0,0.0,1650846649761199.0
-1.0,-1.0,-4.0,-4.0,-3.0,1.0,0.0,-1.0,1650846649773166.0
2.0,5.0,-3.0,1.0,2.0,1.0,1.0,0.0,1650846649773166.0
-2.0,-5.0,8.0,4.0,1.0,-1.0,-3.0,0.0,1650846649782143.0
0.0,1.0,-5.0,-4.0,0.0,2.0,0.0,2.0,1650846649782143.0
-1.0,-18.0,-1.0,1.0,-2.0,-2.0,-4.0,0.0,1650846649797170.0
0.0,-1.0,-8.0,-3.0,-2.0,-1.0,0.0,0.0,1650846649797170.0
1.0,0.0,-1.0,-1.0,0.0,-2.0,-2.0,-4.0,1650846649798124.0
0.0,-2.0,1.0,0.0,3.0,-2.0,-1.0,-1.0,1650846649798124.0
0.0,5.0,6.0,-2.0,-3.0,-4.0,1.0,0.0,1650846649819071.0
-1.0,0.0,-1.0,-1.0,-2.0,0.0,0.0,0.0,1650846649819071.0
0.0,-9.0,-2.0,-1.0,-1.0,2.0,-1.0,-1.0,1650846649821039.0
0.0,7.0,1.0,-1.0,-1.0,2.0,1.0,0.0,1650846649821039.0
0.0,1.0,-4.0,-1.0,-1.0,0.0,0.0,1.0,1650846649833006.0
1.0,0.0,1.0,-1.0,0.0,-1.0,-1.0,2.0,1650846649833006.0
-8.0,-1.0,-4.0,-2.0,0.0,-1.0,0.0,-5.0,1650846649842449.0
0.0,1.0,2.0,2.0,-2.0,0.0,-2.0,1.0,1650846649842449.0
-1.0,0.0,-1.0,0.0,1.0,0.0,-2.0,0.0,1650846649856524.0
0.0,2.0,-2.0,-1.0,2.0,-1.0,0.0,0.0,1650846649856524.0
1.0,-2.0,-1.0,0.0,-1.0,-1.0,1.0,1.0,1650846649858520.0
0.0,0.0,-2.0,-2.0,-4.0,-2.0,-1.0,-2.0,1650846649858520.0
2.0,3.0,-3.0,1.0,0.0,1.0,1.0,-2.0,1650846649879590.0
-4.0,-5.0,-1.0,0.0,0.0,0.0,-2.0,-4.0,1650846649879590.0
1.0,1.0,2.0,0.0,-1.0,0.0,0.0,2.0,1650846649880589.0
-1.0,-1.0,0.0,0.0,0.0,0.0,0.0,-2.0,1650846649880589.0
-1.0,-2.0,2.0,-1.0,-3.0,-3.0,-1.0,0.0,1650846649892558.0
0.0,9.0,3.0,-1.0,0.0,1.0,1.0,-3.0,1650846649892558.0
-3.0,-4.0,-7.0,-3.0,1.0,-1.0,1.0,-1.0,1650846649901563.0
0.0,-4.0,5.0,3.0,1.0,-2.0,-1.0,-3.0,1650846649901563.0
-1.0,-6.0,-2.0,-2.0,-4.0,-1.0,-1.0,1.0,1650846649916521.0
-1.0,-2.0,-5.0,-1.0,-1.0,3.0,-1.0,1.0,1650846649916521.0
1.0,0.0,3.0,3.0,1.0,-2.0,-2.0,1.0,1650846649918489.0
2.0,8.0,-2.0,-4.0,-3.0,-3.0,2.0,-1.0,1650846649918489.0
-1.0,-1.0,0.0,1.0,3.0,0.0,1.0,1.0,1650846649939459.0
-2.0,2.0,1.0,0.0,-1.0,0.0,-1.0,-2.0,1650846649939459.0
1.0,-2.0,-2.0,-2.0,-2.0,0.0,0.0,1.0,1650846649940430.0
-1.0,-2.0,0.0,0.0,0.0,0.0,-1.0,0.0,1650846649940430.0
1.0,1.0,-1.0,-1.0,-1.0,-3.0,0.0,-3.0,1650846649953421.0
-3.0,3.0,1.0,-1.0,1.0,-1.0,0.0,2.0,1650846649953421.0
-1.0,-6.0,0.0,1.0,1.0,-1.0,-2.0,-1.0,1650846649962372.0
0.0,-1.0,-3.0,0.0,-1.0,1.0,1.0,-1.0,1650846649962372.0
1.0,4.0,-2.0,-1.0,-5.0,-1.0,-2.0,-1.0,1650846649977340.0
1.0,-5.0,-2.0,0.0,-5.0,-1.0,-2.0,-1.0,1650846649977340.0
0.0,1.0,3.0,6.0,6.0,3.0,0.0,-1.0,1650846649978329.0
0.0,-3.0,-10.0,-5.0,0.0,1.0,0.0,2.0,1650846649978329.0
0.0,3.0,11.0,2.0,-2.0,-2.0,-1.0,-2.0,1650846650007278.0
-3.0,-9.0,-2.0,-4.0,-5.0,-5.0,-1.0,-2.0,1650846650007278.0
2.0,3.0,-3.0,0.0,1.0,1.0,1.0,0.0,1650846650008248.0
-2.0,1.0,1.0,0.0,1.0,2.0,-2.0,0.0,1650846650008248.0
-1.0,1.0,-4.0,8.0,2.0,2.0,2.0,0.0,1650846650013262.0
-2.0,-10.0,-3.0,-1.0,0.0,-4.0,-2.0,1.0,1650846650013262.0
2.0,4.0,-1.0,-4.0,-2.0,-2.0,0.0,0.0,1650846650028262.0
-1.0,2.0,0.0,0.0,-1.0,0.0,-3.0,-1.0,1650846650028262.0
0.0,-1.0,0.0,-3.0,-1.0,0.0,-2.0,0.0,1650846650037199.0
0.0,-7.0,4.0,3.0,3.0,-1.0,1.0,-3.0,1650846650037199.0
0.0,-1.0,-5.0,-5.0,-3.0,-2.0,2.0,0.0,1650846650038168.0
0.0,-4.0,0.0,-1.0,0.0,0.0,-2.0,-3.0,1650846650038168.0
-1.0,0.0,-1.0,-4.0,-2.0,0.0,-1.0,0.0,1650846650059623.0
2.0,5.0,-2.0,1.0,3.0,3.0,2.0,0.0,1650846650059623.0
-1.0,-2.0,1.0,1.0,-4.0,-1.0,-1.0,0.0,1650846650060617.0
1.0,-1.0,-2.0,-1.0,2.0,-1.0,0.0,0.0,1650846650060617.0
2.0,2.0,2.0,-2.0,-1.0,1.0,0.0,-3.0,1650846650081560.0
2.0,1.0,0.0,2.0,1.0,-1.0,-1.0,1.0,1650846650081560.0
1.0,2.0,2.0,0.0,-3.0,-2.0,1.0,-1.0,1650846650083556.0
-1.0,0.0,6.0,4.0,1.0,-1.0,0.0,1.0,1650846650083556.0
-1.0,-5.0,-5.0,-1.0,-2.0,-1.0,-2.0,1.0,1650846650096592.0
1.0,5.0,-3.0,-3.0,-2.0,-1.0,-1.0,1.0,1650846650096592.0
-1.0,-6.0,-1.0,2.0,0.0,-1.0,-2.0,-1.0,1650846650098514.0
2.0,-1.0,1.0,2.0,-1.0,1.0,1.0,0.0,1650846650098514.0
-2.0,-1.0,-1.0,-1.0,4.0,-1.0,0.0,0.0,1650846650119309.0
0.0,2.0,-1.0,-5.0,-3.0,-2.0,-2.0,-1.0,1650846650119309.0
-2.0,-5.0,0.0,0.0,1.0,1.0,1.0,0.0,1650846650121276.0
-1.0,9.0,0.0,-4.0,-6.0,0.0,-1.0,2.0,1650846650121276.0
1.0,-6.0,-2.0,-2.0,4.0,1.0,-1.0,0.0,1650846650141751.0
-3.0,-5.0,0.0,2.0,0.0,-2.0,-1.0,-2.0,1650846650141751.0
0.0,2.0,-2.0,-2.0,-2.0,1.0,-2.0,-1.0,1650846650143723.0
0.0,-5.0,-3.0,-5.0,1.0,-2.0,-2.0,-3.0,1650846650143723.0
0.0,-1.0,0.0,6.0,1.0,0.0,-2.0,0.0,1650846650156714.0
0.0,2.0,0.0,-2.0,-3.0,0.0,1.0,1.0,1650846650156714.0
0.0,-1.0,1.0,0.0,-1.0,2.0,0.0,0.0,1650846650158683.0
0.0,-1.0,1.0,0.0,2.0,-3.0,0.0,0.0,1650846650158683.0
1.0,4.0,0.0,-4.0,0.0,1.0,-2.0,-2.0,1650846650179767.0
-2.0,-8.0,0.0,1.0,1.0,-1.0,-2.0,-3.0,1650846650179767.0
-1.0,2.0,-4.0,0.0,2.0,1.0,-3.0,-1.0,1650846650180767.0
0.0,-1.0,2.0,4.0,0.0,-1.0,0.0,0.0,1650846650180767.0
0.0,2.0,0.0,-2.0,-3.0,-3.0,0.0,0.0,1650846650201862.0
-2.0,-3.0,-3.0,0.0,-2.0,1.0,-1.0,-2.0,1650846650201862.0
-1.0,-3.0,0.0,1.0,3.0,2.0,-1.0,-1.0,1650846650203857.0
0.0,2.0,-2.0,-1.0,-2.0,-1.0,-3.0,-2.0,1650846650203857.0
1.0,-1.0,-1.0,-3.0,-2.0,-1.0,0.0,-2.0,1650846650215824.0
1.0,0.0,-1.0,1.0,1.0,1.0,1.0,0.0,1650846650215824.0
1.0,2.0,2.0,-1.0,0.0,-1.0,-3.0,-1.0,1650846650222834.0
-1.0,-4.0,-2.0,0.0,-1.0,0.0,0.0,1.0,1650846650222834.0
-2.0,3.0,0.0,0.0,-1.0,0.0,0.0,-1.0,1650846650238794.0
1.0,-6.0,-1.0,-4.0,-3.0,-1.0,-2.0,-1.0,1650846650238794.0
-1.0,2.0,-2.0,4.0,2.0,-1.0,-1.0,-1.0,1650846650240766.0
-1.0,-5.0,-3.0,-4.0,-4.0,1.0,1.0,0.0,1650846650240766.0
-3.0,-3.0,-2.0,0.0,-2.0,-3.0,0.0,-2.0,1650846650262374.0
1.0,2.0,0.0,-1.0,3.0,2.0,1.0,0.0,1650846650262374.0
1.0,0.0,0.0,2.0,-1.0,0.0,1.0,-2.0,1650846650263373.0
0.0,-1.0,0.0,-1.0,-1.0,1.0,-2.0,0.0,1650846650263373.0
0.0,-1.0,1.0,1.0,5.0,1.0,1.0,2.0,1650846650276351.0
1.0,0.0,-3.0,-1.0,-3.0,-3.0,-1.0,2.0,1650846650276351.0
-3.0,-7.0,-4.0,-4.0,-4.0,-1.0,-1.0,-1.0,1650846650283319.0
-1.0,3.0,2.0,5.0,4.0,1.0,-13.0,-1.0,1650846650283319.0
2.0,2.0,2.0,0.0,2.0,6.0,14.0,1.0,1650846650299363.0
-1.0,-4.0,-1.0,3.0,-6.0,-8.0,13.0,3.0,1650846650299363.0
0.0,-4.0,-4.0,-5.0,-7.0,-2.0,-12.0,-6.0,1650846650301366.0
0.0,0.0,-2.0,-3.0,0.0,-1.0,4.0,0.0,1650846650301366.0
-3.0,0.0,-1.0,1.0,0.0,0.0,-4.0,-4.0,1650846650321304.0
1.0,1.0,0.0,3.0,5.0,5.0,-4.0,0.0,1650846650321304.0
0.0,-1.0,0.0,0.0,0.0,-1.0,7.0,3.0,1650846650323299.0
4.0,10.0,-3.0,-7.0,-8.0,-5.0,-5.0,-1.0,1650846650323299.0
-8.0,-4.0,0.0,1.0,0.0,-1.0,-5.0,-2.0,1650846650336291.0
4.0,2.0,4.0,1.0,4.0,1.0,2.0,3.0,1650846650336291.0
-6.0,2.0,-5.0,-6.0,-2.0,0.0,-3.0,-5.0,1650846650349986.0
-2.0,-8.0,-2.0,1.0,0.0,-1.0,1.0,0.0,1650846650349986.0
1.0,-1.0,0.0,0.0,-3.0,-1.0,1.0,2.0,1650846650358965.0
0.0,-1.0,-3.0,-4.0,-4.0,0.0,-1.0,0.0,1650846650358965.0
1.0,6.0,7.0,5.0,4.0,3.0,-7.0,-1.0,1650846650360958.0
0.0,-6.0,-3.0,-1.0,2.0,-1.0,22.0,5.0,1650846650360958.0
0.0,-3.0,0.0,-4.0,-4.0,-2.0,-12.0,0.0,1650846650381887.0
0.0,-1.0,1.0,2.0,3.0,4.0,-11.0,5.0,1650846650381887.0
-8.0,0.0,-1.0,-3.0,-4.0,-6.0,10.0,-15.0,1650846650383814.0
-7.0,3.0,2.0,3.0,-1.0,4.0,3.0,2.0,1650846650383814.0
2.0,-1.0,1.0,4.0,-1.0,-4.0,-1.0,2.0,1650846650395849.0
-2.0,5.0,-4.0,-6.0,-5.0,-5.0,-9.0,-4.0,1650846650395849.0
2.0,0.0,1.0,2.0,1.0,1.0,1.0,4.0,1650846650402791.0
4.0,7.0,2.0,-1.0,-1.0,-2.0,-4.0,0.0,1650846650402791.0
-5.0,-1.0,-4.0,-3.0,0.0,-3.0,-4.0,-9.0,1650846650419815.0
0.0,3.0,-1.0,1.0,0.0,-1.0,-3.0,-4.0,1650846650419815.0
0.0,-5.0,-3.0,-3.0,-2.0,-4.0,1.0,5.0,1650846650420820.0
-12.0,-5.0,1.0,1.0,1.0,0.0,-8.0,-12.0,1650846650420820.0
3.0,-1.0,-3.0,-4.0,-2.0,2.0,-1.0,7.0,1650846650441784.0
4.0,-1.0,1.0,-1.0,-2.0,-1.0,23.0,8.0,1650846650441784.0
-2.0,-3.0,0.0,2.0,-2.0,-6.0,-1.0,-1.0,1650846650443751.0
1.0,-2.0,0.0,4.0,3.0,3.0,-11.0,-2.0,1650846650443751.0
2.0,8.0,-3.0,-2.0,5.0,16.0,10.0,3.0,1650846650455746.0
0.0,-2.0,2.0,1.0,0.0,-8.0,-4.0,-4.0,1650846650455746.0
-6.0,-15.0,-3.0,-3.0,-8.0,-4.0,-5.0,-12.0,1650846650462764.0
1.0,8.0,-2.0,-1.0,0.0,-6.0,0.0,2.0,1650846650462764.0
4.0,0.0,-1.0,1.0,-2.0,-4.0,-7.0,-1.0,1650846650479722.0
6.0,-4.0,-2.0,1.0,3.0,9.0,13.0,14.0,1650846650479722.0
0.0,4.0,-1.0,-2.0,1.0,2.0,0.0,4.0,1650846650480656.0
-13.0,-10.0,0.0,2.0,-3.0,-3.0,-5.0,-13.0,1650846650480656.0
4.0,13.0,0.0,-6.0,-5.0,-2.0,5.0,9.0,1650846650501596.0
-3.0,1.0,1.0,1.0,3.0,6.0,-4.0,-5.0,1650846650501596.0
3.0,-2.0,2.0,0.0,-1.0,-1.0,-3.0,3.0,1650846650503612.0
1.0,-10.0,0.0,1.0,0.0,1.0,10.0,12.0,1650846650503612.0
-13.0,2.0,-4.0,-3.0,-4.0,-7.0,-4.0,-14.0,1650846650516613.0
-5.0,3.0,-3.0,-1.0,-4.0,-4.0,-10.0,-6.0,1650846650516613.0
6.0,-5.0,-2.0,1.0,4.0,4.0,4.0,8.0,1650846650522570.0
-7.0,-1.0,2.0,3.0,1.0,1.0,1.0,4.0,1650846650522570.0
13.0,-7.0,-2.0,1.0,0.0,-1.0,10.0,8.0,1650846650539649.0
-30.0,-4.0,-3.0,-1.0,0.0,-3.0,-4.0,-10.0,1650846650539649.0
-7.0,1.0,3.0,3.0,4.0,9.0,9.0,-1.0,1650846650540649.0
11.0,-1.0,-3.0,-3.0,-5.0,2.0,12.0,10.0,1650846650540649.0
6.0,4.0,0.0,-1.0,-4.0,-4.0,-4.0,-4.0,1650846650561658.0
-14.0,-4.0,3.0,2.0,4.0,2.0,0.0,-9.0,1650846650561658.0
13.0,-8.0,-4.0,-2.0,-1.0,-4.0,-5.0,11.0,1650846650563586.0
-3.0,2.0,9.0,-3.0,-1.0,-1.0,-4.0,-10.0,1650846650563586.0
-19.0,-3.0,-11.0,0.0,-3.0,-3.0,-2.0,-4.0,1650846650575553.0
9.0,3.0,3.0,2.0,5.0,2.0,-12.0,-11.0,1650846650575553.0
-1.0,10.0,-1.0,-1.0,-3.0,-4.0,9.0,4.0,1650846650584530.0
16.0,-1.0,-3.0,-4.0,-7.0,-10.0,-10.0,3.0,1650846650584530.0
-6.0,-15.0,1.0,2.0,1.0,2.0,3.0,-2.0,1650846650599491.0
-3.0,0.0,-1.0,-1.0,-7.0,-4.0,-5.0,5.0,1650846650599491.0
1.0,-3.0,-1.0,0.0,2.0,-1.0,-7.0,-7.0,1650846650600487.0
2.0,6.0,-2.0,-1.0,3.0,4.0,0.0,-5.0,1650846650600487.0
-8.0,-9.0,3.0,4.0,-1.0,-1.0,-3.0,-1.0,1650846650621431.0
7.0,-1.0,4.0,2.0,-1.0,4.0,3.0,9.0,1650846650621431.0
-8.0,-3.0,-12.0,-8.0,-3.0,0.0,-3.0,-7.0,1650846650623426.0
-22.0,7.0,-3.0,1.0,3.0,1.0,-1.0,-26.0,1650846650623426.0
3.0,2.0,4.0,2.0,3.0,2.0,1.0,14.0,1650846650635424.0
10.0,-7.0,-4.0,-4.0,-5.0,-3.0,1.0,-7.0,1650846650635424.0
-1.0,6.0,4.0,3.0,3.0,7.0,0.0,7.0,1650846650644935.0
7.0,0.0,-3.0,0.0,2.0,0.0,2.0,3.0,1650846650644935.0
-3.0,-6.0,-4.0,-5.0,-10.0,-19.0,-17.0,-13.0,1650846650658921.0
-7.0,-20.0,-3.0,-1.0,1.0,5.0,6.0,-3.0,1650846650658921.0
16.0,15.0,2.0,-4.0,-4.0,-5.0,-6.0,7.0,1650846650660889.0
-27.0,-6.0,-4.0,-1.0,4.0,11.0,5.0,-16.0,1650846650660889.0
10.0,9.0,5.0,-2.0,1.0,3.0,0.0,5.0,1650846650681832.0
4.0,5.0,9.0,1.0,-3.0,-9.0,0.0,4.0,1650846650681832.0
-4.0,-6.0,-14.0,-2.0,-1.0,-2.0,-2.0,-3.0,1650846650683837.0
2.0,-15.0,0.0,1.0,0.0,-1.0,0.0,5.0,1650846650683837.0
5.0,3.0,6.0,0.0,5.0,-1.0,2.0,4.0,1650846650695862.0
1.0,16.0,-5.0,2.0,3.0,-1.0,-3.0,-10.0,1650846650695862.0
0.0,0.0,18.0,0.0,-2.0,-1.0,4.0,4.0,1650846650704771.0
8.0,8.0,-10.0,-4.0,-4.0,-6.0,0.0,8.0,1650846650704771.0
4.0,-23.0,-7.0,-1.0,3.0,3.0,3.0,4.0,1650846650718860.0
-11.0,8.0,2.0,-2.0,-2.0,-2.0,-6.0,-20.0,1650846650718860.0
-6.0,3.0,3.0,4.0,3.0,3.0,2.0,2.0,1650846650720828.0
11.0,-8.0,-9.0,-1.0,-3.0,-3.0,7.0,45.0,1650846650720828.0
-10.0,-3.0,-7.0,-4.0,-2.0,-2.0,-22.0,-57.0,1650846650741869.0
5.0,-8.0,-8.0,-1.0,0.0,1.0,8.0,10.0,1650846650741869.0
-1.0,-3.0,3.0,-3.0,-3.0,-5.0,0.0,5.0,1650846650743797.0
2.0,5.0,5.0,2.0,2.0,3.0,-8.0,-7.0,1650846650743797.0
-9.0,7.0,3.0,1.0,-1.0,-3.0,-4.0,6.0,1650846650755792.0
-7.0,-4.0,-8.0,-7.0,-8.0,-11.0,-7.0,-1.0,1650846650755792.0
0.0,5.0,-2.0,2.0,1.0,2.0,-6.0,-11.0,1650846650764746.0
5.0,-7.0,-1.0,-7.0,-1.0,0.0,6.0,10.0,1650846650764746.0
5.0,-3.0,2.0,-1.0,-2.0,2.0,1.0,-3.0,1650846650779737.0
-1.0,1.0,-3.0,3.0,2.0,0.0,-7.0,0.0,1650846650779737.0
2.0,2.0,7.0,2.0,-1.0,-1.0,3.0,9.0,1650846650780699.0
-14.0,-2.0,-25.0,-9.0,-8.0,-6.0,-9.0,-26.0,1650846650780699.0
-3.0,-1.0,0.0,2.0,1.0,2.0,6.0,11.0,1650846650801793.0
-2.0,-2.0,0.0,-3.0,-2.0,-3.0,3.0,-3.0,1650846650801793.0
14.0,0.0,-5.0,-2.0,-3.0,2.0,0.0,3.0,1650846650803760.0
0.0,-5.0,11.0,10.0,4.0,0.0,-2.0,-2.0,1650846650803760.0
7.0,16.0,-4.0,-3.0,2.0,3.0,1.0,4.0,1650846650815791.0
-3.0,-4.0,18.0,-1.0,2.0,6.0,1.0,3.0,1650846650815791.0
-4.0,-6.0,-3.0,3.0,0.0,-9.0,0.0,-4.0,1650846650824704.0
16.0,17.0,2.0,-9.0,-10.0,-9.0,-7.0,8.0,1650846650824704.0
-11.0,-10.0,-1.0,3.0,-3.0,-1.0,-8.0,-31.0,1650846650838819.0
16.0,9.0,9.0,8.0,4.0,9.0,8.0,20.0,1650846650838819.0
-15.0,-8.0,-5.0,-2.0,2.0,1.0,1.0,-3.0,1650846650840784.0
13.0,-1.0,-3.0,1.0,3.0,0.0,-2.0,1.0,1650846650840784.0
-11.0,4.0,13.0,3.0,-2.0,1.0,4.0,-8.0,1650846650862375.0
6.0,-4.0,-7.0,-1.0,-1.0,-2.0,-4.0,1.0,1650846650862375.0
-2.0,15.0,-4.0,-8.0,-5.0,1.0,1.0,-5.0,1650846650863375.0
-1.0,-1.0,2.0,-3.0,-2.0,-1.0,5.0,2.0,1650846650863375.0
14.0,3.0,-9.0,-1.0,2.0,3.0,2.0,14.0,1650846650875369.0
-6.0,-9.0,13.0,17.0,4.0,2.0,3.0,-1.0,1650846650875369.0
6.0,6.0,5.0,-3.0,-5.0,-3.0,0.0,11.0,1650846650884439.0
-12.0,0.0,-11.0,-3.0,1.0,3.0,-2.0,-15.0,1650846650884439.0
-7.0,-10.0,-11.0,-4.0,-3.0,-4.0,1.0,9.0,1650846650899537.0
23.0,6.0,-1.0,-3.0,-1.0,-1.0,-5.0,-8.0,1650846650899537.0
-20.0,4.0,0.0,5.0,3.0,1.0,0.0,-12.0,1650846650900540.0
1.0,-3.0,15.0,2.0,-1.0,2.0,4.0,2.0,1650846650900540.0
8.0,-2.0,-20.0,1.0,0.0,-3.0,3.0,13.0,1650846650921638.0
-20.0,-6.0,-36.0,-27.0,-12.0,-10.0,-5.0,-4.0,1650846650921638.0
-3.0,-24.0,28.0,8.0,3.0,3.0,-5.0,-10.0,1650846650923633.0
-3.0,13.0,-7.0,1.0,1.0,2.0,-3.0,-22.0,1650846650923633.0
6.0,7.0,23.0,8.0,6.0,4.0,8.0,31.0,1650846650935840.0
-1.0,-5.0,-10.0,-3.0,-3.0,-8.0,3.0,6.0,1650846650935840.0
2.0,0.0,2.0,-1.0,1.0,-1.0,-2.0,2.0,1650846650944851.0
-11.0,-6.0,4.0,1.0,-2.0,-4.0,-4.0,-4.0,1650846650944851.0
4.0,0.0,13.0,-3.0,-4.0,0.0,-2.0,0.0,1650846650958808.0
-2.0,5.0,-8.0,-2.0,5.0,6.0,5.0,11.0,1650846650958808.0
-2.0,3.0,9.0,-1.0,-4.0,-1.0,-1.0,-5.0,1650846650966808.0
11.0,-2.0,3.0,7.0,4.0,0.0,0.0,10.0,1650846650966808.0
-8.0,-10.0,-21.0,-13.0,-6.0,0.0,1.0,-6.0,1650846650982413.0
10.0,16.0,14.0,11.0,7.0,7.0,2.0,-1.0,1650846650982413.0
-3.0,-3.0,-15.0,-7.0,-6.0,-7.0,-6.0,-5.0,1650846650983357.0
-2.0,-6.0,8.0,4.0,3.0,5.0,5.0,12.0,1650846650983357.0
-2.0,-1.0,-5.0,-5.0,-4.0,1.0,-3.0,-5.0,1650846651004327.0
13.0,9.0,22.0,2.0,1.0,0.0,7.0,6.0,1650846651004327.0
-4.0,-15.0,-8.0,7.0,3.0,-3.0,-3.0,-2.0,1650846651006294.0
-4.0,-18.0,-52.0,-16.0,-5.0,-3.0,-3.0,1.0,1650846651006294.0
-3.0,2.0,11.0,3.0,2.0,1.0,-2.0,-7.0,1650846651019259.0
0.0,-3.0,0.0,2.0,3.0,3.0,-4.0,-8.0,1650846651019259.0
-16.0,7.0,-3.0,-2.0,-1.0,0.0,19.0,20.0,1650846651021254.0
-5.0,-1.0,28.0,4.0,-3.0,-4.0,-13.0,-16.0,1650846651021254.0
4.0,11.0,-20.0,-2.0,0.0,0.0,0.0,5.0,1650846651041826.0
-6.0,-2.0,-9.0,-11.0,-6.0,-3.0,-11.0,-13.0,1650846651041826.0
6.0,-4.0,-1.0,1.0,0.0,-2.0,-1.0,9.0,1650846651043763.0
7.0,4.0,12.0,4.0,-3.0,-3.0,1.0,1.0,1650846651043763.0
-3.0,4.0,31.0,9.0,0.0,2.0,-3.0,-13.0,1650846651064703.0
5.0,3.0,-25.0,1.0,2.0,5.0,5.0,21.0,1650846651064703.0
7.0,8.0,14.0,3.0,0.0,3.0,0.0,-3.0,1650846651065699.0
5.0,-1.0,-16.0,-7.0,-5.0,-3.0,0.0,5.0,1650846651065699.0
-12.0,-5.0,1.0,-1.0,1.0,-4.0,9.0,-1.0,1650846651079759.0
-1.0,-5.0,-6.0,-1.0,-5.0,-3.0,-1.0,0.0,1650846651079759.0
4.0,2.0,-6.0,-6.0,3.0,5.0,-10.0,-13.0,1650846651080759.0
-5.0,7.0,5.0,7.0,2.0,4.0,2.0,5.0,1650846651080759.0
4.0,-1.0,-6.0,-5.0,-4.0,-2.0,5.0,-1.0,1650846651101829.0
-12.0,-4.0,13.0,5.0,3.0,0.0,-2.0,-12.0,1650846651101829.0
5.0,-2.0,-15.0,-6.0,0.0,-3.0,-1.0,3.0,1650846651103839.0
4.0,11.0,16.0,1.0,3.0,5.0,-7.0,-9.0,1650846651103839.0
-2.0,-3.0,-7.0,-2.0,1.0,0.0,8.0,23.0,1650846651124768.0
-4.0,-1.0,16.0,-3.0,-6.0,-9.0,-3.0,-4.0,1650846651124768.0
5.0,3.0,-22.0,-1.0,-2.0,-2.0,-5.0,-6.0,1650846651125765.0
7.0,-21.0,-15.0,-4.0,-5.0,-3.0,1.0,4.0,1650846651125765.0
2.0,8.0,12.0,1.0,3.0,2.0,1.0,8.0,1650846651139747.0
-5.0,2.0,-12.0,-2.0,1.0,1.0,0.0,-4.0,1650846651139747.0
8.0,4.0,24.0,1.0,-5.0,-2.0,-2.0,1.0,1650846651140725.0
0.0,6.0,-15.0,-4.0,-1.0,-2.0,8.0,16.0,1650846651140725.0
-10.0,-30.0,-14.0,2.0,-1.0,-4.0,-7.0,-6.0,1650846651161679.0
8.0,22.0,10.0,1.0,-2.0,2.0,-1.0,-7.0,1650846651161679.0
-6.0,-16.0,-16.0,-4.0,-2.0,-5.0,-1.0,-7.0,1650846651163691.0
4.0,7.0,8.0,2.0,2.0,1.0,0.0,8.0,1650846651163691.0
-2.0,2.0,17.0,4.0,6.0,2.0,-5.0,-25.0,1650846651184895.0
3.0,-10.0,3.0,1.0,-3.0,-7.0,1.0,7.0,1650846651184895.0
-14.0,-8.0,-16.0,-2.0,2.0,2.0,-6.0,-1.0,1650846651185888.0
10.0,6.0,-3.0,-9.0,-9.0,-7.0,4.0,-4.0,1650846651185888.0
11.0,9.0,-1.0,4.0,2.0,1.0,-3.0,-5.0,1650846651198921.0
-23.0,-19.0,-1.0,-1.0,-1.0,-2.0,-3.0,-6.0,1650846651198921.0
8.0,6.0,-6.0,-4.0,-2.0,-1.0,-4.0,-5.0,1650846651205865.0
0.0,-2.0,4.0,2.0,3.0,2.0,3.0,0.0,1650846651205865.0
1.0,9.0,13.0,-1.0,1.0,2.0,-4.0,2.0,1650846651221793.0
8.0,-13.0,-50.0,-10.0,-5.0,-3.0,0.0,-2.0,1650846651221793.0
-3.0,-4.0,15.0,4.0,-1.0,-2.0,1.0,2.0,1650846651223788.0
-7.0,-7.0,5.0,4.0,2.0,0.0,-2.0,-3.0,1650846651223788.0
3.0,5.0,-1.0,1.0,3.0,5.0,5.0,3.0,1650846651244747.0
-1.0,11.0,11.0,4.0,0.0,-1.0,1.0,3.0,1650846651244747.0
-3.0,-7.0,-12.0,-6.0,-5.0,-3.0,0.0,-1.0,1650846651245735.0
-5.0,3.0,11.0,2.0,3.0,1.0,-1.0,-5.0,1650846651245735.0
4.0,6.0,-13.0,-2.0,-1.0,1.0,1.0,6.0,1650846651258722.0
-2.0,-7.0,18.0,2.0,0.0,-2.0,5.0,3.0,1650846651258722.0
2.0,3.0,4.0,4.0,-1.0,0.0,-2.0,2.0,1650846651265743.0
4.0,10.0,10.0,-3.0,-2.0,-2.0,-3.0,-2.0,1650846651265743.0
-2.0,-2.0,5.0,-2.0,-1.0,-1.0,5.0,6.0,1650846651281700.0
-5.0,-1.0,-7.0,-3.0,-1.0,4.0,-2.0,-8.0,1650846651281700.0
5.0,8.0,5.0,2.0,1.0,-1.0,-7.0,5.0,1650846651283656.0
-1.0,-8.0,-2.0,0.0,4.0,2.0,2.0,3.0,1650846651283656.0
-3.0,-2.0,-8.0,-1.0,-3.0,-2.0,3.0,-6.0,1650846651304585.0
13.0,8.0,14.0,4.0,3.0,0.0,3.0,3.0,1650846651304585.0
-2.0,-3.0,1.0,-2.0,-1.0,0.0,4.0,1.0,1650846651305570.0
-5.0,-11.0,-8.0,1.0,2.0,1.0,2.0,-2.0,1650846651305570.0
-2.0,2.0,-9.0,-2.0,-1.0,-5.0,-4.0,0.0,1650846651318656.0
6.0,12.0,24.0,6.0,-2.0,2.0,-3.0,-5.0,1650846651318656.0
-7.0,-24.0,-38.0,-11.0,1.0,-1.0,3.0,-5.0,1650846651325640.0
-2.0,21.0,5.0,0.0,1.0,0.0,-1.0,-2.0,1650846651325640.0
0.0,-32.0,-2.0,-1.0,-1.0,-2.0,-3.0,-4.0,1650846651342143.0
-8.0,-4.0,-2.0,-2.0,-1.0,-2.0,-3.0,0.0,1650846651342143.0
3.0,6.0,4.0,2.0,0.0,1.0,0.0,-3.0,1650846651343102.0
3.0,4.0,6.0,1.0,1.0,1.0,4.0,8.0,1650846651343102.0
-10.0,3.0,5.0,4.0,0.0,-2.0,-3.0,-16.0,1650846651364110.0
-7.0,-10.0,-26.0,-10.0,-4.0,-1.0,-6.0,-1.0,1650846651364110.0
-6.0,-1.0,2.0,1.0,-2.0,-1.0,0.0,1.0,1650846651366038.0
-3.0,-8.0,0.0,0.0,-5.0,-3.0,-2.0,0.0,1650846651366038.0
4.0,15.0,-1.0,-2.0,3.0,3.0,0.0,6.0,1650846651379079.0
-4.0,-10.0,-6.0,0.0,3.0,-1.0,-1.0,-2.0,1650846651379079.0
1.0,12.0,4.0,-1.0,-1.0,-3.0,-3.0,-3.0,1650846651384987.0
-4.0,-9.0,5.0,2.0,0.0,1.0,-1.0,-8.0,1650846651384987.0
-6.0,-3.0,-8.0,-3.0,-2.0,-3.0,-11.0,-1.0,1650846651402029.0
4.0,4.0,20.0,3.0,1.0,-1.0,8.0,5.0,1650846651402029.0
-1.0,-4.0,-25.0,-3.0,1.0,4.0,6.0,0.0,1650846651403034.0
-3.0,-2.0,-1.0,-1.0,-4.0,-5.0,-5.0,11.0,1650846651403034.0
-1.0,-1.0,3.0,-1.0,-3.0,-2.0,-2.0,-4.0,1650846651423998.0
1.0,-1.0,0.0,-4.0,-1.0,2.0,1.0,5.0,1650846651423998.0
6.0,14.0,22.0,7.0,3.0,0.0,-3.0,-12.0,1650846651425967.0
-4.0,-16.0,-22.0,-3.0,-4.0,-3.0,-7.0,-22.0,1650846651425967.0
7.0,7.0,1.0,-2.0,0.0,0.0,3.0,6.0,1650846651438958.0
-6.0,-6.0,-3.0,-1.0,-1.0,-4.0,-10.0,-7.0,1650846651438958.0
2.0,14.0,13.0,4.0,1.0,4.0,5.0,9.0,1650846651445913.0
0.0,-8.0,-2.0,-2.0,-1.0,-1.0,-3.0,-3.0,1650846651445913.0
-3.0,1.0,0.0,-1.0,-3.0,-3.0,-1.0,-2.0,1650846651461903.0
2.0,1.0,-3.0,0.0,1.0,0.0,-2.0,1.0,1650846651461903.0
-1.0,-9.0,-1.0,0.0,2.0,0.0,-1.0,1.0,1650846651463874.0
0.0,9.0,0.0,-2.0,-3.0,-3.0,-4.0,-4.0,1650846651463874.0
-1.0,-4.0,6.0,0.0,-2.0,-1.0,-2.0,4.0,1650846651483811.0
0.0,-14.0,-9.0,-4.0,-1.0,-1.0,0.0,6.0,1650846651483811.0
1.0,5.0,2.0,-2.0,0.0,4.0,2.0,3.0,1650846651485806.0
-6.0,-2.0,1.0,3.0,3.0,1.0,4.0,2.0,1650846651485806.0
0.0,-7.0,-21.0,-5.0,-4.0,-3.0,3.0,-1.0,1650846651498354.0
-2.0,2.0,4.0,-4.0,-2.0,-1.0,-1.0,-9.0,1650846651498354.0
7.0,4.0,-1.0,-2.0,-4.0,-2.0,-5.0,10.0,1650846651506769.0
0.0,-2.0,7.0,0.0,1.0,0.0,-1.0,-2.0,1650846651506769.0
-3.0,1.0,-2.0,1.0,1.0,0.0,-2.0,1.0,1650846651521755.0
0.0,4.0,-1.0,-1.0,-2.0,-1.0,-1.0,-1.0,1650846651521755.0
1.0,-9.0,-3.0,0.0,3.0,5.0,-3.0,-4.0,1650846651523724.0
-11.0,-2.0,-1.0,1.0,-2.0,-3.0,4.0,9.0,1650846651523724.0
4.0,10.0,5.0,0.0,-3.0,-3.0,-6.0,0.0,1650846651544244.0
4.0,0.0,7.0,4.0,1.0,1.0,-1.0,2.0,1650846651544244.0
-5.0,0.0,-5.0,-4.0,1.0,0.0,6.0,2.0,1650846651546239.0
-2.0,-11.0,1.0,0.0,1.0,2.0,-1.0,-2.0,1650846651546239.0
1.0,8.0,-16.0,0.0,1.0,-2.0,1.0,0.0,1650846651558206.0
1.0,1.0,9.0,3.0,0.0,-1.0,2.0,7.0,1650846651558206.0
-4.0,-2.0,10.0,3.0,-1.0,-2.0,-1.0,-4.0,1650846651567182.0
1.0,6.0,-3.0,-1.0,-2.0,-1.0,-3.0,-5.0,1650846651567182.0
0.0,-2.0,1.0,-1.0,-2.0,0.0,3.0,6.0,1650846651582181.0
-4.0,-1.0,-6.0,1.0,0.0,-4.0,-2.0,-4.0,1650846651582181.0
1.0,6.0,-2.0,-4.0,-1.0,-2.0,0.0,1.0,1650846651583167.0
3.0,2.0,3.0,-2.0,0.0,1.0,2.0,-2.0,1650846651583167.0
0.0,-1.0,9.0,1.0,-2.0,1.0,0.0,-4.0,1650846651604083.0
-3.0,-3.0,-9.0,-3.0,-1.0,-1.0,0.0,1.0,1650846651604083.0
1.0,8.0,2.0,-3.0,-2.0,-3.0,-1.0,-3.0,1650846651606077.0
0.0,-3.0,-5.0,0.0,1.0,0.0,-2.0,1.0,1650846651606077.0
0.0,-5.0,-1.0,-1.0,-1.0,-1.0,-3.0,-12.0,1650846651618081.0
3.0,7.0,1.0,3.0,0.0,4.0,12.0,18.0,1650846651618081.0
0.0,-3.0,2.0,0.0,-2.0,0.0,1.0,2.0,1650846651627042.0
-4.0,-5.0,-3.0,-2.0,1.0,-1.0,-3.0,-8.0,1650846651627042.0
4.0,-4.0,3.0,1.0,1.0,2.0,0.0,1.0,1650846651642012.0
-10.0,-2.0,-3.0,-4.0,0.0,3.0,-1.0,-4.0,1650846651642012.0
0.0,2.0,-2.0,-1.0,-4.0,-4.0,-5.0,-6.0,1650846651642979.0
1.0,-24.0,-6.0,2.0,1.0,1.0,1.0,6.0,1650846651642979.0
1.0,19.0,3.0,2.0,1.0,0.0,2.0,0.0,1650846651663962.0
-5.0,-31.0,-15.0,-4.0,-3.0,-4.0,-8.0,-8.0,1650846651663962.0
2.0,4.0,1.0,2.0,1.0,-1.0,4.0,7.0,1650846651665917.0
-4.0,-1.0,1.0,1.0,-1.0,-1.0,-3.0,-4.0,1650846651665917.0
-1.0,0.0,-1.0,-3.0,-3.0,0.0,0.0,4.0,1650846651677886.0
-3.0,-16.0,-5.0,-3.0,-4.0,-3.0,-1.0,-2.0,1650846651677886.0
-1.0,-7.0,0.0,1.0,0.0,2.0,0.0,-4.0,1650846651686862.0
2.0,7.0,0.0,-1.0,0.0,-1.0,-1.0,0.0,1650846651686862.0
-2.0,-7.0,-5.0,-1.0,0.0,0.0,0.0,1.0,1650846651701864.0
1.0,-17.0,-3.0,1.0,2.0,1.0,0.0,-1.0,1650846651701864.0
1.0,1.0,1.0,-3.0,-4.0,-2.0,-2.0,-3.0,1650846651703851.0
4.0,18.0,4.0,2.0,1.0,1.0,0.0,3.0,1650846651703851.0
-3.0,-35.0,-8.0,-5.0,-3.0,-3.0,0.0,3.0,1650846651723780.0
-1.0,25.0,1.0,1.0,2.0,0.0,-2.0,-4.0,1650846651723780.0
-1.0,-2.0,-2.0,-3.0,-4.0,-5.0,-1.0,-3.0,1650846651731742.0
-1.0,3.0,0.0,4.0,1.0,0.0,0.0,0.0,1650846651731742.0
-3.0,-11.0,1.0,-2.0,0.0,1.0,-1.0,-1.0,1650846651737725.0
4.0,9.0,5.0,0.0,-2.0,-3.0,0.0,0.0,1650846651737725.0
7.0,14.0,-5.0,-1.0,-5.0,-4.0,-6.0,-8.0,1650846651746710.0
1.0,8.0,-9.0,-5.0,-2.0,-2.0,-2.0,2.0,1650846651746710.0
-2.0,4.0,5.0,-1.0,1.0,1.0,-1.0,0.0,1650846651761663.0
-5.0,-25.0,-1.0,9.0,3.0,1.0,-2.0,-2.0,1650846651761663.0
2.0,6.0,1.0,-1.0,-1.0,1.0,-1.0,3.0,1650846651763684.0
2.0,-1.0,6.0,1.0,-2.0,0.0,1.0,0.0,1650846651763684.0
1.0,6.0,-17.0,-9.0,-1.0,-1.0,-2.0,0.0,1650846651784601.0
1.0,5.0,5.0,-1.0,-1.0,-2.0,-1.0,-4.0,1650846651784601.0
-13.0,-16.0,-2.0,3.0,4.0,0.0,3.0,7.0,1650846651785598.0
4.0,-4.0,1.0,0.0,0.0,-1.0,0.0,-1.0,1650846651785598.0
0.0,-3.0,5.0,4.0,2.0,-1.0,-1.0,1.0,1650846651797632.0
0.0,19.0,-3.0,-3.0,-2.0,-2.0,1.0,-1.0,1650846651797632.0
0.0,-9.0,1.0,1.0,2.0,-1.0,1.0,0.0,1650846651806583.0
-1.0,2.0,-4.0,-7.0,-5.0,0.0,-2.0,1.0,1650846651806583.0
0.0,-6.0,-2.0,-9.0,-6.0,-2.0,-2.0,0.0,1650846651821529.0
-2.0,5.0,-4.0,-5.0,-16.0,-5.0,-3.0,-3.0,1650846651821529.0
1.0,17.0,16.0,33.0,34.0,9.0,0.0,0.0,1650846651823497.0
2.0,-19.0,-7.0,-10.0,-13.0,-7.0,-2.0,0.0,1650846651823497.0
-3.0,-1.0,14.0,28.0,27.0,9.0,5.0,0.0,1650846651844442.0
4.0,28.0,-9.0,-15.0,-7.0,-3.0,-2.0,0.0,1650846651844442.0
-7.0,-10.0,-7.0,-12.0,-14.0,-6.0,-2.0,0.0,1650846651846435.0
-1.0,-27.0,-3.0,-5.0,3.0,1.0,0.0,-2.0,1650846651846435.0
2.0,34.0,2.0,-7.0,-13.0,-2.0,-1.0,-1.0,1650846651858430.0
-3.0,-23.0,5.0,13.0,19.0,6.0,1.0,1.0,1650846651858430.0
1.0,11.0,1.0,-3.0,-5.0,-3.0,-3.0,-3.0,1650846651867380.0
-2.0,1.0,7.0,20.0,7.0,3.0,1.0,0.0,1650846651867380.0
1.0,2.0,2.0,-9.0,-2.0,-2.0,1.0,1.0,1650846651882339.0
-3.0,-4.0,0.0,9.0,10.0,2.0,0.0,-3.0,1650846651882339.0
-2.0,-41.0,-12.0,-13.0,-10.0,-3.0,0.0,-1.0,1650846651883340.0
6.0,52.0,5.0,-6.0,0.0,1.0,-1.0,0.0,1650846651883340.0
-6.0,-41.0,-10.0,3.0,-4.0,-4.0,-3.0,-1.0,1650846651904440.0
3.0,16.0,2.0,-1.0,-2.0,0.0,2.0,1.0,1650846651904440.0
-1.0,-13.0,-2.0,-4.0,-5.0,1.0,2.0,3.0,1650846651906392.0
-3.0,-10.0,-3.0,-5.0,-5.0,0.0,0.0,-2.0,1650846651906392.0
0.0,16.0,4.0,6.0,6.0,-1.0,0.0,0.0,1650846651918360.0
-2.0,-9.0,-7.0,-11.0,-7.0,-4.0,-2.0,0.0,1650846651918360.0
-3.0,7.0,-2.0,-11.0,-4.0,-2.0,1.0,-3.0,1650846651927366.0
0.0,-11.0,-3.0,4.0,2.0,-1.0,1.0,1.0,1650846651927366.0
2.0,12.0,4.0,-2.0,-3.0,0.0,-1.0,-2.0,1650846651942295.0
-6.0,-28.0,-12.0,-4.0,-7.0,-4.0,-3.0,-2.0,1650846651942295.0
0.0,4.0,3.0,6.0,4.0,1.0,2.0,-1.0,1650846651943301.0
-2.0,-17.0,-6.0,0.0,5.0,1.0,-1.0,-1.0,1650846651943301.0
1.0,7.0,3.0,-4.0,-3.0,-4.0,-2.0,1.0,1650846651972216.0
2.0,7.0,5.0,1.0,-1.0,2.0,1.0,2.0,1650846651972216.0
-2.0,-3.0,-1.0,-2.0,-7.0,-2.0,0.0,-1.0,1650846651973213.0
3.0,19.0,-1.0,-3.0,2.0,0.0,-1.0,0.0,1650846651973213.0
-1.0,-9.0,-1.0,8.0,-4.0,1.0,-1.0,-2.0,1650846651987175.0
0.0,6.0,1.0,-2.0,-3.0,-2.0,-2.0,-2.0,1650846651987175.0
2.0,2.0,-1.0,-3.0,3.0,3.0,-3.0,0.0,1650846651988173.0
-2.0,3.0,4.0,0.0,-5.0,-4.0,0.0,-2.0,1650846651988173.0
-2.0,1.0,-5.0,-3.0,-2.0,-2.0,1.0,-1.0,1650846652001761.0
4.0,17.0,4.0,0.0,0.0,0.0,2.0,1.0,1650846652001761.0
-1.0,-7.0,-2.0,2.0,-1.0,1.0,-2.0,-3.0,1650846652007745.0
-1.0,-2.0,-1.0,-3.0,-1.0,-1.0,-3.0,1.0,1650846652007745.0
-2.0,-7.0,1.0,-1.0,-1.0,-1.0,0.0,-1.0,1650846652024700.0
0.0,7.0,-1.0,1.0,-1.0,0.0,0.0,-1.0,1650846652024700.0
0.0,1.0,-1.0,-3.0,1.0,-2.0,0.0,1.0,1650846652025697.0
-3.0,7.0,2.0,1.0,-1.0,-2.0,0.0,-1.0,1650846652025697.0
-1.0,-3.0,-3.0,-1.0,1.0,1.0,-3.0,0.0,1650846652046641.0
0.0,-6.0,2.0,0.0,2.0,1.0,-1.0,1.0,1650846652046641.0
-1.0,-5.0,-1.0,3.0,-2.0,-3.0,-1.0,-2.0,1650846652048635.0
-1.0,6.0,-3.0,-6.0,-4.0,-3.0,-1.0,-1.0,1650846652048635.0
0.0,-8.0,-6.0,-12.0,-6.0,-2.0,-1.0,0.0,1650846652061601.0
-5.0,-2.0,3.0,21.0,7.0,2.0,0.0,-3.0,1650846652061601.0
0.0,3.0,-3.0,-3.0,-1.0,-1.0,0.0,1.0,1650846652063596.0
-2.0,-4.0,0.0,-7.0,-3.0,-1.0,-1.0,-2.0,1650846652063596.0
1.0,-1.0,0.0,4.0,-3.0,-1.0,1.0,-1.0,1650846652084553.0
1.0,1.0,-3.0,-8.0,-4.0,-2.0,-2.0,2.0,1650846652084553.0
2.0,1.0,4.0,15.0,9.0,3.0,1.0,1.0,1650846652085537.0
-2.0,4.0,1.0,-1.0,-2.0,2.0,0.0,0.0,1650846652085537.0
-2.0,0.0,-2.0,-2.0,2.0,0.0,0.0,0.0,1650846652106574.0
0.0,4.0,0.0,-4.0,-3.0,-1.0,3.0,0.0,1650846652106574.0
0.0,-2.0,-2.0,1.0,2.0,0.0,1.0,-2.0,1650846652108568.0
0.0,8.0,2.0,0.0,0.0,-1.0,-1.0,-2.0,1650846652108568.0
-1.0,-10.0,-2.0,1.0,-2.0,-1.0,2.0,1.0,1650846652121573.0
-1.0,-2.0,3.0,2.0,-2.0,-1.0,1.0,0.0,1650846652121573.0
3.0,17.0,-1.0,-10.0,-1.0,0.0,0.0,-1.0,1650846652127553.0
0.0,-6.0,-1.0,7.0,-1.0,0.0,1.0,0.0,1650846652127553.0
0.0,3.0,-1.0,-5.0,0.0,1.0,-1.0,-1.0,1650846652144472.0
1.0,-2.0,-2.0,-4.0,-2.0,-1.0,-3.0,-1.0,1650846652144472.0
0.0,0.0,-3.0,-2.0,-3.0,-3.0,-4.0,0.0,1650846652145471.0
0.0,-4.0,-1.0,1.0,1.0,0.0,0.0,-1.0,1650846652145471.0
0.0,3.0,1.0,0.0,1.0,0.0,1.0,1.0,1650846652167412.0
-1.0,-4.0,-4.0,-6.0,-2.0,-2.0,-2.0,-1.0,1650846652167412.0
-4.0,0.0,-1.0,-7.0,-3.0,-1.0,-1.0,-1.0,1650846652168410.0
1.0,-6.0,-4.0,-12.0,-6.0,-3.0,-2.0,0.0,1650846652168410.0
3.0,14.0,11.0,17.0,6.0,1.0,-4.0,-1.0,1650846652189386.0
0.0,-5.0,-5.0,-7.0,-4.0,-1.0,0.0,-2.0,1650846652189386.0
0.0,-5.0,-1.0,6.0,-1.0,1.0,1.0,2.0,1650846652191360.0
0.0,3.0,0.0,0.0,-4.0,-1.0,0.0,-1.0,1650846652191360.0
-3.0,-6.0,-4.0,-5.0,-1.0,1.0,1.0,1.0,1650846652204333.0
-2.0,-1.0,1.0,1.0,-1.0,-1.0,-2.0,0.0,1650846652204333.0
0.0,0.0,1.0,-1.0,-1.0,-2.0,0.0,0.0,1650846652206335.0
-2.0,-8.0,0.0,3.0,1.0,-1.0,1.0,-2.0,1650846652206335.0
1.0,0.0,-2.0,-1.0,2.0,-1.0,-1.0,2.0,1650846652226373.0
0.0,4.0,4.0,3.0,2.0,2.0,0.0,0.0,1650846652226373.0
-1.0,0.0,-2.0,-6.0,-3.0,-2.0,-2.0,-3.0,1650846652228374.0
-2.0,2.0,2.0,5.0,7.0,0.0,1.0,0.0,1650846652228374.0
0.0,-1.0,-1.0,-2.0,-8.0,-3.0,-2.0,-4.0,1650846652241332.0
-3.0,4.0,1.0,0.0,3.0,1.0,2.0,1.0,1650846652241332.0
-2.0,-4.0,-1.0,0.0,-1.0,-2.0,-1.0,2.0,1650846652248354.0
0.0,-3.0,-1.0,-1.0,0.0,0.0,-1.0,0.0,1650846652248354.0
-1.0,4.0,-1.0,0.0,1.0,-2.0,0.0,-2.0,1650846652264311.0
2.0,2.0,-3.0,-4.0,-5.0,-2.0,-1.0,-3.0,1650846652264311.0
-2.0,-21.0,-3.0,-3.0,-3.0,-1.0,0.0,-2.0,1650846652266294.0
-3.0,7.0,0.0,2.0,1.0,2.0,1.0,0.0,1650846652266294.0
-1.0,-6.0,1.0,7.0,4.0,1.0,1.0,0.0,1650846652287231.0
1.0,1.0,2.0,-3.0,-3.0,-3.0,-2.0,0.0,1650846652287231.0
0.0,-3.0,0.0,3.0,3.0,-2.0,0.0,-1.0,1650846652288208.0
-1.0,-5.0,-4.0,-4.0,0.0,0.0,-1.0,-1.0,1650846652288208.0
0.0,0.0,-3.0,-5.0,-6.0,0.0,0.0,-1.0,1650846652301212.0
1.0,-2.0,-1.0,-3.0,2.0,0.0,0.0,-1.0,1650846652301212.0
1.0,7.0,0.0,7.0,-4.0,0.0,1.0,-1.0,1650846652308182.0
1.0,12.0,5.0,6.0,9.0,3.0,0.0,0.0,1650846652308182.0
-5.0,-35.0,-9.0,-5.0,-6.0,-4.0,-3.0,-2.0,1650846652324133.0
0.0,5.0,2.0,-5.0,3.0,2.0,2.0,1.0,1650846652324133.0
0.0,15.0,3.0,-1.0,-2.0,-1.0,-1.0,-2.0,1650846652326127.0
1.0,-5.0,0.0,0.0,-5.0,-1.0,-1.0,-2.0,1650846652326127.0
-1.0,2.0,2.0,-1.0,2.0,3.0,-2.0,2.0,1650846652347050.0
1.0,9.0,1.0,1.0,1.0,-2.0,1.0,0.0,1650846652347050.0
-1.0,-6.0,-2.0,-1.0,3.0,2.0,-1.0,1.0,1650846652348083.0
-1.0,-1.0,1.0,2.0,-2.0,-2.0,-2.0,0.0,1650846652348083.0
0.0,15.0,-1.0,-3.0,0.0,0.0,1.0,-1.0,1650846652361034.0
-1.0,-12.0,-5.0,0.0,-2.0,-1.0,-1.0,-1.0,1650846652361034.0
1.0,5.0,1.0,-1.0,-2.0,1.0,0.0,0.0,1650846652368034.0
-1.0,-6.0,1.0,4.0,6.0,-1.0,0.0,0.0,1650846652368034.0
-2.0,-1.0,-2.0,-8.0,-7.0,-4.0,-1.0,1.0,1650846652383990.0
-3.0,-2.0,6.0,17.0,7.0,2.0,2.0,0.0,1650846652383990.0
-2.0,-6.0,-3.0,-3.0,-1.0,0.0,0.0,-1.0,1650846652385953.0
-3.0,-7.0,-2.0,-6.0,1.0,3.0,-2.0,1.0,1650846652385953.0
1.0,2.0,0.0,-1.0,1.0,0.0,0.0,1.0,1650846652406809.0
1.0,2.0,-3.0,-4.0,-4.0,-2.0,-2.0,-3.0,1650846652406809.0
0.0,0.0,2.0,4.0,-2.0,-4.0,-3.0,-2.0,1650846652408777.0
-1.0,-5.0,-5.0,-9.0,-5.0,-2.0,1.0,-2.0,1650846652408777.0
2.0,16.0,8.0,13.0,4.0,0.0,1.0,0.0,1650846652420747.0
-1.0,-2.0,-3.0,-4.0,2.0,0.0,-4.0,0.0,1650846652420747.0
2.0,-18.0,-5.0,-6.0,-2.0,0.0,-2.0,1.0,1650846652427754.0
1.0,7.0,0.0,-2.0,-1.0,-2.0,-3.0,-1.0,1650846652427754.0
0.0,-1.0,-2.0,-2.0,-3.0,-1.0,0.0,-2.0,1650846652444726.0
-1.0,-6.0,1.0,-2.0,-4.0,-1.0,-1.0,0.0,1650846652444726.0
-2.0,6.0,0.0,-2.0,-2.0,-4.0,-1.0,0.0,1650846652445731.0
1.0,-2.0,1.0,0.0,-1.0,0.0,1.0,-2.0,1650846652445731.0
-2.0,-7.0,0.0,1.0,3.0,1.0,-1.0,-2.0,1650846652466736.0
-2.0,5.0,0.0,0.0,-2.0,0.0,-1.0,0.0,1650846652466736.0
-1.0,-1.0,-1.0,0.0,1.0,1.0,0.0,1.0,1650846652468690.0
1.0,6.0,0.0,2.0,-4.0,-4.0,-1.0,1.0,1650846652468690.0
-1.0,0.0,0.0,-3.0,-3.0,-3.0,-2.0,-1.0,1650846652480631.0
0.0,-4.0,-2.0,-1.0,2.0,1.0,0.0,-1.0,1650846652480631.0
0.0,3.0,0.0,0.0,-1.0,1.0,1.0,-2.0,1650846652489617.0
0.0,-4.0,-3.0,0.0,-3.0,-2.0,1.0,0.0,1650846652489617.0
-1.0,0.0,-2.0,-1.0,2.0,-1.0,0.0,-1.0,1650846652504629.0
-2.0,-5.0,-2.0,-3.0,-5.0,-2.0,-2.0,-2.0,1650846652504629.0
0.0,6.0,1.0,-3.0,3.0,2.0,-1.0,-1.0,1650846652505626.0
-4.0,-1.0,1.0,1.0,-1.0,-3.0,0.0,0.0,1650846652505626.0
1.0,-2.0,-3.0,-2.0,0.0,1.0,-1.0,2.0,1650846652526717.0
-1.0,-4.0,-2.0,-2.0,1.0,1.0,1.0,0.0,1650846652526717.0
-2.0,-3.0,3.0,4.0,-3.0,-2.0,0.0,-3.0,1650846652528704.0
-1.0,-4.0,-2.0,7.0,0.0,0.0,-1.0,-3.0,1650846652528704.0
0.0,1.0,-3.0,-7.0,-2.0,-1.0,-1.0,0.0,1650846652540679.0
2.0,5.0,3.0,-1.0,-1.0,-3.0,-3.0,1.0,1650846652540679.0
0.0,-1.0,-5.0,-2.0,-2.0,0.0,-1.0,0.0,1650846652549628.0
2.0,-1.0,-1.0,-1.0,1.0,-1.0,0.0,2.0,1650846652549628.0
0.0,11.0,5.0,1.0,0.0,0.0,1.0,-2.0,1650846652564588.0
0.0,-24.0,-7.0,-1.0,0.0,-1.0,0.0,-1.0,1650846652564588.0
3.0,9.0,0.0,-2.0,1.0,-2.0,-1.0,0.0,1650846652565586.0
-1.0,-1.0,2.0,1.0,-2.0,1.0,0.0,0.0,1650846652565586.0
-2.0,0.0,1.0,-2.0,0.0,0.0,-2.0,-2.0,1650846652586556.0
1.0,4.0,-1.0,-3.0,-2.0,-2.0,-1.0,0.0,1650846652586556.0
-3.0,-1.0,2.0,4.0,1.0,-1.0,2.0,0.0,1650846652588525.0
2.0,-1.0,-3.0,0.0,3.0,1.0,0.0,1.0,1650846652588525.0
-2.0,-7.0,-4.0,-5.0,-3.0,-2.0,-1.0,-2.0,1650846652600556.0
-2.0,0.0,0.0,1.0,0.0,-2.0,2.0,-2.0,1650846652600556.0
-1.0,-4.0,-2.0,-2.0,-3.0,-1.0,1.0,-1.0,1650846652609469.0
-1.0,2.0,1.0,0.0,-1.0,-1.0,0.0,-1.0,1650846652609469.0
1.0,-2.0,-1.0,1.0,4.0,4.0,-1.0,2.0,1650846652624428.0
0.0,3.0,-1.0,-4.0,-3.0,-2.0,-1.0,-1.0,1650846652624428.0
-1.0,1.0,-2.0,-2.0,-2.0,-2.0,-1.0,-1.0,1650846652625426.0
-1.0,0.0,-2.0,-5.0,1.0,-3.0,-1.0,0.0,1650846652625426.0
0.0,-9.0,2.0,9.0,-1.0,-1.0,1.0,-1.0,1650846652646370.0
1.0,3.0,-2.0,-4.0,-2.0,-1.0,1.0,0.0,1650846652646370.0
0.0,1.0,1.0,0.0,0.0,1.0,1.0,-2.0,1650846652648364.0
1.0,1.0,4.0,-1.0,0.0,0.0,1.0,1.0,1650846652648364.0
-1.0,-1.0,-1.0,-4.0,-2.0,1.0,-2.0,0.0,1650846652660332.0
0.0,0.0,1.0,4.0,1.0,-2.0,0.0,2.0,1650846652660332.0
0.0,2.0,-1.0,1.0,-1.0,-1.0,1.0,0.0,1650846652669328.0
1.0,-4.0,-3.0,-3.0,-4.0,1.0,-2.0,0.0,1650846652669328.0
-2.0,0.0,-2.0,0.0,0.0,-3.0,0.0,0.0,1650846652684843.0
-1.0,4.0,1.0,0.0,0.0,2.0,0.0,0.0,1650846652684843.0
-1.0,-4.0,-2.0,-4.0,1.0,0.0,-1.0,0.0,1650846652685842.0
-1.0,-4.0,1.0,1.0,-2.0,0.0,0.0,-2.0,1650846652685842.0
0.0,0.0,-3.0,-1.0,-4.0,-5.0,0.0,-1.0,1650846652706811.0
3.0,1.0,2.0,3.0,2.0,3.0,0.0,0.0,1650846652706811.0
0.0,-4.0,1.0,0.0,6.0,2.0,-1.0,-2.0,1650846652708778.0
-1.0,-2.0,-3.0,1.0,-3.0,-1.0,0.0,-1.0,1650846652708778.0
0.0,-13.0,-4.0,-1.0,-2.0,-3.0,0.0,1.0,1650846652720746.0
-4.0,2.0,1.0,-2.0,-1.0,-1.0,-1.0,-2.0,1650846652720746.0
0.0,1.0,1.0,0.0,0.0,1.0,-1.0,-3.0,1650846652729724.0
-1.0,4.0,-2.0,-1.0,1.0,-2.0,-3.0,-3.0,1650846652729724.0
0.0,6.0,2.0,-4.0,-1.0,0.0,1.0,-1.0,1650846652743712.0
-3.0,-7.0,0.0,4.0,1.0,0.0,-1.0,-2.0,1650846652743712.0
-2.0,-6.0,-5.0,-2.0,-2.0,-2.0,-1.0,-1.0,1650846652744683.0
-1.0,8.0,2.0,-5.0,-3.0,-2.0,-2.0,0.0,1650846652744683.0
2.0,7.0,1.0,-1.0,0.0,-1.0,0.0,-1.0,1650846652766628.0
0.0,-7.0,-4.0,-2.0,-2.0,-2.0,0.0,0.0,1650846652766628.0
0.0,5.0,-1.0,-3.0,0.0,-1.0,0.0,2.0,1650846652766628.0
-1.0,-3.0,2.0,-1.0,0.0,0.0,2.0,0.0,1650846652766628.0
-3.0,3.0,-3.0,-6.0,-2.0,-2.0,-1.0,0.0,1650846652788592.0
-2.0,0.0,1.0,-1.0,1.0,-2.0,-1.0,2.0,1650846652788592.0
1.0,2.0,-2.0,-1.0,-3.0,0.0,-2.0,1.0,1650846652789562.0
-3.0,-1.0,-1.0,0.0,-1.0,-2.0,-1.0,-1.0,1650846652789562.0
0.0,-18.0,-5.0,3.0,2.0,1.0,-1.0,1.0,1650846652803524.0
1.0,12.0,3.0,0.0,0.0,2.0,0.0,-4.0,1650846652803524.0
-2.0,-9.0,-3.0,-1.0,0.0,-2.0,1.0,1.0,1650846652804529.0
0.0,4.0,2.0,3.0,-4.0,-2.0,-3.0,-1.0,1650846652804529.0
3.0,11.0,2.0,5.0,7.0,1.0,-1.0,0.0,1650846652826617.0
0.0,-9.0,-2.0,-1.0,-2.0,-2.0,-1.0,-1.0,1650846652826617.0
-1.0,-1.0,-1.0,0.0,1.0,0.0,-1.0,-1.0,1650846652826617.0
0.0,-5.0,0.0,0.0,1.0,0.0,0.0,-2.0,1650846652826617.0
-1.0,-4.0,-1.0,-3.0,-6.0,-2.0,0.0,-2.0,1650846652848559.0
0.0,0.0,-1.0,2.0,-1.0,-1.0,-2.0,2.0,1650846652848559.0
0.0,5.0,3.0,1.0,2.0,2.0,-1.0,-1.0,1650846652849567.0
-2.0,-6.0,-2.0,-1.0,1.0,0.0,-1.0,1.0,1650846652849567.0
0.0,-2.0,0.0,1.0,-3.0,-2.0,2.0,-3.0,1650846652863519.0
0.0,6.0,-1.0,-2.0,1.0,-2.0,-1.0,-1.0,1650846652863519.0
-3.0,-6.0,-2.0,-3.0,-3.0,-1.0,-3.0,-4.0,1650846652864516.0
4.0,23.0,7.0,0.0,3.0,2.0,0.0,2.0,1650846652864516.0
-1.0,-11.0,0.0,2.0,3.0,1.0,1.0,-1.0,1650846652886524.0
-2.0,5.0,-1.0,-2.0,-5.0,-2.0,2.0,-2.0,1650846652886524.0
2.0,-4.0,2.0,3.0,3.0,1.0,0.0,0.0,1650846652886524.0
-1.0,3.0,-2.0,-2.0,-1.0,0.0,1.0,-1.0,1650846652886524.0
-3.0,6.0,0.0,4.0,-1.0,1.0,-3.0,-1.0,1650846652908810.0
-2.0,-13.0,-2.0,-2.0,-3.0,2.0,0.0,1.0,1650846652908810.0
4.0,9.0,2.0,6.0,1.0,-2.0,0.0,-1.0,1650846652909807.0
-3.0,-14.0,-5.0,-6.0,-5.0,-3.0,0.0,0.0,1650846652909807.0
0.0,2.0,2.0,-1.0,1.0,0.0,0.0,-1.0,1650846652923797.0
1.0,4.0,2.0,-3.0,-1.0,0.0,-1.0,-1.0,1650846652923797.0
-1.0,11.0,-4.0,-4.0,-3.0,-3.0,-1.0,2.0,1650846652924768.0
-5.0,-14.0,-3.0,7.0,1.0,-4.0,-2.0,-3.0,1650846652924768.0
0.0,-2.0,-1.0,-5.0,-2.0,-1.0,0.0,1.0,1650846652945822.0
1.0,11.0,-1.0,1.0,-4.0,2.0,-2.0,-1.0,1650846652945822.0
1.0,1.0,1.0,1.0,-1.0,3.0,-1.0,1.0,1650846652946792.0
0.0,1.0,-2.0,0.0,-2.0,-2.0,-2.0,-1.0,1650846652946792.0
1.0,-9.0,-5.0,0.0,0.0,2.0,-1.0,0.0,1650846652968800.0
-2.0,-7.0,-1.0,-3.0,-1.0,-4.0,-1.0,-3.0,1650846652968800.0
-2.0,-3.0,1.0,5.0,3.0,0.0,0.0,-1.0,1650846652969731.0
0.0,-7.0,-3.0,1.0,0.0,1.0,-1.0,1.0,1650846652969731.0
2.0,5.0,-1.0,-4.0,-4.0,-3.0,-1.0,1.0,1650846652983760.0
0.0,-2.0,-1.0,-6.0,-1.0,0.0,-1.0,0.0,1650846652983760.0
-1.0,-10.0,-1.0,13.0,6.0,1.0,0.0,0.0,1650846652984691.0
0.0,6.0,1.0,-4.0,-1.0,0.0,1.0,0.0,1650846652984691.0
-1.0,15.0,1.0,0.0,-3.0,-2.0,0.0,-2.0,1650846653005661.0
2.0,-11.0,-2.0,2.0,1.0,3.0,1.0,-1.0,1650846653005661.0
-1.0,9.0,-1.0,-13.0,-8.0,-4.0,-2.0,-3.0,1650846653006639.0
-1.0,-7.0,3.0,12.0,9.0,3.0,-2.0,-2.0,1650846653006639.0
-1.0,18.0,0.0,-2.0,-2.0,-2.0,-2.0,-1.0,1650846653028600.0
0.0,-10.0,-5.0,1.0,-3.0,-3.0,-1.0,3.0,1650846653028600.0
0.0,-4.0,-2.0,-5.0,-4.0,-1.0,1.0,-2.0,1650846653029570.0
-2.0,-8.0,-5.0,-1.0,-2.0,0.0,1.0,0.0,1650846653029570.0
-3.0,-5.0,1.0,-4.0,2.0,0.0,0.0,-1.0,1650846653043560.0
1.0,16.0,1.0,4.0,6.0,0.0,1.0,-1.0,1650846653043560.0
-1.0,-8.0,-1.0,-4.0,-2.0,-2.0,1.0,1.0,1650846653044531.0
2.0,-2.0,-7.0,-5.0,-7.0,-1.0,0.0,-2.0,1650846653044531.0
-2.0,-1.0,1.0,2.0,-1.0,3.0,-1.0,-1.0,1650846653066473.0
-1.0,-2.0,1.0,-3.0,-2.0,-1.0,-1.0,1.0,1650846653066473.0
0.0,10.0,2.0,-2.0,-2.0,-3.0,-3.0,-1.0,1650846653066473.0
2.0,2.0,-3.0,-7.0,-4.0,-2.0,-1.0,-1.0,1650846653066473.0
-1.0,-7.0,-4.0,-2.0,1.0,-1.0,-3.0,0.0,1650846653088412.0
-2.0,-5.0,-1.0,3.0,-1.0,-1.0,-2.0,-1.0,1650846653088412.0
3.0,7.0,6.0,7.0,4.0,2.0,1.0,-1.0,1650846653089410.0
-3.0,1.0,-1.0,2.0,-3.0,-3.0,-1.0,-2.0,1650846653089410.0
1.0,-5.0,0.0,-5.0,-3.0,-3.0,-2.0,0.0,1650846653103380.0
-1.0,4.0,1.0,0.0,2.0,-1.0,0.0,0.0,1650846653103380.0
-1.0,-7.0,-7.0,-10.0,-3.0,-2.0,-2.0,0.0,1650846653111379.0
1.0,-2.0,2.0,-2.0,-2.0,-1.0,-2.0,-2.0,1650846653111379.0
1.0,-1.0,3.0,5.0,4.0,2.0,0.0,-2.0,1650846653126339.0
4.0,6.0,0.0,-5.0,-2.0,1.0,0.0,-1.0,1650846653126339.0
-3.0,-13.0,-3.0,1.0,-2.0,-1.0,-2.0,-2.0,1650846653127315.0
-1.0,2.0,1.0,0.0,4.0,2.0,2.0,1.0,1650846653127315.0
-5.0,-6.0,-4.0,-2.0,-2.0,-3.0,-1.0,-3.0,1650846653148254.0
0.0,-1.0,3.0,1.0,-3.0,-1.0,-1.0,-1.0,1650846653148254.0
-1.0,2.0,-1.0,-2.0,-3.0,0.0,0.0,2.0,1650846653149250.0
0.0,-9.0,-1.0,1.0,0.0,2.0,1.0,1.0,1650846653149250.0
1.0,-3.0,1.0,2.0,-1.0,0.0,1.0,0.0,1650846653163240.0
-1.0,-1.0,-3.0,2.0,5.0,2.0,1.0,-2.0,1650846653163240.0
-2.0,-14.0,-7.0,-9.0,-5.0,-2.0,0.0,-2.0,1650846653164210.0
-2.0,4.0,3.0,-1.0,-4.0,-1.0,0.0,-1.0,1650846653164210.0
2.0,5.0,1.0,4.0,3.0,2.0,1.0,2.0,1650846653186219.0
0.0,0.0,-2.0,3.0,2.0,1.0,-1.0,1.0,1650846653186219.0
-1.0,2.0,0.0,-1.0,-1.0,0.0,-1.0,0.0,1650846653187148.0
-1.0,1.0,-3.0,-6.0,-2.0,-2.0,1.0,-1.0,1650846653187148.0
0.0,-7.0,-4.0,-2.0,-4.0,1.0,1.0,-1.0,1650846653209090.0
-1.0,8.0,5.0,3.0,-2.0,-3.0,-1.0,-1.0,1650846653209090.0
-2.0,-2.0,1.0,4.0,5.0,2.0,3.0,-1.0,1650846653209090.0
0.0,-1.0,-2.0,1.0,-1.0,-4.0,-3.0,0.0,1650846653209090.0
1.0,4.0,1.0,0.0,-1.0,-1.0,-1.0,0.0,1650846653224061.0
-3.0,-6.0,-4.0,-3.0,-2.0,-1.0,-1.0,0.0,1650846653224061.0
-1.0,0.0,1.0,11.0,9.0,0.0,-3.0,-1.0,1650846653224061.0
1.0,3.0,1.0,-1.0,-1.0,0.0,2.0,-1.0,1650846653224061.0
-1.0,-1.0,-4.0,-3.0,-5.0,-5.0,-3.0,0.0,1650846653246019.0
-3.0,-2.0,-3.0,-3.0,0.0,2.0,0.0,-1.0,1650846653246019.0
3.0,1.0,0.0,-5.0,-3.0,0.0,-1.0,0.0,1650846653246989.0
-1.0,1.0,3.0,8.0,4.0,4.0,0.0,0.0,1650846653246989.0
-1.0,-2.0,-1.0,3.0,3.0,-2.0,0.0,-2.0,1650846653269081.0
1.0,1.0,-1.0,1.0,-3.0,1.0,-1.0,-1.0,1650846653269081.0
0.0,2.0,1.0,-2.0,0.0,-2.0,1.0,-1.0,1650846653269600.0
0.0,3.0,1.0,-1.0,1.0,1.0,0.0,0.0,1650846653269600.0
-1.0,-1.0,2.0,-2.0,-2.0,-2.0,0.0,2.0,1650846653283586.0
-2.0,-2.0,-3.0,1.0,0.0,-1.0,-1.0,-1.0,1650846653283586.0
-2.0,-4.0,2.0,2.0,2.0,3.0,0.0,-1.0,1650846653284562.0
1.0,-2.0,-5.0,-2.0,-4.0,-4.0,-2.0,0.0,1650846653284562.0
0.0,-3.0,0.0,2.0,1.0,1.0,0.0,1.0,1650846653306503.0
-1.0,-3.0,4.0,2.0,1.0,0.0,0.0,1.0,1650846653306503.0
1.0,4.0,-4.0,-5.0,-5.0,-2.0,0.0,-1.0,1650846653306503.0
-1.0,0.0,-1.0,1.0,4.0,2.0,-2.0,-1.0,1650846653306503.0
-2.0,0.0,-1.0,1.0,-1.0,1.0,-1.0,-3.0,1650846653328444.0
1.0,3.0,-1.0,-3.0,1.0,2.0,1.0,1.0,1650846653328444.0
-2.0,-6.0,-3.0,-2.0,-6.0,-10.0,-1.0,-1.0,1650846653329442.0
2.0,8.0,2.0,0.0,0.0,-5.0,-5.0,-1.0,1650846653329442.0
-1.0,1.0,0.0,-5.0,1.0,0.0,0.0,-1.0,1650846653343432.0
-3.0,-4.0,2.0,1.0,2.0,5.0,4.0,-2.0,1650846653343432.0
-4.0,-8.0,-6.0,-7.0,-3.0,-1.0,1.0,-1.0,1650846653344402.0
1.0,1.0,2.0,-3.0,-5.0,-5.0,0.0,2.0,1650846653344402.0
1.0,1.0,2.0,3.0,2.0,5.0,3.0,0.0,1650846653366356.0
-1.0,-3.0,2.0,1.0,-1.0,-3.0,1.0,3.0,1650846653366356.0
5.0,13.0,1.0,1.0,2.0,4.0,2.0,0.0,1650846653367341.0
-6.0,-9.0,1.0,7.0,5.0,3.0,-1.0,-3.0,1650846653367341.0
2.0,2.0,-9.0,-15.0,-8.0,-5.0,-6.0,-1.0,1650846653389281.0
-1.0,-4.0,5.0,3.0,1.0,0.0,-1.0,-1.0,1650846653389281.0
0.0,5.0,3.0,8.0,3.0,0.0,1.0,1.0,1650846653396293.0
-4.0,-4.0,-3.0,0.0,-1.0,0.0,-2.0,-2.0,1650846653396293.0
-3.0,-5.0,-3.0,-2.0,-1.0,-1.0,-1.0,1.0,1650846653403309.0
1.0,1.0,-6.0,-3.0,-2.0,-2.0,-3.0,1.0,1650846653403309.0
-3.0,-5.0,1.0,0.0,0.0,0.0,-3.0,1.0,1650846653404258.0
0.0,0.0,-1.0,-1.0,0.0,-2.0,0.0,0.0,1650846653404258.0
-1.0,-4.0,3.0,6.0,4.0,0.0,1.0,1.0,1650846653426210.0
0.0,5.0,-3.0,-4.0,-4.0,0.0,-4.0,-2.0,1650846653426210.0
-1.0,-2.0,2.0,-2.0,-4.0,-2.0,-4.0,0.0,1650846653427181.0
-2.0,-4.0,-2.0,-1.0,2.0,1.0,3.0,0.0,1650846653427181.0
1.0,0.0,2.0,6.0,2.0,7.0,3.0,0.0,1650846653448125.0
0.0,2.0,-6.0,-7.0,-4.0,-8.0,-2.0,1.0,1650846653448125.0
3.0,2.0,0.0,-4.0,0.0,-4.0,-4.0,-1.0,1650846653449136.0
-2.0,-1.0,1.0,5.0,-1.0,-3.0,-2.0,-2.0,1650846653449136.0
1.0,5.0,2.0,-2.0,-2.0,8.0,3.0,2.0,1650846653463114.0
-3.0,-4.0,-1.0,2.0,5.0,-5.0,-3.0,-4.0,1650846653463114.0
-3.0,-4.0,-10.0,-7.0,-8.0,4.0,-1.0,-1.0,1650846653471094.0
0.0,-2.0,-2.0,-2.0,1.0,-5.0,-3.0,-2.0,1650846653471094.0
3.0,6.0,-1.0,-1.0,-4.0,-7.0,-1.0,-1.0,1650846653486116.0
-4.0,-9.0,-1.0,-2.0,-1.0,3.0,0.0,-4.0,1650846653486116.0
2.0,4.0,2.0,2.0,3.0,7.0,10.0,3.0,1650846653487051.0
-1.0,0.0,-2.0,-3.0,-1.0,0.0,0.0,-1.0,1650846653487051.0
-1.0,0.0,0.0,4.0,0.0,-3.0,-4.0,-1.0,1650846653509033.0
4.0,7.0,-2.0,-4.0,-5.0,-3.0,-3.0,1.0,1650846653509033.0
-6.0,-7.0,0.0,8.0,6.0,-1.0,5.0,17.0,1650846653509033.0
5.0,7.0,-4.0,-5.0,-5.0,0.0,-19.0,-47.0,1650846653509033.0
-4.0,-9.0,-4.0,-10.0,-1.0,-3.0,2.0,5.0,1650846653522982.0
2.0,1.0,6.0,0.0,-5.0,-4.0,0.0,2.0,1650846653522982.0
2.0,2.0,-6.0,-4.0,-1.0,-5.0,-4.0,-4.0,1650846653530961.0
1.0,0.0,2.0,5.0,0.0,-9.0,-10.0,8.0,1650846653530961.0
-4.0,-5.0,-10.0,-1.0,6.0,30.0,29.0,2.0,1650846653545923.0
-1.0,-4.0,2.0,-4.0,-2.0,0.0,-4.0,-6.0,1650846653545923.0
-7.0,2.0,5.0,2.0,-1.0,6.0,-10.0,-8.0,1650846653546891.0
3.0,4.0,-2.0,0.0,0.0,-5.0,13.0,13.0,1650846653546891.0
0.0,-1.0,3.0,-2.0,-2.0,-8.0,-4.0,-4.0,1650846653569031.0
-6.0,-7.0,-7.0,-6.0,-5.0,-2.0,5.0,2.0,1650846653569031.0
4.0,8.0,3.0,7.0,4.0,-3.0,-2.0,-6.0,1650846653569238.0
-3.0,-7.0,-6.0,-10.0,2.0,10.0,0.0,5.0,1650846653569238.0
0.0,7.0,1.0,-5.0,-6.0,-7.0,-5.0,-2.0,1650846653583203.0
2.0,2.0,5.0,13.0,2.0,2.0,-2.0,-3.0,1650846653583203.0
8.0,9.0,3.0,-5.0,-4.0,-6.0,-2.0,3.0,1650846653591302.0
-5.0,-7.0,-2.0,4.0,2.0,4.0,6.0,0.0,1650846653591302.0
2.0,2.0,-4.0,-11.0,-4.0,-5.0,-4.0,0.0,1650846653606290.0
-2.0,-9.0,4.0,4.0,3.0,-6.0,-2.0,1.0,1650846653606290.0
2.0,0.0,-1.0,3.0,-2.0,7.0,-6.0,-15.0,1650846653607252.0
0.0,-3.0,9.0,14.0,3.0,0.0,10.0,25.0,1650846653607252.0
-13.0,-11.0,-17.0,-3.0,0.0,-4.0,-1.0,2.0,1650846653637212.0
2.0,1.0,-12.0,-10.0,-3.0,-6.0,-14.0,-32.0,1650846653637212.0
-4.0,-10.0,-2.0,2.0,2.0,-11.0,-4.0,2.0,1650846653637212.0
2.0,10.0,5.0,-3.0,-6.0,5.0,9.0,0.0,1650846653637212.0
1.0,-6.0,6.0,0.0,-2.0,-5.0,-8.0,5.0,1650846653643129.0
0.0,6.0,-1.0,0.0,1.0,-1.0,4.0,7.0,1650846653643129.0
-1.0,-6.0,-1.0,-1.0,-2.0,-1.0,-7.0,1.0,1650846653651113.0
1.0,-2.0,-4.0,-6.0,-2.0,0.0,3.0,-1.0,1650846653651113.0
4.0,2.0,2.0,2.0,-4.0,-10.0,-6.0,-3.0,1650846653666081.0
0.0,3.0,-2.0,-6.0,-2.0,5.0,5.0,3.0,1650846653666081.0
-1.0,-6.0,0.0,3.0,0.0,-1.0,1.0,-4.0,1650846653667065.0
1.0,5.0,13.0,12.0,3.0,5.0,-1.0,7.0,1650846653667065.0
0.0,-1.0,-18.0,-12.0,3.0,2.0,1.0,-6.0,1650846653689088.0
-3.0,-1.0,11.0,-7.0,-7.0,-6.0,-10.0,5.0,1650846653689088.0
0.0,-4.0,1.0,0.0,2.0,-5.0,11.0,3.0,1650846653689088.0
-1.0,4.0,-17.0,-12.0,-5.0,1.0,0.0,-6.0,1650846653689088.0
-3.0,-4.0,15.0,12.0,2.0,-4.0,-12.0,-4.0,1650846653703115.0
1.0,2.0,1.0,22.0,10.0,9.0,10.0,-1.0,1650846653703115.0
11.0,13.0,-11.0,-50.0,-19.0,-14.0,-9.0,19.0,1650846653711057.0
-8.0,-6.0,5.0,13.0,3.0,-3.0,-4.0,-10.0,1650846653711057.0
-1.0,-6.0,-1.0,5.0,3.0,-3.0,1.0,1.0,1650846653725841.0
-3.0,-7.0,-8.0,-1.0,-7.0,-8.0,-11.0,-15.0,1650846653725841.0
-1.0,2.0,-1.0,11.0,2.0,10.0,18.0,7.0,1650846653726811.0
-3.0,4.0,-7.0,-9.0,-5.0,-2.0,-3.0,-5.0,1650846653726811.0
2.0,-2.0,5.0,4.0,5.0,4.0,-8.0,-13.0,1650846653748752.0
0.0,5.0,5.0,1.0,3.0,-1.0,0.0,5.0,1650846653748752.0
-8.0,-9.0,2.0,1.0,0.0,1.0,2.0,-13.0,1650846653749764.0
2.0,8.0,-3.0,-9.0,-3.0,-5.0,-13.0,4.0,1650846653749764.0
-1.0,-9.0,-1.0,8.0,3.0,2.0,4.0,5.0,1650846653763248.0
1.0,8.0,-1.0,-2.0,0.0,2.0,6.0,7.0,1650846653763248.0
-1.0,-1.0,-4.0,-2.0,0.0,0.0,-13.0,-10.0,1650846653772243.0
-3.0,-8.0,6.0,1.0,-3.0,-2.0,11.0,-1.0,1650846653772243.0
0.0,2.0,-1.0,-10.0,-3.0,-1.0,-7.0,-3.0,1650846653786224.0
0.0,-3.0,3.0,7.0,3.0,1.0,5.0,9.0,1650846653786224.0
-4.0,-5.0,-7.0,1.0,-6.0,-3.0,-4.0,-1.0,1650846653787157.0
-2.0,-4.0,-4.0,-2.0,3.0,1.0,-7.0,-12.0,1650846653787157.0
0.0,5.0,7.0,10.0,0.0,1.0,8.0,13.0,1650846653808128.0
8.0,-1.0,-8.0,-9.0,-1.0,8.0,9.0,26.0,1650846653808128.0
-5.0,1.0,-6.0,-5.0,-3.0,-13.0,-25.0,-43.0,1650846653809098.0
2.0,-7.0,3.0,-1.0,0.0,18.0,19.0,14.0,1650846653809098.0
-8.0,5.0,9.0,14.0,-1.0,-8.0,-8.0,-13.0,1650846653832037.0
5.0,4.0,-14.0,-24.0,-7.0,-6.0,5.0,-2.0,1650846653832037.0
-4.0,-5.0,11.0,15.0,6.0,11.0,7.0,4.0,1650846653833041.0
3.0,0.0,-2.0,1.0,-3.0,-9.0,-9.0,2.0,1650846653833041.0
4.0,8.0,2.0,2.0,1.0,-1.0,7.0,0.0,1650846653845999.0
-4.0,-2.0,-8.0,-6.0,-1.0,5.0,-6.0,-9.0,1650846653845999.0
2.0,2.0,7.0,-5.0,-4.0,-5.0,8.0,13.0,1650846653846996.0
-2.0,-5.0,7.0,10.0,9.0,1.0,-4.0,-4.0,1650846653846996.0
3.0,9.0,-5.0,0.0,-1.0,2.0,-8.0,3.0,1650846653869079.0
-4.0,0.0,11.0,13.0,2.0,-1.0,3.0,-3.0,1650846653869079.0
-1.0,-8.0,-10.0,-9.0,-4.0,6.0,16.0,13.0,1650846653869478.0
7.0,0.0,-1.0,-3.0,4.0,-2.0,3.0,1.0,1650846653869478.0
-3.0,1.0,0.0,2.0,-3.0,1.0,6.0,-7.0,1650846653891450.0
5.0,-11.0,-8.0,-9.0,-1.0,6.0,-4.0,-1.0,1650846653891450.0
8.0,21.0,7.0,5.0,-1.0,2.0,-2.0,13.0,1650846653892418.0
-5.0,-10.0,-7.0,0.0,-3.0,-3.0,-4.0,-3.0,1650846653892418.0
2.0,-3.0,-1.0,-3.0,-2.0,-6.0,1.0,0.0,1650846653906409.0
-3.0,1.0,-2.0,-6.0,-2.0,1.0,-4.0,-4.0,1650846653906409.0
-4.0,-1.0,7.0,7.0,2.0,0.0,-3.0,-8.0,1650846653906409.0
3.0,13.0,2.0,-8.0,-4.0,1.0,12.0,22.0,1650846653906409.0
6.0,-9.0,-2.0,3.0,-1.0,2.0,-14.0,-22.0,1650846653928350.0
0.0,4.0,0.0,-14.0,-4.0,-2.0,5.0,7.0,1650846653928350.0
-3.0,-5.0,-3.0,10.0,2.0,-6.0,-9.0,-4.0,1650846653929319.0
3.0,-4.0,-9.0,-10.0,-4.0,-4.0,-8.0,-4.0,1650846653929319.0
-15.0,0.0,7.0,1.0,2.0,5.0,9.0,-6.0,1650846653952334.0
0.0,1.0,0.0,6.0,-2.0,-3.0,12.0,13.0,1650846653952334.0
-2.0,-9.0,0.0,8.0,11.0,-1.0,1.0,-2.0,1650846653952334.0
8.0,10.0,-6.0,-5.0,-6.0,9.0,-1.0,1.0,1650846653952334.0
0.0,13.0,9.0,-2.0,-3.0,-8.0,-12.0,0.0,1650846653966222.0
-8.0,-29.0,-11.0,-10.0,-5.0,-3.0,-9.0,-11.0,1650846653966222.0
6.0,4.0,1.0,23.0,6.0,2.0,8.0,8.0,1650846653967219.0
-6.0,-7.0,-7.0,-32.0,-9.0,-4.0,-5.0,-1.0,1650846653967219.0
2.0,-5.0,-10.0,-2.0,-2.0,-3.0,-2.0,-4.0,1650846653988229.0
-4.0,5.0,8.0,6.0,3.0,8.0,6.0,6.0,1650846653988229.0
-2.0,-4.0,0.0,1.0,0.0,-4.0,-8.0,-13.0,1650846653989159.0
-3.0,2.0,-3.0,1.0,-2.0,-4.0,-12.0,-13.0,1650846653989159.0
5.0,-14.0,-5.0,-7.0,-1.0,-1.0,19.0,15.0,1650846654011850.0
-1.0,10.0,15.0,14.0,4.0,-1.0,11.0,5.0,1650846654011850.0
-1.0,-1.0,-17.0,-25.0,-6.0,2.0,-4.0,-6.0,1650846654012839.0
-6.0,-3.0,5.0,11.0,0.0,1.0,1.0,-7.0,1650846654012839.0
1.0,2.0,3.0,-3.0,-4.0,-6.0,-15.0,8.0,1650846654025810.0
5.0,8.0,-7.0,1.0,1.0,2.0,-5.0,-17.0,1650846654025810.0
-4.0,-9.0,2.0,-1.0,-3.0,5.0,8.0,16.0,1650846654026781.0
-2.0,3.0,-1.0,3.0,-1.0,-4.0,-5.0,-13.0,1650846654026781.0
3.0,6.0,12.0,11.0,6.0,-3.0,-8.0,5.0,1650846654048721.0
6.0,-7.0,-11.0,-6.0,-4.0,2.0,17.0,24.0,1650846654048721.0
-9.0,1.0,5.0,5.0,5.0,3.0,5.0,-12.0,1650846654049720.0
3.0,7.0,3.0,2.0,6.0,1.0,10.0,13.0,1650846654049720.0
-8.0,-15.0,-17.0,-23.0,-7.0,-4.0,-13.0,-9.0,1650846654071660.0
8.0,16.0,18.0,17.0,6.0,1.0,-2.0,2.0,1650846654071660.0
6.0,-1.0,-6.0,-10.0,-10.0,-5.0,-7.0,0.0,1650846654072658.0
-3.0,2.0,9.0,20.0,6.0,1.0,3.0,0.0,1650846654072658.0
0.0,3.0,-8.0,-8.0,-1.0,3.0,8.0,6.0,1650846654086627.0
-7.0,-9.0,-8.0,5.0,2.0,-6.0,-16.0,-11.0,1650846654086627.0
-4.0,-10.0,-1.0,-10.0,-4.0,2.0,2.0,-4.0,1650846654086627.0
2.0,-5.0,2.0,6.0,1.0,-4.0,-11.0,-1.0,1650846654086627.0
-1.0,12.0,7.0,1.0,-2.0,3.0,11.0,2.0,1650846654108864.0
-1.0,-2.0,-3.0,0.0,2.0,1.0,-5.0,-6.0,1650846654108864.0
-2.0,-3.0,-2.0,5.0,-1.0,-9.0,-3.0,10.0,1650846654109835.0
7.0,-11.0,-5.0,0.0,0.0,-4.0,-6.0,4.0,1650846654109835.0
2.0,5.0,4.0,6.0,5.0,14.0,5.0,0.0,1650846654131795.0
-8.0,-1.0,-7.0,-25.0,-8.0,-8.0,-1.0,4.0,1650846654131795.0
4.0,8.0,7.0,0.0,-1.0,-1.0,-8.0,2.0,1650846654132799.0
-3.0,-5.0,-7.0,-4.0,1.0,6.0,5.0,1.0,1650846654132799.0
1.0,-7.0,1.0,5.0,-2.0,-4.0,-1.0,5.0,1650846654145786.0
-2.0,4.0,0.0,-5.0,-2.0,-1.0,5.0,-6.0,1650846654145786.0
-3.0,-3.0,-9.0,-2.0,0.0,6.0,-1.0,-4.0,1650846654146756.0
-1.0,4.0,10.0,9.0,-1.0,-4.0,-4.0,3.0,1650846654146756.0
-1.0,1.0,-4.0,-7.0,-5.0,1.0,-2.0,-8.0,1650846654169080.0
-4.0,-13.0,-2.0,3.0,1.0,1.0,-4.0,-5.0,1650846654169080.0
2.0,7.0,1.0,1.0,2.0,3.0,22.0,30.0,1650846654169782.0
0.0,3.0,8.0,2.0,-1.0,-1.0,-7.0,-15.0,1650846654169782.0
-2.0,-8.0,-13.0,-4.0,0.0,-2.0,4.0,9.0,1650846654191904.0
8.0,2.0,0.0,-11.0,-7.0,-9.0,-23.0,-18.0,1650846654191904.0
-5.0,8.0,4.0,4.0,-1.0,1.0,9.0,4.0,1650846654192903.0
0.0,-9.0,-7.0,-5.0,1.0,-5.0,7.0,4.0,1650846654192903.0
-4.0,5.0,0.0,13.0,5.0,8.0,0.0,-19.0,1650846654205868.0
5.0,-3.0,-9.0,-19.0,-11.0,-12.0,6.0,35.0,1650846654205868.0
-1.0,-3.0,7.0,11.0,2.0,8.0,-3.0,-17.0,1650846654206865.0
-2.0,8.0,0.0,-11.0,-6.0,-9.0,-10.0,-4.0,1650846654206865.0
4.0,-2.0,-3.0,-5.0,2.0,6.0,11.0,1.0,1650846654236852.0
-5.0,-5.0,-1.0,17.0,5.0,6.0,-4.0,-7.0,1650846654236852.0
8.0,-5.0,-2.0,-12.0,-1.0,-7.0,-7.0,2.0,1650846654237786.0
-12.0,2.0,5.0,7.0,-2.0,-7.0,2.0,-7.0,1650846654237786.0
2.0,-1.0,-1.0,1.0,-1.0,7.0,1.0,13.0,1650846654252296.0
4.0,7.0,7.0,3.0,1.0,-3.0,3.0,-9.0,1650846654252296.0
-9.0,-7.0,-10.0,-4.0,-4.0,-2.0,-6.0,-12.0,1650846654252296.0
3.0,-1.0,-4.0,-8.0,1.0,4.0,5.0,5.0,1650846654252296.0
1.0,-4.0,-7.0,-6.0,-6.0,-8.0,-5.0,-3.0,1650846654266261.0
-8.0,-1.0,7.0,12.0,1.0,3.0,1.0,0.0,1650846654266261.0
-10.0,5.0,2.0,2.0,2.0,3.0,-4.0,-17.0,1650846654267260.0
-7.0,-19.0,-11.0,-8.0,-2.0,-5.0,-1.0,-14.0,1650846654267260.0
15.0,13.0,20.0,11.0,-1.0,6.0,13.0,27.0,1650846654288349.0
-4.0,5.0,2.0,3.0,4.0,-1.0,-4.0,-5.0,1650846654288349.0
6.0,1.0,-14.0,-4.0,0.0,2.0,10.0,10.0,1650846654289321.0
2.0,2.0,5.0,-7.0,-3.0,0.0,-2.0,-5.0,1650846654289321.0
-7.0,-7.0,-3.0,2.0,3.0,2.0,-7.0,-4.0,1650846654312291.0
-5.0,-5.0,6.0,10.0,6.0,5.0,8.0,1.0,1650846654312291.0
9.0,9.0,-7.0,-14.0,-9.0,-10.0,-8.0,-10.0,1650846654312291.0
-6.0,-7.0,-1.0,3.0,1.0,2.0,-3.0,-14.0,1650846654312291.0
10.0,2.0,-3.0,-6.0,-2.0,-7.0,0.0,15.0,1650846654326247.0
-5.0,0.0,-4.0,5.0,2.0,6.0,7.0,13.0,1650846654326247.0
6.0,-1.0,17.0,4.0,-1.0,-2.0,-10.0,-7.0,1650846654327217.0
0.0,-4.0,-7.0,-1.0,3.0,-1.0,-1.0,3.0,1650846654327217.0
-4.0,-1.0,8.0,3.0,-1.0,-9.0,-4.0,-11.0,1650846654348839.0
1.0,-2.0,-7.0,-9.0,-3.0,-1.0,2.0,5.0,1650846654348839.0
0.0,0.0,-1.0,-1.0,-1.0,-2.0,-10.0,-2.0,1650846654349809.0
6.0,11.0,0.0,2.0,-1.0,5.0,14.0,9.0,1650846654349809.0
-3.0,-9.0,-4.0,-10.0,0.0,0.0,7.0,4.0,1650846654371819.0
4.0,4.0,-6.0,-3.0,-2.0,0.0,-6.0,-8.0,1650846654371819.0
-2.0,-9.0,4.0,2.0,3.0,1.0,2.0,2.0,1650846654372748.0
0.0,7.0,-4.0,2.0,-1.0,1.0,-5.0,2.0,1650846654372748.0
-5.0,4.0,-5.0,-6.0,-3.0,-5.0,-6.0,-7.0,1650846654385781.0
2.0,-18.0,1.0,3.0,-1.0,2.0,-2.0,-6.0,1650846654385781.0
1.0,0.0,-5.0,-5.0,-2.0,5.0,8.0,0.0,1650846654393719.0
0.0,3.0,1.0,8.0,7.0,1.0,5.0,11.0,1650846654393719.0
-1.0,1.0,-3.0,-2.0,0.0,1.0,-5.0,-1.0,1650846654408679.0
0.0,3.0,9.0,9.0,2.0,-2.0,-6.0,-11.0,1650846654408679.0
-8.0,-9.0,1.0,-4.0,-1.0,0.0,2.0,-4.0,1650846654409649.0
7.0,6.0,-1.0,-2.0,-4.0,2.0,4.0,21.0,1650846654409649.0
-7.0,-2.0,-5.0,-3.0,0.0,9.0,2.0,-15.0,1650846654430621.0
-3.0,1.0,-3.0,2.0,-3.0,-9.0,0.0,-4.0,1650846654430621.0
1.0,-4.0,-4.0,-3.0,1.0,-1.0,5.0,7.0,1650846654431596.0
-1.0,0.0,-2.0,-3.0,-2.0,1.0,-4.0,-4.0,1650846654431596.0
-2.0,-4.0,0.0,-5.0,-3.0,-1.0,-4.0,-4.0,1650846654446569.0
3.0,5.0,-2.0,3.0,1.0,0.0,1.0,4.0,1650846654446569.0
-1.0,8.0,6.0,0.0,-5.0,-5.0,0.0,1.0,1650846654453601.0
-2.0,-9.0,-6.0,-5.0,-2.0,0.0,-4.0,-8.0,1650846654453601.0
0.0,-3.0,3.0,6.0,4.0,-6.0,-2.0,4.0,1650846654469026.0
0.0,1.0,-3.0,-7.0,-3.0,1.0,0.0,-8.0,1650846654469026.0
-1.0,-2.0,-4.0,3.0,0.0,0.0,-3.0,1.0,1650846654469535.0
0.0,4.0,5.0,4.0,-3.0,0.0,-2.0,-2.0,1650846654469535.0
0.0,-5.0,-4.0,2.0,2.0,1.0,1.0,0.0,1650846654491599.0
3.0,9.0,7.0,-2.0,2.0,4.0,1.0,-5.0,1650846654491599.0
-1.0,-7.0,-11.0,-3.0,-1.0,-1.0,-3.0,-1.0,1650846654492597.0
-3.0,-7.0,1.0,9.0,2.0,0.0,3.0,5.0,1650846654492597.0
-3.0,3.0,5.0,-2.0,-3.0,-1.0,-1.0,-1.0,1650846654505632.0
0.0,-7.0,-3.0,4.0,0.0,-3.0,-5.0,-2.0,1650846654505632.0
1.0,14.0,1.0,-3.0,-1.0,-6.0,-1.0,1.0,1650846654513569.0
0.0,-6.0,-3.0,-2.0,0.0,4.0,3.0,0.0,1650846654513569.0
1.0,2.0,-3.0,-2.0,-1.0,-3.0,0.0,-1.0,1650846654528529.0
-3.0,-10.0,0.0,-2.0,0.0,-1.0,-6.0,-1.0,1650846654528529.0
2.0,-1.0,0.0,2.0,-1.0,0.0,0.0,0.0,1650846654529499.0
-1.0,1.0,-1.0,0.0,0.0,1.0,0.0,2.0,1650846654529499.0
-3.0,-11.0,-1.0,-3.0,2.0,2.0,-1.0,-2.0,1650846654551451.0
-1.0,12.0,-4.0,-2.0,-2.0,0.0,2.0,1.0,1650846654551451.0
-2.0,-5.0,4.0,4.0,1.0,3.0,3.0,1.0,1650846654552439.0
-1.0,0.0,2.0,-3.0,-2.0,-2.0,-1.0,-1.0,1650846654552439.0
0.0,3.0,6.0,3.0,-2.0,-3.0,0.0,1.0,1650846654565402.0
-2.0,-3.0,-7.0,-4.0,-3.0,0.0,0.0,-3.0,1650846654565402.0
0.0,3.0,5.0,1.0,3.0,2.0,1.0,0.0,1650846654573381.0
-1.0,0.0,-1.0,-2.0,-2.0,-1.0,0.0,-1.0,1650846654573381.0
2.0,3.0,4.0,3.0,-1.0,0.0,1.0,1.0,1650846654588345.0
-1.0,-1.0,5.0,-4.0,-1.0,0.0,-3.0,2.0,1650846654588345.0
-7.0,-3.0,-2.0,2.0,0.0,-1.0,1.0,-5.0,1650846654589338.0
2.0,-1.0,-1.0,-3.0,-1.0,-2.0,1.0,2.0,1650846654589338.0
1.0,12.0,5.0,3.0,-1.0,-1.0,-5.0,-6.0,1650846654612276.0
-5.0,-27.0,-9.0,-3.0,0.0,-1.0,-4.0,-1.0,1650846654612276.0
1.0,5.0,3.0,1.0,3.0,2.0,-1.0,3.0,1650846654612276.0
-4.0,2.0,-6.0,-1.0,0.0,-1.0,-1.0,-4.0,1650846654612276.0
2.0,8.0,-4.0,-4.0,-4.0,-4.0,1.0,-1.0,1650846654625242.0
2.0,10.0,4.0,4.0,0.0,0.0,0.0,0.0,1650846654625242.0
0.0,-13.0,7.0,0.0,-1.0,-2.0,-2.0,1.0,1650846654633220.0
-5.0,-10.0,2.0,-2.0,-2.0,-1.0,-3.0,-1.0,1650846654633220.0
1.0,2.0,-5.0,-4.0,-2.0,-1.0,0.0,0.0,1650846654648180.0
-4.0,4.0,11.0,2.0,-2.0,1.0,-2.0,0.0,1650846654648180.0
5.0,8.0,-12.0,-4.0,-1.0,0.0,2.0,2.0,1650846654649187.0
0.0,-1.0,4.0,2.0,-1.0,-1.0,2.0,0.0,1650846654649187.0
-3.0,2.0,3.0,5.0,1.0,-1.0,-3.0,-1.0,1650846654671123.0
1.0,-10.0,-6.0,-9.0,-3.0,-3.0,-3.0,-1.0,1650846654671123.0
-1.0,8.0,4.0,6.0,2.0,1.0,1.0,2.0,1650846654672117.0
-5.0,-1.0,-3.0,-4.0,1.0,-1.0,0.0,-5.0,1650846654672117.0
1.0,0.0,-9.0,-3.0,-2.0,-1.0,0.0,2.0,1650846654685083.0
0.0,4.0,5.0,3.0,2.0,1.0,3.0,0.0,1650846654685083.0
-3.0,-5.0,-4.0,1.0,0.0,1.0,0.0,2.0,1650846654693060.0
2.0,3.0,3.0,-8.0,-3.0,-1.0,-2.0,2.0,1650846654693060.0
-7.0,-18.0,-20.0,-5.0,-1.0,-1.0,1.0,1.0,1650846654709027.0
3.0,12.0,17.0,3.0,0.0,-4.0,1.0,-1.0,1650846654709027.0
-1.0,-5.0,-1.0,10.0,4.0,3.0,-1.0,2.0,1650846654709027.0
-1.0,3.0,9.0,-2.0,-4.0,-3.0,0.0,-2.0,1650846654709027.0
-2.0,-6.0,-9.0,-9.0,-3.0,1.0,1.0,-1.0,1650846654731957.0
-1.0,1.0,-8.0,-3.0,1.0,0.0,-1.0,2.0,1650846654731957.0
6.0,-1.0,4.0,-10.0,-2.0,-3.0,-1.0,-2.0,1650846654732954.0
-4.0,3.0,0.0,6.0,0.0,1.0,-1.0,4.0,1650846654732954.0
2.0,-1.0,3.0,3.0,0.0,0.0,1.0,5.0,1650846654745919.0
-4.0,-9.0,-9.0,-3.0,-2.0,1.0,1.0,-4.0,1650846654745919.0
1.0,14.0,4.0,3.0,2.0,0.0,2.0,0.0,1650846654753901.0
5.0,-13.0,-12.0,-3.0,1.0,0.0,1.0,3.0,1650846654753901.0
2.0,-3.0,-3.0,0.0,-2.0,-1.0,-2.0,0.0,1650846654768859.0
2.0,1.0,-2.0,2.0,-1.0,1.0,1.0,2.0,1650846654768859.0
-4.0,-6.0,-4.0,-6.0,-4.0,-1.0,-1.0,-5.0,1650846654769856.0
2.0,2.0,-1.0,-1.0,0.0,-1.0,0.0,0.0,1650846654769856.0
-3.0,5.0,7.0,2.0,2.0,0.0,-3.0,-5.0,1650846654790799.0
2.0,-1.0,0.0,-1.0,-1.0,-3.0,-3.0,0.0,1650846654790799.0
-2.0,-6.0,-5.0,0.0,-4.0,-1.0,0.0,0.0,1650846654791798.0
1.0,4.0,-1.0,0.0,2.0,3.0,1.0,-2.0,1650846654791798.0
0.0,-5.0,5.0,0.0,4.0,1.0,-1.0,-2.0,1650846654813847.0
-2.0,5.0,-4.0,-3.0,1.0,-1.0,0.0,-2.0,1650846654813847.0
-1.0,-5.0,-2.0,-1.0,-4.0,-4.0,0.0,2.0,1650846654814814.0
-1.0,0.0,0.0,1.0,2.0,0.0,-2.0,-3.0,1650846654814814.0
-2.0,1.0,3.0,1.0,0.0,0.0,-1.0,-1.0,1650846654828776.0
1.0,-2.0,-3.0,-4.0,-3.0,-2.0,-2.0,-1.0,1650846654828776.0
-1.0,1.0,0.0,0.0,-1.0,0.0,-2.0,-1.0,1650846654829774.0
3.0,-1.0,0.0,2.0,-1.0,-1.0,0.0,0.0,1650846654829774.0
-2.0,-4.0,-1.0,-2.0,0.0,-2.0,0.0,-3.0,1650846654850718.0
-2.0,1.0,-2.0,-2.0,-2.0,0.0,1.0,0.0,1650846654850718.0
-1.0,-1.0,-1.0,0.0,0.0,-1.0,-1.0,-2.0,1650846654851716.0
1.0,3.0,0.0,-2.0,0.0,2.0,-2.0,-1.0,1650846654851716.0
0.0,0.0,0.0,-2.0,-2.0,-2.0,-2.0,1.0,1650846654874776.0
-2.0,-4.0,-3.0,0.0,0.0,-1.0,-1.0,-3.0,1650846654874776.0
-1.0,0.0,0.0,-5.0,-2.0,1.0,0.0,1.0,1650846654874776.0
-1.0,-6.0,-1.0,9.0,4.0,-1.0,0.0,-3.0,1650846654874776.0
2.0,6.0,0.0,-2.0,-1.0,-3.0,-3.0,-1.0,1650846654888846.0
2.0,4.0,3.0,4.0,-1.0,0.0,2.0,0.0,1650846654888846.0
-1.0,0.0,-3.0,2.0,2.0,3.0,0.0,-2.0,1650846654889846.0
-2.0,-6.0,-4.0,-3.0,-2.0,-2.0,-1.0,0.0,1650846654889846.0
0.0,0.0,0.0,-3.0,-1.0,-1.0,3.0,0.0,1650846654910817.0
0.0,3.0,-2.0,-1.0,-3.0,0.0,-2.0,1.0,1650846654910817.0
1.0,0.0,-2.0,-4.0,1.0,-2.0,0.0,0.0,1650846654911787.0
0.0,0.0,1.0,-1.0,4.0,1.0,1.0,-1.0,1650846654911787.0
1.0,-12.0,2.0,0.0,2.0,3.0,0.0,1.0,1650846654934726.0
-1.0,14.0,2.0,-3.0,-3.0,-3.0,-1.0,0.0,1650846654934726.0
1.0,4.0,0.0,1.0,0.0,-1.0,-1.0,-2.0,1650846654934726.0
-1.0,-1.0,1.0,1.0,0.0,-1.0,-2.0,0.0,1650846654934726.0
3.0,8.0,4.0,1.0,-2.0,-1.0,-2.0,-1.0,1650846654948716.0
-2.0,-22.0,-8.0,1.0,4.0,1.0,0.0,1.0,1650846654948716.0
-5.0,-24.0,-10.0,-3.0,-2.0,0.0,-1.0,1.0,1650846654949706.0
5.0,4.0,0.0,-4.0,-3.0,1.0,2.0,2.0,1650846654949706.0
-1.0,14.0,2.0,-2.0,-4.0,-1.0,0.0,-4.0,1650846654971637.0
-3.0,-16.0,-1.0,4.0,4.0,1.0,0.0,-1.0,1650846654971637.0
3.0,24.0,2.0,-2.0,-5.0,-4.0,-3.0,-3.0,1650846654971637.0
3.0,-5.0,-3.0,1.0,-1.0,-4.0,4.0,1.0,1650846654971637.0
-5.0,-33.0,-2.0,2.0,3.0,0.0,-3.0,-1.0,1650846654994566.0
5.0,40.0,-2.0,-2.0,-3.0,0.0,3.0,6.0,1650846654994566.0
-3.0,-39.0,-8.0,3.0,4.0,1.0,0.0,-4.0,1650846654995562.0
-2.0,2.0,1.0,-2.0,-3.0,3.0,0.0,1.0,1650846654995562.0
-3.0,-23.0,-11.0,-20.0,-6.0,-3.0,0.0,-1.0,1650846655008556.0
5.0,17.0,9.0,10.0,-5.0,0.0,-1.0,-3.0,1650846655008556.0
4.0,8.0,3.0,-6.0,7.0,2.0,0.0,5.0,1650846655009526.0
-2.0,6.0,4.0,5.0,0.0,0.0,-2.0,-4.0,1650846655009526.0
-2.0,-7.0,-9.0,-11.0,-12.0,-3.0,1.0,3.0,1650846655031491.0
-4.0,5.0,-7.0,-27.0,-14.0,-5.0,-4.0,-2.0,1650846655031491.0
0.0,-28.0,-2.0,16.0,5.0,1.0,-1.0,1.0,1650846655031491.0
-1.0,-9.0,-5.0,-8.0,-5.0,-2.0,-4.0,-2.0,1650846655031491.0
2.0,24.0,6.0,2.0,2.0,0.0,-1.0,1.0,1650846655054422.0
-1.0,-10.0,-5.0,-7.0,-3.0,-3.0,-3.0,-4.0,1650846655054422.0
0.0,34.0,5.0,-9.0,-5.0,-3.0,2.0,0.0,1650846655055430.0
-5.0,-30.0,2.0,26.0,12.0,2.0,0.0,-2.0,1650846655055430.0
0.0,3.0,4.0,12.0,3.0,2.0,-2.0,-2.0,1650846655068369.0
-1.0,-19.0,2.0,2.0,6.0,4.0,0.0,-2.0,1650846655068369.0
-3.0,11.0,-2.0,0.0,0.0,-1.0,-5.0,-5.0,1650846655069366.0
0.0,9.0,-4.0,-11.0,-7.0,-2.0,-2.0,1.0,1650846655069366.0
-5.0,12.0,6.0,6.0,3.0,1.0,0.0,-2.0,1650846655091334.0
4.0,-20.0,1.0,10.0,4.0,0.0,3.0,0.0,1650846655091334.0
-2.0,11.0,-2.0,-7.0,-3.0,-2.0,2.0,3.0,1650846655092305.0
-1.0,-1.0,-4.0,-6.0,-4.0,-2.0,-1.0,-2.0,1650846655092305.0
-1.0,0.0,1.0,4.0,1.0,-1.0,0.0,0.0,1650846655114273.0
-2.0,16.0,-2.0,-1.0,5.0,1.0,-1.0,-1.0,1650846655114273.0
1.0,-10.0,0.0,0.0,-3.0,-1.0,1.0,3.0,1650846655115244.0
2.0,28.0,3.0,-5.0,-4.0,-4.0,-2.0,0.0,1650846655115244.0
-1.0,-23.0,-2.0,1.0,3.0,3.0,2.0,1.0,1650846655128235.0
-1.0,5.0,1.0,3.0,3.0,2.0,-2.0,0.0,1650846655128235.0
0.0,3.0,2.0,-3.0,-7.0,-1.0,0.0,-1.0,1650846655129206.0
-2.0,-4.0,-2.0,-1.0,1.0,3.0,1.0,-2.0,1650846655129206.0
1.0,0.0,-6.0,-8.0,-3.0,-4.0,0.0,-3.0,1650846655151167.0
-3.0,-5.0,-4.0,-2.0,-10.0,-4.0,-3.0,3.0,1650846655151167.0
1.0,8.0,8.0,14.0,10.0,6.0,1.0,-1.0,1650846655152157.0
-1.0,-5.0,-3.0,-10.0,-9.0,-4.0,-2.0,0.0,1650846655152157.0
-1.0,0.0,-3.0,4.0,1.0,0.0,0.0,1.0,1650846655174153.0
1.0,-3.0,-4.0,-10.0,-2.0,-2.0,-2.0,-3.0,1650846655174153.0
-4.0,-9.0,-3.0,4.0,-4.0,-3.0,-4.0,-7.0,1650846655175083.0
0.0,9.0,1.0,-1.0,0.0,1.0,1.0,1.0,1650846655175083.0
-2.0,-37.0,0.0,2.0,4.0,2.0,1.0,2.0,1650846655189077.0
6.0,34.0,4.0,3.0,2.0,-2.0,2.0,2.0,1650846655189077.0
-3.0,-8.0,-4.0,-11.0,-5.0,-3.0,-1.0,0.0,1650846655189077.0
0.0,-17.0,-2.0,10.0,4.0,1.0,-2.0,-1.0,1650846655189077.0
-2.0,-2.0,0.0,0.0,-3.0,1.0,0.0,-1.0,1650846655211143.0
0.0,8.0,-1.0,-5.0,0.0,-1.0,0.0,-1.0,1650846655211143.0
-2.0,-3.0,-1.0,0.0,0.0,0.0,0.0,0.0,1650846655212113.0
-2.0,-3.0,-1.0,-8.0,-2.0,1.0,0.0,2.0,1650846655212113.0
3.0,18.0,1.0,0.0,-4.0,-2.0,-1.0,1.0,1650846655234081.0
-3.0,-21.0,0.0,7.0,10.0,1.0,-2.0,0.0,1650846655234081.0
0.0,6.0,-3.0,-6.0,-5.0,-4.0,-1.0,0.0,1650846655235057.0
0.0,4.0,-2.0,-9.0,-6.0,-6.0,-1.0,1.0,1650846655235057.0
1.0,7.0,3.0,2.0,2.0,2.0,-1.0,2.0,1650846655249040.0
1.0,-6.0,0.0,1.0,-1.0,1.0,-1.0,-2.0,1650846655249040.0
0.0,-8.0,3.0,4.0,-1.0,2.0,1.0,-1.0,1650846655249040.0
-1.0,8.0,2.0,-1.0,0.0,-3.0,0.0,-2.0,1650846655249040.0
-1.0,8.0,-1.0,3.0,0.0,-2.0,-2.0,-1.0,1650846655271022.0
-2.0,-1.0,-1.0,-2.0,0.0,0.0,-1.0,0.0,1650846655271022.0
-2.0,-12.0,-1.0,-7.0,-3.0,-1.0,0.0,0.0,1650846655271959.0
-1.0,-7.0,0.0,4.0,-1.0,0.0,-1.0,1.0,1650846655271959.0
0.0,9.0,1.0,-1.0,1.0,-2.0,-3.0,-1.0,1650846655294035.0
-4.0,-22.0,-2.0,1.0,2.0,1.0,1.0,1.0,1650846655294035.0
3.0,17.0,0.0,-4.0,0.0,-1.0,0.0,-1.0,1650846655295005.0
-2.0,-5.0,1.0,6.0,2.0,-1.0,0.0,0.0,1650846655295005.0
-1.0,-11.0,-4.0,-5.0,-2.0,-1.0,1.0,-1.0,1650846655308967.0
0.0,12.0,4.0,12.0,-1.0,0.0,0.0,0.0,1650846655308967.0
0.0,-11.0,-3.0,-2.0,-2.0,-2.0,-1.0,-2.0,1650846655308967.0
1.0,7.0,0.0,-2.0,3.0,-1.0,1.0,-4.0,1650846655308967.0
1.0,5.0,1.0,-1.0,-3.0,0.0,1.0,1.0,1650846655330937.0
-1.0,-9.0,-3.0,-3.0,-4.0,0.0,0.0,0.0,1650846655330937.0
1.0,11.0,2.0,0.0,0.0,0.0,0.0,0.0,1650846655338957.0
-1.0,1.0,3.0,7.0,5.0,2.0,0.0,1.0,1650846655338957.0
0.0,8.0,1.0,0.0,5.0,2.0,0.0,-3.0,1650846655353914.0
0.0,-9.0,-2.0,-3.0,-4.0,-2.0,0.0,-1.0,1650846655353914.0
1.0,0.0,-2.0,-1.0,0.0,2.0,-1.0,0.0,1650846655354862.0
0.0,18.0,4.0,5.0,0.0,1.0,-2.0,0.0,1650846655354862.0
-1.0,-47.0,-12.0,-2.0,-2.0,-5.0,-1.0,0.0,1650846655367842.0
1.0,8.0,4.0,0.0,-2.0,0.0,0.0,-1.0,1650846655367842.0
-1.0,1.0,1.0,1.0,3.0,2.0,1.0,0.0,1650846655375788.0
-1.0,-8.0,-6.0,-4.0,-3.0,-1.0,-1.0,-1.0,1650846655375788.0
1.0,23.0,3.0,1.0,-1.0,-2.0,-1.0,-1.0,1650846655390859.0
-3.0,-8.0,-3.0,-4.0,-1.0,-2.0,-2.0,-1.0,1650846655390859.0
-1.0,-9.0,-3.0,-2.0,-4.0,-3.0,-2.0,-1.0,1650846655391829.0
-1.0,-1.0,-2.0,0.0,4.0,-1.0,0.0,-3.0,1650846655391829.0
-1.0,3.0,1.0,-2.0,-1.0,-1.0,-2.0,-1.0,1650846655414768.0
-1.0,19.0,-1.0,-2.0,2.0,-1.0,-1.0,-1.0,1650846655414768.0
-2.0,7.0,3.0,8.0,2.0,-2.0,-2.0,-2.0,1650846655414768.0
-1.0,-10.0,-5.0,-5.0,-1.0,-2.0,0.0,1.0,1650846655414768.0
0.0,3.0,1.0,-1.0,-4.0,1.0,-1.0,1.0,1650846655427761.0
-2.0,-4.0,-4.0,-3.0,-3.0,0.0,0.0,-1.0,1650846655427761.0
-1.0,-16.0,-4.0,-1.0,-2.0,-1.0,-1.0,0.0,1650846655435715.0
3.0,10.0,1.0,-3.0,-5.0,-2.0,2.0,2.0,1650846655435715.0
-3.0,-1.0,0.0,-2.0,1.0,-3.0,-1.0,-1.0,1650846655450672.0
1.0,5.0,5.0,2.0,0.0,-1.0,0.0,1.0,1650846655450672.0
-5.0,-31.0,-8.0,1.0,5.0,1.0,-1.0,0.0,1650846655451669.0
3.0,13.0,0.0,-4.0,-3.0,1.0,-1.0,-2.0,1650846655451669.0
0.0,-13.0,-3.0,0.0,-3.0,-1.0,1.0,-1.0,1650846655474366.0
-3.0,0.0,1.0,4.0,3.0,1.0,-1.0,0.0,1650846655474366.0
3.0,6.0,0.0,0.0,-1.0,2.0,-1.0,0.0,1650846655475323.0
-1.0,-4.0,2.0,-2.0,-1.0,2.0,-1.0,1.0,1650846655475323.0
0.0,6.0,-1.0,0.0,1.0,-1.0,0.0,-2.0,1650846655488330.0
0.0,-8.0,1.0,7.0,2.0,-3.0,-3.0,-1.0,1650846655488330.0
0.0,-13.0,-1.0,-4.0,-4.0,-1.0,-1.0,2.0,1650846655496239.0
-3.0,1.0,-4.0,-4.0,-1.0,1.0,0.0,0.0,1650846655496239.0
0.0,11.0,4.0,4.0,0.0,-2.0,1.0,-1.0,1650846655511382.0
-1.0,-11.0,-4.0,-5.0,-3.0,-1.0,2.0,-1.0,1650846655511382.0
-1.0,4.0,-1.0,2.0,3.0,-1.0,-1.0,1.0,1650846655511382.0
-1.0,-6.0,0.0,-1.0,-2.0,0.0,1.0,-1.0,1650846655511382.0
1.0,12.0,0.0,-3.0,-1.0,1.0,-1.0,1.0,1650846655534320.0
-1.0,-13.0,1.0,5.0,4.0,-1.0,0.0,1.0,1650846655534320.0
1.0,30.0,5.0,1.0,-2.0,-2.0,-1.0,0.0,1650846655535291.0
-2.0,-21.0,-5.0,-4.0,-3.0,-4.0,-1.0,-1.0,1650846655535291.0
2.0,9.0,-1.0,3.0,3.0,2.0,0.0,3.0,1650846655548283.0
-2.0,-5.0,-5.0,-2.0,-2.0,-1.0,1.0,-4.0,1650846655548283.0
3.0,13.0,3.0,2.0,0.0,1.0,0.0,-1.0,1650846655556302.0
-1.0,-4.0,-3.0,-1.0,-2.0,-4.0,-2.0,-2.0,1650846655556302.0
-3.0,-25.0,-5.0,1.0,-2.0,-1.0,0.0,0.0,1650846655571195.0
1.0,4.0,0.0,-8.0,-4.0,0.0,0.0,2.0,1650846655571195.0
-1.0,-2.0,0.0,-5.0,-4.0,-2.0,-2.0,0.0,1650846655572192.0
0.0,1.0,-1.0,1.0,-3.0,-1.0,-1.0,-1.0,1650846655572192.0
-1.0,1.0,1.0,3.0,3.0,2.0,1.0,0.0,1650846655594274.0
1.0,-2.0,0.0,-2.0,1.0,-1.0,-2.0,0.0,1650846655594274.0
-1.0,0.0,-2.0,-3.0,-2.0,-4.0,-1.0,1.0,1650846655595244.0
-3.0,-10.0,0.0,2.0,-1.0,0.0,0.0,1.0,1650846655595244.0
3.0,27.0,6.0,3.0,0.0,1.0,1.0,-2.0,1650846655608210.0
-3.0,-7.0,-5.0,-5.0,-1.0,-1.0,0.0,0.0,1650846655608210.0
1.0,12.0,4.0,1.0,0.0,0.0,0.0,-1.0,1650846655616187.0
-2.0,-9.0,-3.0,0.0,0.0,-1.0,-1.0,0.0,1650846655616187.0
-1.0,2.0,2.0,-1.0,1.0,0.0,-4.0,-1.0,1650846655631147.0
1.0,1.0,2.0,2.0,1.0,0.0,-1.0,0.0,1650846655631147.0
-2.0,-4.0,-3.0,-1.0,-1.0,2.0,1.0,-3.0,1650846655632166.0
2.0,6.0,-1.0,-1.0,0.0,1.0,-2.0,0.0,1650846655632166.0
-1.0,-5.0,1.0,-3.0,-2.0,-2.0,0.0,0.0,1650846655654099.0
0.0,-1.0,3.0,0.0,-2.0,-1.0,0.0,0.0,1650846655654099.0
-1.0,-2.0,-3.0,-2.0,0.0,1.0,0.0,0.0,1650846655655085.0
1.0,8.0,2.0,1.0,1.0,1.0,0.0,-1.0,1650846655655085.0
-2.0,-27.0,-10.0,-4.0,0.0,0.0,0.0,0.0,1650846655668049.0
2.0,11.0,6.0,-1.0,-1.0,-1.0,0.0,-1.0,1650846655668049.0
-1.0,-9.0,-6.0,3.0,1.0,3.0,3.0,-1.0,1650846655676028.0
2.0,5.0,-5.0,1.0,-1.0,-3.0,0.0,0.0,1650846655676028.0
-1.0,-2.0,8.0,2.0,-1.0,1.0,-3.0,0.0,1650846655690880.0
0.0,1.0,2.0,0.0,2.0,-1.0,0.0,-2.0,1650846655690880.0
0.0,-3.0,-3.0,-2.0,-3.0,0.0,-1.0,-2.0,1650846655691822.0
-3.0,1.0,0.0,0.0,2.0,4.0,-1.0,-2.0,1650846655691822.0
-1.0,6.0,-3.0,0.0,1.0,-2.0,2.0,-1.0,1650846655713797.0
0.0,-6.0,-6.0,-2.0,-3.0,1.0,-1.0,3.0,1650846655713797.0
0.0,-1.0,5.0,3.0,1.0,-4.0,-2.0,0.0,1650846655714760.0
-2.0,1.0,-1.0,-1.0,1.0,-1.0,1.0,0.0,1650846655714760.0
-1.0,-8.0,-1.0,1.0,0.0,0.0,0.0,0.0,1650846655736703.0
1.0,3.0,-5.0,-2.0,0.0,-1.0,-1.0,-1.0,1650846655736703.0
1.0,-3.0,-1.0,-3.0,1.0,-1.0,0.0,0.0,1650846655737699.0
-1.0,1.0,-1.0,-1.0,0.0,-1.0,0.0,0.0,1650846655737699.0
-1.0,-4.0,-1.0,-1.0,-2.0,0.0,0.0,-1.0,1650846655750692.0
0.0,3.0,-2.0,-3.0,-2.0,2.0,-2.0,0.0,1650846655750692.0
-3.0,-17.0,-1.0,5.0,4.0,-1.0,-1.0,-1.0,1650846655751671.0
-1.0,4.0,5.0,-3.0,-5.0,0.0,1.0,1.0,1650846655751671.0
1.0,18.0,0.0,-3.0,-2.0,-1.0,0.0,-1.0,1650846655774113.0
-1.0,-5.0,-1.0,7.0,3.0,1.0,-2.0,-2.0,1650846655774113.0
-1.0,9.0,0.0,-4.0,-6.0,-3.0,-1.0,0.0,1650846655775107.0
-2.0,-7.0,2.0,2.0,2.0,1.0,0.0,-2.0,1650846655775107.0
-1.0,5.0,-4.0,0.0,-1.0,-2.0,-2.0,2.0,1650846655797048.0
-4.0,2.0,-5.0,-3.0,-1.0,0.0,-2.0,-2.0,1650846655797048.0
0.0,-5.0,10.0,-3.0,-2.0,-1.0,-1.0,1.0,1650846655798055.0
0.0,-5.0,-19.0,0.0,2.0,-3.0,-1.0,-2.0,1650846655798055.0
2.0,3.0,9.0,2.0,-1.0,0.0,-1.0,-1.0,1650846655811012.0
0.0,-3.0,3.0,4.0,-2.0,-2.0,1.0,0.0,1650846655811012.0
-1.0,-1.0,-3.0,-1.0,1.0,-2.0,-1.0,-1.0,1650846655812009.0
1.0,3.0,9.0,-1.0,0.0,1.0,0.0,1.0,1650846655812009.0
1.0,6.0,-4.0,-1.0,4.0,1.0,0.0,-2.0,1650846655833949.0
-1.0,26.0,5.0,1.0,-1.0,0.0,-2.0,0.0,1650846655833949.0
0.0,-13.0,-4.0,0.0,2.0,-1.0,0.0,1.0,1650846655834959.0
4.0,16.0,4.0,0.0,-4.0,1.0,-1.0,2.0,1650846655834959.0
-1.0,-4.0,6.0,-1.0,-2.0,-1.0,-3.0,0.0,1650846655856892.0
-1.0,4.0,1.0,-1.0,-1.0,0.0,1.0,0.0,1650846655856892.0
-2.0,2.0,-4.0,-2.0,-4.0,-1.0,1.0,-1.0,1650846655857886.0
0.0,-10.0,-2.0,0.0,0.0,1.0,-1.0,-1.0,1650846655857886.0
1.0,7.0,-3.0,-1.0,-3.0,0.0,0.0,-2.0,1650846655870851.0
0.0,-16.0,-5.0,-4.0,-2.0,-2.0,-1.0,0.0,1650846655870851.0
-2.0,3.0,1.0,1.0,0.0,-1.0,1.0,0.0,1650846655871848.0
-3.0,-16.0,-1.0,-5.0,1.0,0.0,0.0,0.0,1650846655871848.0
-1.0,3.0,1.0,-1.0,-3.0,-3.0,2.0,0.0,1650846655893817.0
1.0,-4.0,-1.0,-1.0,1.0,0.0,1.0,-1.0,1650846655893817.0
-1.0,-18.0,-11.0,-5.0,-4.0,-1.0,-3.0,-3.0,1650846655894812.0
1.0,27.0,8.0,-2.0,-3.0,-2.0,1.0,-2.0,1650846655894812.0
-4.0,-33.0,-14.0,-1.0,0.0,-1.0,0.0,1.0,1650846655916754.0
0.0,3.0,-1.0,-4.0,-2.0,-2.0,-1.0,-1.0,1650846655916754.0
0.0,8.0,1.0,-2.0,0.0,1.0,-1.0,-2.0,1650846655917751.0
0.0,-2.0,1.0,12.0,6.0,3.0,-1.0,1.0,1650846655917751.0
-1.0,0.0,-2.0,-4.0,-2.0,-2.0,-2.0,0.0,1650846655930716.0
-3.0,-8.0,1.0,0.0,-2.0,-1.0,-2.0,0.0,1650846655930716.0
2.0,4.0,1.0,-1.0,-3.0,-2.0,0.0,-1.0,1650846655931713.0
-4.0,-6.0,-3.0,-3.0,2.0,-1.0,-3.0,-1.0,1650846655931713.0
0.0,-1.0,-2.0,3.0,1.0,0.0,0.0,1.0,1650846655954652.0
-1.0,-6.0,3.0,1.0,2.0,1.0,-1.0,-1.0,1650846655954652.0
3.0,24.0,5.0,5.0,1.0,-1.0,2.0,-1.0,1650846655954652.0
0.0,-11.0,-4.0,-6.0,-5.0,-4.0,-4.0,-2.0,1650846655954652.0
-5.0,-48.0,-5.0,0.0,-1.0,-3.0,1.0,-1.0,1650846655976594.0
6.0,54.0,0.0,-3.0,0.0,-2.0,-1.0,0.0,1650846655976594.0
-4.0,-2.0,1.0,1.0,-1.0,1.0,0.0,0.0,1650846655977597.0
-2.0,-4.0,-5.0,-4.0,-3.0,-2.0,0.0,-2.0,1650846655977597.0
0.0,6.0,1.0,-7.0,-2.0,1.0,1.0,-2.0,1650846655991561.0
-2.0,-10.0,8.0,19.0,2.0,1.0,0.0,-1.0,1650846655991561.0
-3.0,-12.0,-9.0,-9.0,-2.0,-3.0,-1.0,0.0,1650846655991561.0
1.0,4.0,-1.0,-6.0,-4.0,-2.0,1.0,0.0,1650846655991561.0
2.0,27.0,6.0,8.0,-3.0,0.0,-1.0,0.0,1650846656014502.0
0.0,-35.0,-10.0,-10.0,-2.0,-1.0,1.0,-1.0,1650846656014502.0
0.0,9.0,2.0,0.0,-1.0,-2.0,-2.0,-1.0,1650846656015504.0
-2.0,-9.0,-3.0,1.0,3.0,-1.0,0.0,0.0,1650846656015504.0
0.0,19.0,-2.0,-5.0,-1.0,0.0,-2.0,0.0,1650846656036447.0
-5.0,-19.0,-3.0,-1.0,-1.0,-2.0,0.0,1.0,1650846656036447.0
3.0,8.0,-3.0,-2.0,-3.0,-1.0,-1.0,0.0,1650846656037432.0
1.0,-1.0,2.0,3.0,4.0,2.0,-1.0,-1.0,1650846656037432.0
0.0,5.0,6.0,4.0,2.0,-1.0,-1.0,-2.0,1650846656051393.0
0.0,1.0,-2.0,-3.0,-1.0,-1.0,0.0,0.0,1650846656051393.0
-2.0,-11.0,-1.0,-1.0,2.0,3.0,-4.0,-1.0,1650846656051393.0
-2.0,-9.0,1.0,2.0,-2.0,-4.0,-1.0,0.0,1650846656051393.0
3.0,32.0,1.0,1.0,1.0,0.0,0.0,-1.0,1650846656074332.0
-2.0,-15.0,-2.0,-4.0,0.0,-1.0,1.0,0.0,1650846656074332.0
-2.0,5.0,2.0,1.0,0.0,0.0,1.0,-2.0,1650846656075330.0
-1.0,-4.0,-1.0,2.0,1.0,0.0,2.0,1.0,1650846656075330.0
-3.0,-9.0,-3.0,-2.0,-1.0,1.0,2.0,0.0,1650846656096273.0
1.0,5.0,-2.0,-3.0,-4.0,-3.0,-3.0,-3.0,1650846656096273.0
-1.0,-8.0,-2.0,1.0,-1.0,-3.0,-1.0,0.0,1650846656097271.0
0.0,7.0,0.0,-5.0,-8.0,-1.0,0.0,-2.0,1650846656097271.0
2.0,-2.0,0.0,7.0,6.0,2.0,0.0,0.0,1650846656111233.0
-1.0,2.0,-2.0,-2.0,0.0,2.0,1.0,1.0,1650846656111233.0
1.0,5.0,2.0,2.0,2.0,-1.0,0.0,-1.0,1650846656112231.0
0.0,0.0,1.0,-1.0,-4.0,-3.0,-2.0,1.0,1650846656112231.0
-1.0,6.0,1.0,-5.0,-1.0,0.0,2.0,2.0,1650846656134172.0
1.0,-24.0,-5.0,1.0,0.0,1.0,-2.0,0.0,1650846656134172.0
0.0,2.0,3.0,1.0,0.0,0.0,2.0,-1.0,1650846656135169.0
2.0,26.0,2.0,0.0,-1.0,2.0,-1.0,3.0,1650846656135169.0
-2.0,-10.0,-2.0,-2.0,-1.0,0.0,-2.0,-2.0,1650846656157114.0
-3.0,4.0,-3.0,-12.0,-3.0,-2.0,-2.0,0.0,1650846656157114.0
0.0,5.0,3.0,10.0,1.0,1.0,1.0,-1.0,1650846656157114.0
1.0,-4.0,0.0,4.0,9.0,2.0,-3.0,1.0,1650846656157114.0
0.0,1.0,-3.0,-8.0,-8.0,-4.0,-3.0,-2.0,1650846656171074.0
-1.0,1.0,2.0,1.0,-1.0,-1.0,0.0,-1.0,1650846656171074.0
0.0,-7.0,-2.0,1.0,-2.0,3.0,-1.0,0.0,1650846656172071.0
1.0,14.0,1.0,-1.0,0.0,-2.0,1.0,-2.0,1650846656172071.0
0.0,-10.0,1.0,8.0,6.0,0.0,1.0,-2.0,1650846656194012.0
1.0,6.0,-1.0,-5.0,-5.0,0.0,0.0,1.0,1650846656194012.0
0.0,-9.0,-4.0,0.0,-2.0,-2.0,0.0,2.0,1650846656195009.0
-2.0,-7.0,1.0,6.0,4.0,1.0,-2.0,0.0,1650846656195009.0
0.0,0.0,1.0,-1.0,0.0,-1.0,-3.0,0.0,1650846656216950.0
-2.0,-3.0,-3.0,0.0,0.0,0.0,0.0,-2.0,1650846656216950.0
-1.0,2.0,-1.0,-2.0,1.0,-1.0,0.0,-1.0,1650846656217948.0
-1.0,-5.0,0.0,-3.0,-3.0,1.0,0.0,1.0,1650846656217948.0
-1.0,2.0,1.0,-6.0,-4.0,-2.0,1.0,1.0,1650846656230941.0
0.0,16.0,8.0,11.0,6.0,1.0,-1.0,-2.0,1650846656230941.0
0.0,-16.0,-4.0,-5.0,-2.0,-2.0,-2.0,-1.0,1650846656231911.0
1.0,12.0,-3.0,-2.0,4.0,1.0,2.0,0.0,1650846656231911.0
-3.0,-3.0,-5.0,-8.0,-6.0,-3.0,-1.0,-1.0,1650846656253826.0
-1.0,-4.0,2.0,1.0,-2.0,1.0,-1.0,1.0,1650846656253826.0
-1.0,12.0,5.0,6.0,2.0,0.0,-1.0,0.0,1650846656254817.0
1.0,-6.0,2.0,9.0,3.0,3.0,2.0,-1.0,1650846656254817.0
1.0,-7.0,-1.0,0.0,0.0,0.0,-1.0,-1.0,1650846656275859.0
0.0,5.0,-7.0,-7.0,-6.0,-9.0,-5.0,-5.0,1650846656275859.0
-1.0,-5.0,-2.0,-4.0,-3.0,-1.0,0.0,0.0,1650846656283799.0
-3.0,-10.0,-2.0,0.0,-1.0,-2.0,-2.0,-1.0,1650846656283799.0
0.0,2.0,1.0,10.0,3.0,5.0,3.0,1.0,1650846656290833.0
2.0,-3.0,0.0,-2.0,-1.0,-2.0,0.0,-1.0,1650846656290833.0
-1.0,-2.0,-5.0,-3.0,-5.0,-7.0,-6.0,-3.0,1650846656291750.0
1.0,0.0,-2.0,-3.0,-5.0,1.0,2.0,-1.0,1650846656291750.0
0.0,-1.0,2.0,2.0,1.0,1.0,-3.0,0.0,1650846656314687.0
-2.0,-4.0,-6.0,-7.0,-5.0,-3.0,1.0,-1.0,1650846656314687.0
0.0,1.0,2.0,0.0,1.0,3.0,1.0,1.0,1650846656314687.0
0.0,0.0,0.0,-2.0,0.0,-3.0,0.0,-2.0,1650846656314687.0
0.0,-4.0,-3.0,2.0,3.0,-1.0,-2.0,0.0,1650846656336629.0
-1.0,-6.0,-2.0,3.0,-1.0,-1.0,-1.0,0.0,1650846656336629.0
3.0,5.0,1.0,-2.0,0.0,1.0,0.0,0.0,1650846656337637.0
-3.0,-14.0,-6.0,-10.0,-6.0,-4.0,-4.0,-1.0,1650846656337637.0
2.0,13.0,2.0,1.0,0.0,-1.0,2.0,-1.0,1650846656350619.0
1.0,2.0,3.0,4.0,1.0,3.0,1.0,0.0,1650846656350619.0
-2.0,-4.0,-2.0,-2.0,0.0,0.0,1.0,2.0,1650846656358744.0
2.0,6.0,1.0,-2.0,-3.0,0.0,0.0,1.0,1650846656358744.0
0.0,-8.0,-2.0,0.0,0.0,-3.0,-2.0,2.0,1650846656374745.0
0.0,0.0,-3.0,-1.0,0.0,-4.0,-3.0,0.0,1650846656374745.0
-1.0,1.0,-5.0,-3.0,2.0,-3.0,-3.0,-4.0,1650846656374745.0
0.0,0.0,5.0,3.0,-2.0,0.0,1.0,-1.0,1650846656374745.0
2.0,5.0,1.0,-7.0,-2.0,0.0,-1.0,-1.0,1650846656396675.0
-1.0,-3.0,-13.0,-1.0,-1.0,-1.0,-2.0,-1.0,1650846656396675.0
-4.0,-10.0,3.0,3.0,1.0,1.0,2.0,0.0,1650846656397673.0
0.0,10.0,4.0,-1.0,-3.0,-4.0,-5.0,1.0,1650846656397673.0
-6.0,-6.0,-2.0,-2.0,-3.0,-1.0,1.0,-4.0,1650846656410666.0
3.0,7.0,-4.0,-6.0,2.0,7.0,2.0,3.0,1650846656410666.0
1.0,2.0,4.0,2.0,1.0,-5.0,-3.0,-3.0,1650846656418645.0
-1.0,-7.0,-9.0,1.0,3.0,-5.0,-4.0,0.0,1650846656418645.0
-6.0,-4.0,4.0,-2.0,-4.0,5.0,3.0,-3.0,1650846656434575.0
5.0,8.0,8.0,8.0,4.0,5.0,0.0,-4.0,1650846656434575.0
9.0,4.0,-6.0,-5.0,-3.0,-5.0,4.0,11.0,1650846656434575.0
-4.0,-5.0,3.0,4.0,-1.0,3.0,0.0,-4.0,1650846656434575.0
0.0,-2.0,-12.0,-11.0,-10.0,-13.0,-9.0,3.0,1650846656456523.0
-3.0,-3.0,4.0,6.0,6.0,4.0,2.0,-5.0,1650846656456523.0
4.0,8.0,-1.0,2.0,1.0,8.0,4.0,4.0,1650846656457513.0
0.0,-7.0,1.0,4.0,2.0,-6.0,-4.0,-2.0,1650846656457513.0
-2.0,-7.0,-6.0,-3.0,-6.0,-6.0,0.0,-7.0,1650846656479010.0
-2.0,3.0,3.0,-4.0,-3.0,-1.0,1.0,6.0,1650846656479010.0
-2.0,-3.0,-3.0,-3.0,-3.0,-2.0,0.0,-3.0,1650846656479981.0
5.0,3.0,-3.0,-1.0,-2.0,9.0,7.0,4.0,1650846656479981.0
-8.0,-3.0,0.0,4.0,2.0,-1.0,-8.0,-3.0,1650846656493970.0
0.0,-2.0,3.0,1.0,-2.0,-6.0,-2.0,0.0,1650846656493970.0
-2.0,-5.0,1.0,3.0,3.0,3.0,0.0,-4.0,1650846656494940.0
-1.0,2.0,-3.0,2.0,4.0,10.0,11.0,5.0,1650846656494940.0
10.0,2.0,1.0,1.0,-2.0,-7.0,-1.0,10.0,1650846656516909.0
-19.0,-2.0,-1.0,-2.0,-1.0,-1.0,-8.0,-23.0,1650846656516909.0
-2.0,-4.0,-1.0,1.0,4.0,-4.0,-6.0,0.0,1650846656518883.0
5.0,-5.0,1.0,-1.0,-3.0,10.0,13.0,7.0,1650846656518883.0
1.0,6.0,-1.0,5.0,6.0,11.0,5.0,0.0,1650846656530871.0
6.0,-5.0,-6.0,-11.0,-4.0,-8.0,-1.0,8.0,1650846656530871.0
-12.0,-3.0,8.0,2.0,-2.0,-1.0,0.0,-8.0,1650846656539839.0
4.0,-2.0,-4.0,1.0,5.0,-5.0,-8.0,-14.0,1650846656539839.0
-7.0,-4.0,-11.0,-6.0,-4.0,-3.0,-2.0,13.0,1650846656553800.0
9.0,3.0,6.0,0.0,-1.0,1.0,3.0,-1.0,1650846656553800.0
-9.0,-10.0,-8.0,-6.0,-2.0,-2.0,-2.0,1.0,1650846656555795.0
-9.0,1.0,12.0,0.0,-2.0,-3.0,-8.0,-13.0,1650846656555795.0
-5.0,-4.0,-1.0,3.0,0.0,3.0,2.0,-9.0,1650846656576335.0
10.0,13.0,-8.0,0.0,1.0,-2.0,-4.0,-2.0,1650846656576335.0
0.0,5.0,3.0,-3.0,-2.0,3.0,4.0,4.0,1650846656578269.0
-1.0,-9.0,-16.0,-6.0,-2.0,-5.0,-7.0,4.0,1650846656578269.0
-3.0,-4.0,-7.0,-3.0,2.0,-5.0,-7.0,-9.0,1650846656590300.0
16.0,-5.0,3.0,0.0,6.0,19.0,21.0,26.0,1650846656590300.0
-24.0,0.0,9.0,9.0,-1.0,-5.0,-4.0,-37.0,1650846656599213.0
-20.0,-6.0,-20.0,-10.0,-7.0,-1.0,-3.0,-7.0,1650846656599213.0
6.0,-3.0,-3.0,-21.0,-5.0,-8.0,-4.0,29.0,1650846656614286.0
-15.0,-6.0,-5.0,10.0,-2.0,-7.0,-5.0,-41.0,1650846656614286.0
20.0,0.0,-4.0,-13.0,-1.0,14.0,5.0,16.0,1650846656616275.0
-5.0,-1.0,6.0,8.0,0.0,1.0,2.0,0.0,1650846656616275.0
4.0,1.0,5.0,9.0,2.0,-1.0,1.0,-4.0,1650846656637198.0
-2.0,-2.0,5.0,9.0,2.0,-8.0,-9.0,7.0,1650846656637198.0
4.0,-1.0,6.0,10.0,1.0,5.0,9.0,9.0,1650846656638196.0
-3.0,-9.0,-25.0,-23.0,-10.0,-4.0,-4.0,-15.0,1650846656638196.0
16.0,25.0,1.0,-12.0,-6.0,2.0,0.0,3.0,1650846656650331.0
-5.0,-8.0,5.0,14.0,9.0,-1.0,-5.0,0.0,1650846656650331.0
-1.0,3.0,-13.0,-18.0,-13.0,-15.0,-4.0,4.0,1650846656659327.0
-1.0,-2.0,0.0,2.0,0.0,0.0,3.0,5.0,1650846656659327.0
-3.0,-12.0,6.0,17.0,3.0,1.0,1.0,-4.0,1650846656673303.0
-19.0,9.0,-9.0,-10.0,-3.0,4.0,-3.0,-9.0,1650846656673303.0
20.0,3.0,11.0,-3.0,-3.0,-7.0,-6.0,1.0,1650846656680272.0
5.0,2.0,8.0,0.0,0.0,-1.0,-4.0,4.0,1650846656680272.0
-3.0,-9.0,-7.0,3.0,0.0,3.0,6.0,-3.0,1650846656697227.0
0.0,-1.0,3.0,1.0,-2.0,0.0,-2.0,0.0,1650846656697227.0
-1.0,-17.0,3.0,17.0,10.0,5.0,-6.0,2.0,1650846656698225.0
15.0,32.0,16.0,-10.0,-7.0,-5.0,5.0,4.0,1650846656698225.0
-1.0,-1.0,7.0,6.0,6.0,6.0,5.0,0.0,1650846656718171.0
-1.0,-10.0,-6.0,-5.0,-5.0,-9.0,-4.0,-2.0,1650846656718171.0
-11.0,2.0,-5.0,4.0,7.0,11.0,4.0,-13.0,1650846656727148.0
1.0,-4.0,11.0,6.0,-4.0,-3.0,-5.0,6.0,1650846656727148.0
-4.0,5.0,9.0,15.0,5.0,-3.0,-12.0,-20.0,1650846656733161.0
10.0,7.0,-12.0,-14.0,-7.0,-1.0,14.0,16.0,1650846656733161.0
5.0,5.0,5.0,3.0,2.0,-7.0,-4.0,11.0,1650846656740176.0
15.0,6.0,9.0,2.0,3.0,2.0,2.0,-4.0,1650846656740176.0
0.0,-4.0,-5.0,-3.0,0.0,-2.0,-1.0,-4.0,1650846656757135.0
-5.0,-10.0,-3.0,1.0,1.0,3.0,-4.0,3.0,1650846656757135.0
8.0,14.0,-2.0,-8.0,-9.0,-6.0,-1.0,3.0,1650846656759062.0
-4.0,-8.0,-11.0,-5.0,0.0,-5.0,-4.0,1.0,1650846656759062.0
-2.0,-1.0,-11.0,-2.0,-1.0,1.0,0.0,-1.0,1650846656779008.0
9.0,6.0,10.0,6.0,4.0,4.0,1.0,1.0,1650846656779008.0
-5.0,-2.0,-14.0,-9.0,-3.0,3.0,6.0,4.0,1650846656781004.0
-15.0,-11.0,4.0,9.0,2.0,1.0,2.0,-6.0,1650846656781004.0
6.0,22.0,4.0,-1.0,0.0,0.0,-9.0,-12.0,1650846656794028.0
-9.0,-9.0,-5.0,-7.0,-4.0,0.0,8.0,6.0,1650846656794028.0
-9.0,-6.0,-3.0,5.0,0.0,-4.0,-2.0,-6.0,1650846656799980.0
13.0,-2.0,4.0,2.0,0.0,0.0,1.0,13.0,1650846656799980.0
13.0,3.0,2.0,3.0,0.0,5.0,-6.0,2.0,1650846656817038.0
4.0,-10.0,-10.0,-6.0,-2.0,-1.0,5.0,9.0,1650846656817038.0
-3.0,9.0,-13.0,-14.0,-13.0,-16.0,-10.0,-13.0,1650846656818005.0
-2.0,-11.0,0.0,2.0,0.0,-3.0,-2.0,2.0,1650846656818005.0
-2.0,-4.0,4.0,-6.0,-2.0,1.0,4.0,6.0,1650846656838950.0
2.0,-7.0,9.0,9.0,1.0,3.0,-13.0,-12.0,1650846656838950.0
10.0,5.0,-11.0,-5.0,2.0,6.0,2.0,3.0,1650846656840944.0
-5.0,-2.0,-12.0,-11.0,-4.0,-5.0,2.0,2.0,1650846656840944.0
-1.0,-11.0,2.0,1.0,0.0,-1.0,5.0,9.0,1650846656853936.0
1.0,15.0,-6.0,-8.0,-4.0,-2.0,1.0,-12.0,1650846656853936.0
-3.0,-6.0,12.0,23.0,6.0,5.0,2.0,11.0,1650846656860899.0
-4.0,2.0,-6.0,-15.0,-4.0,-1.0,-6.0,-8.0,1650846656860899.0
2.0,9.0,-9.0,-11.0,-5.0,-1.0,0.0,-7.0,1650846656876848.0
-3.0,-7.0,9.0,11.0,5.0,-1.0,-2.0,5.0,1650846656876848.0
-10.0,1.0,-2.0,-18.0,-10.0,-8.0,-6.0,-5.0,1650846656878842.0
19.0,-1.0,2.0,5.0,0.0,5.0,0.0,-11.0,1650846656878842.0
-4.0,8.0,11.0,4.0,0.0,1.0,-1.0,0.0,1650846656898817.0
5.0,7.0,-2.0,-4.0,-4.0,-4.0,8.0,10.0,1650846656898817.0
-10.0,-24.0,-18.0,-1.0,2.0,1.0,-3.0,-9.0,1650846656900784.0
-11.0,3.0,11.0,6.0,2.0,1.0,0.0,5.0,1650846656900784.0
3.0,-11.0,-7.0,-3.0,-1.0,2.0,0.0,3.0,1650846656913769.0
-14.0,-4.0,-2.0,6.0,1.0,1.0,-4.0,-15.0,1650846656913769.0
3.0,2.0,5.0,-7.0,-3.0,2.0,-1.0,16.0,1650846656920758.0
-7.0,-5.0,-8.0,0.0,0.0,-1.0,2.0,7.0,1650846656920758.0
-7.0,-10.0,-6.0,1.0,2.0,0.0,13.0,2.0,1650846656937686.0
1.0,4.0,7.0,1.0,0.0,-4.0,-8.0,1.0,1650846656937686.0
2.0,2.0,14.0,6.0,2.0,0.0,2.0,-8.0,1650846656938683.0
-5.0,-2.0,-5.0,2.0,-1.0,-4.0,-9.0,-3.0,1650846656938683.0
6.0,1.0,5.0,-2.0,2.0,3.0,-1.0,8.0,1650846656959693.0
-3.0,-3.0,3.0,-1.0,-2.0,0.0,2.0,0.0,1650846656959693.0
7.0,3.0,6.0,8.0,3.0,0.0,-2.0,0.0,1650846656960635.0
-1.0,3.0,0.0,1.0,2.0,1.0,1.0,3.0,1650846656960635.0
4.0,-1.0,5.0,3.0,-3.0,-4.0,3.0,2.0,1650846656973656.0
-5.0,1.0,-14.0,-12.0,-3.0,0.0,-2.0,-7.0,1650846656973656.0
-8.0,-2.0,24.0,8.0,1.0,3.0,2.0,-1.0,1650846656980598.0
8.0,16.0,-20.0,-1.0,0.0,-1.0,-3.0,6.0,1650846656980598.0
-16.0,-30.0,1.0,-14.0,-4.0,-5.0,-4.0,-16.0,1650846656995530.0
2.0,26.0,12.0,9.0,3.0,1.0,-3.0,5.0,1650846656995530.0
8.0,-4.0,-10.0,-3.0,-2.0,-3.0,-5.0,-21.0,1650846657010557.0
-6.0,3.0,5.0,-1.0,1.0,2.0,9.0,24.0,1650846657010557.0
-11.0,-3.0,-3.0,-3.0,-4.0,-3.0,-5.0,-9.0,1650846657019493.0
10.0,-16.0,-24.0,-14.0,-2.0,-4.0,-2.0,8.0,1650846657019493.0
-18.0,3.0,7.0,-1.0,-3.0,0.0,6.0,-9.0,1650846657020464.0
13.0,2.0,3.0,7.0,3.0,0.0,-3.0,-9.0,1650846657020464.0
-1.0,-3.0,-2.0,-3.0,-2.0,-1.0,-3.0,-1.0,1650846657033500.0
-2.0,2.0,16.0,2.0,2.0,-1.0,-3.0,-11.0,1650846657033500.0
9.0,1.0,-13.0,0.0,-4.0,0.0,1.0,6.0,1650846657048007.0
-10.0,-8.0,1.0,-5.0,-4.0,-9.0,-10.0,-10.0,1650846657048007.0
-5.0,-2.0,-1.0,6.0,5.0,7.0,9.0,10.0,1650846657057052.0
-1.0,4.0,2.0,-3.0,-3.0,-6.0,-4.0,-4.0,1650846657057052.0
2.0,-19.0,-1.0,-1.0,0.0,3.0,-1.0,5.0,1650846657058016.0
-4.0,-4.0,4.0,7.0,-1.0,2.0,-3.0,-10.0,1650846657058016.0
2.0,0.0,-33.0,-1.0,2.0,-1.0,0.0,1.0,1650846657078991.0
-8.0,1.0,29.0,-1.0,-2.0,0.0,4.0,-4.0,1650846657078991.0
6.0,5.0,-14.0,-2.0,3.0,3.0,-1.0,5.0,1650846657080919.0
2.0,-9.0,2.0,-1.0,-1.0,-2.0,0.0,2.0,1650846657080919.0
-1.0,35.0,17.0,6.0,2.0,3.0,-1.0,-3.0,1650846657093948.0
0.0,-24.0,-19.0,-3.0,-2.0,-2.0,3.0,8.0,1650846657093948.0
8.0,0.0,0.0,-4.0,-6.0,-2.0,1.0,7.0,1650846657100868.0
-22.0,11.0,8.0,6.0,5.0,2.0,0.0,-19.0,1650846657100868.0
-6.0,-6.0,-2.0,-4.0,-2.0,-3.0,-4.0,5.0,1650846657116979.0
5.0,2.0,-12.0,3.0,3.0,2.0,0.0,1.0,1650846657116979.0
2.0,4.0,15.0,1.0,-3.0,-5.0,0.0,1.0,1650846657117936.0
4.0,2.0,-2.0,-8.0,-5.0,0.0,-2.0,3.0,1650846657117936.0
1.0,-3.0,-2.0,-1.0,0.0,-1.0,-1.0,-4.0,1650846657138868.0
-5.0,-7.0,7.0,5.0,2.0,4.0,7.0,6.0,1650846657138868.0
-3.0,2.0,3.0,-9.0,-5.0,-4.0,-5.0,2.0,1650846657140848.0
15.0,1.0,-23.0,2.0,2.0,0.0,-1.0,0.0,1650846657140848.0
-3.0,-4.0,16.0,3.0,1.0,0.0,-1.0,-3.0,1650846657153813.0
7.0,5.0,-1.0,-9.0,-5.0,4.0,0.0,1.0,1650846657153813.0
-3.0,6.0,-7.0,3.0,1.0,0.0,8.0,1.0,1650846657160821.0
-1.0,-13.0,3.0,-3.0,-2.0,-4.0,-7.0,2.0,1650846657160821.0
2.0,4.0,0.0,1.0,1.0,-1.0,-3.0,-1.0,1650846657176903.0
-1.0,-9.0,3.0,5.0,3.0,1.0,2.0,4.0,1650846657176903.0
-1.0,8.0,-14.0,-5.0,2.0,1.0,-2.0,-5.0,1650846657178830.0
-1.0,5.0,6.0,-2.0,-5.0,-2.0,3.0,-1.0,1650846657178830.0
-4.0,-14.0,-8.0,1.0,0.0,0.0,2.0,0.0,1650846657199774.0
4.0,11.0,3.0,1.0,-4.0,-2.0,-2.0,1.0,1650846657199774.0
-5.0,-1.0,-6.0,1.0,3.0,4.0,-1.0,1.0,1650846657200772.0
1.0,14.0,2.0,1.0,1.0,0.0,0.0,0.0,1650846657200772.0
-1.0,-7.0,0.0,-1.0,-2.0,0.0,3.0,5.0,1650846657212767.0
6.0,7.0,7.0,6.0,3.0,-2.0,-1.0,-8.0,1650846657212767.0
-12.0,-15.0,-20.0,-9.0,-1.0,-1.0,-2.0,-1.0,1650846657221715.0
-4.0,1.0,6.0,-5.0,2.0,4.0,2.0,0.0,1650846657221715.0
11.0,4.0,-3.0,-5.0,-4.0,-6.0,-2.0,7.0,1650846657236703.0
-14.0,-8.0,-1.0,0.0,1.0,1.0,-2.0,-8.0,1650846657236703.0
2.0,9.0,4.0,9.0,3.0,-1.0,-2.0,-1.0,1650846657242723.0
-4.0,-15.0,3.0,2.0,-3.0,-2.0,0.0,0.0,1650846657242723.0
0.0,11.0,0.0,-10.0,-7.0,-3.0,-5.0,-4.0,1650846657259813.0
-4.0,-3.0,-1.0,2.0,2.0,3.0,3.0,-2.0,1650846657259813.0
0.0,-11.0,-9.0,-9.0,-3.0,-2.0,-5.0,-5.0,1650846657260788.0
4.0,19.0,6.0,-2.0,-1.0,1.0,1.0,2.0,1650846657260788.0
-4.0,-13.0,-3.0,3.0,-1.0,-6.0,-2.0,-5.0,1650846657272757.0
0.0,16.0,-1.0,2.0,0.0,4.0,-2.0,-7.0,1650846657272757.0
15.0,-2.0,-22.0,-7.0,-2.0,-1.0,-3.0,2.0,1650846657289712.0
-38.0,-36.0,-13.0,-3.0,-3.0,1.0,0.0,-16.0,1650846657289712.0
12.0,22.0,6.0,2.0,-3.0,-4.0,1.0,4.0,1650846657296719.0
-6.0,-20.0,-7.0,-4.0,-5.0,-6.0,-4.0,-8.0,1650846657296719.0
2.0,14.0,6.0,5.0,4.0,-1.0,1.0,2.0,1650846657298687.0
8.0,-7.0,0.0,0.0,0.0,4.0,2.0,3.0,1650846657298687.0
-7.0,-8.0,-4.0,-2.0,1.0,4.0,-1.0,-1.0,1650846657319800.0
0.0,9.0,1.0,-1.0,1.0,-1.0,-1.0,5.0,1650846657319800.0
5.0,-6.0,20.0,5.0,-2.0,1.0,0.0,-3.0,1650846657320797.0
6.0,3.0,4.0,-1.0,0.0,-5.0,-2.0,3.0,1650846657320797.0
-1.0,11.0,1.0,1.0,3.0,4.0,6.0,2.0,1650846657332765.0
4.0,-15.0,-9.0,-9.0,-4.0,-5.0,-3.0,7.0,1650846657332765.0
-1.0,16.0,13.0,9.0,1.0,2.0,2.0,-3.0,1650846657341742.0
5.0,7.0,4.0,5.0,5.0,0.0,3.0,8.0,1650846657341742.0
-8.0,-12.0,3.0,-4.0,-1.0,-1.0,-7.0,-16.0,1650846657356702.0
9.0,3.0,7.0,-4.0,-2.0,-3.0,4.0,10.0,1650846657356702.0
-8.0,-8.0,-7.0,4.0,5.0,6.0,3.0,-3.0,1650846657358723.0
7.0,-6.0,-16.0,1.0,-3.0,-4.0,-2.0,-3.0,1650846657358723.0
-5.0,9.0,8.0,2.0,-1.0,2.0,2.0,-4.0,1650846657379771.0
-11.0,-10.0,-8.0,0.0,-1.0,-1.0,-2.0,4.0,1650846657379771.0
11.0,14.0,12.0,-1.0,-2.0,-5.0,-6.0,1.0,1650846657380771.0
4.0,5.0,-11.0,-3.0,1.0,4.0,2.0,0.0,1650846657380771.0
2.0,-11.0,-6.0,-5.0,-6.0,-5.0,-4.0,-3.0,1650846657392807.0
1.0,0.0,-1.0,1.0,0.0,0.0,1.0,1.0,1650846657392807.0
-2.0,2.0,3.0,-1.0,4.0,1.0,2.0,6.0,1650846657401715.0
-4.0,-2.0,9.0,0.0,-2.0,-3.0,-2.0,-4.0,1650846657401715.0
2.0,-1.0,-1.0,5.0,1.0,3.0,2.0,0.0,1650846657416840.0
-7.0,2.0,1.0,0.0,-5.0,-2.0,-2.0,-3.0,1650846657416840.0
-2.0,-14.0,-5.0,-4.0,-1.0,-1.0,0.0,-1.0,1650846657418834.0
13.0,19.0,1.0,-2.0,-5.0,2.0,1.0,6.0,1650846657418834.0
-3.0,-7.0,-2.0,-1.0,-2.0,-3.0,-4.0,-10.0,1650846657439778.0
4.0,3.0,-7.0,0.0,0.0,2.0,-2.0,1.0,1650846657439778.0
-6.0,-11.0,-11.0,-7.0,-2.0,-2.0,1.0,-8.0,1650846657440790.0
2.0,-4.0,5.0,-2.0,-3.0,-2.0,0.0,6.0,1650846657440790.0
1.0,4.0,2.0,3.0,3.0,5.0,1.0,5.0,1650846657452744.0
0.0,9.0,1.0,-1.0,-1.0,-1.0,-1.0,-5.0,1650846657452744.0
-1.0,8.0,0.0,-3.0,-4.0,0.0,-2.0,1.0,1650846657461728.0
-5.0,-7.0,-1.0,-4.0,1.0,-1.0,1.0,0.0,1650846657461728.0
-2.0,2.0,-2.0,3.0,1.0,1.0,1.0,0.0,1650846657476748.0
-3.0,-6.0,2.0,1.0,0.0,-2.0,-1.0,-1.0,1650846657476748.0
2.0,-2.0,0.0,-2.0,0.0,0.0,1.0,1.0,1650846657478701.0
-5.0,2.0,0.0,1.0,2.0,0.0,-1.0,-5.0,1650846657478701.0
0.0,-5.0,-3.0,-6.0,-1.0,-2.0,1.0,0.0,1650846657498841.0
1.0,-7.0,-8.0,-5.0,-2.0,1.0,0.0,4.0,1650846657498841.0
-1.0,0.0,8.0,6.0,-1.0,-2.0,1.0,0.0,1650846657500829.0
1.0,3.0,0.0,-2.0,-2.0,0.0,-1.0,0.0,1650846657500829.0
-1.0,-6.0,-7.0,-2.0,2.0,0.0,0.0,1.0,1650846657512824.0
0.0,5.0,3.0,-2.0,-4.0,-4.0,-1.0,-2.0,1650846657512824.0
-2.0,-8.0,-5.0,-1.0,1.0,1.0,-3.0,-2.0,1650846657521786.0
1.0,5.0,-1.0,-1.0,2.0,0.0,-4.0,-3.0,1650846657521786.0
0.0,0.0,-1.0,-1.0,-2.0,-2.0,1.0,1.0,1650846657536760.0
3.0,0.0,-4.0,-3.0,-2.0,0.0,0.0,0.0,1650846657536760.0
-4.0,-4.0,1.0,2.0,1.0,-1.0,-1.0,-2.0,1650846657538728.0
1.0,5.0,9.0,3.0,-1.0,-1.0,-1.0,0.0,1650846657538728.0
1.0,0.0,-4.0,-3.0,-2.0,2.0,-2.0,3.0,1650846657559638.0
2.0,4.0,4.0,3.0,1.0,0.0,-1.0,-2.0,1650846657559638.0
-1.0,-3.0,-5.0,-4.0,-3.0,-1.0,0.0,2.0,1650846657560570.0
-2.0,6.0,-5.0,-3.0,-2.0,0.0,0.0,-3.0,1650846657560570.0
-2.0,-8.0,6.0,3.0,-1.0,-2.0,0.0,-2.0,1650846657581660.0
0.0,5.0,0.0,2.0,1.0,-2.0,-1.0,1.0,1650846657581660.0
-2.0,1.0,-1.0,1.0,-1.0,0.0,1.0,-3.0,1650846657583627.0
-1.0,-5.0,-6.0,2.0,1.0,-1.0,0.0,2.0,1650846657583627.0
-1.0,1.0,4.0,-1.0,-1.0,1.0,1.0,3.0,1650846657596620.0
-1.0,-3.0,1.0,0.0,-3.0,-2.0,-8.0,-10.0,1650846657596620.0
-1.0,-3.0,-4.0,-2.0,-2.0,0.0,1.0,0.0,1650846657598612.0
-3.0,-5.0,7.0,1.0,0.0,1.0,0.0,-2.0,1650846657598612.0
3.0,5.0,1.0,-1.0,-1.0,0.0,-2.0,-2.0,1650846657619646.0
-2.0,-7.0,-8.0,1.0,5.0,1.0,1.0,1.0,1650846657619646.0
0.0,-6.0,1.0,-1.0,0.0,-1.0,-2.0,0.0,1650846657620616.0
3.0,6.0,-6.0,-6.0,-3.0,-1.0,0.0,0.0,1650846657620616.0
-1.0,0.0,6.0,8.0,2.0,-1.0,0.0,-2.0,1650846657641628.0
3.0,6.0,-4.0,-6.0,-4.0,0.0,3.0,3.0,1650846657641628.0
-5.0,-6.0,-3.0,2.0,1.0,1.0,-2.0,-2.0,1650846657643581.0
-1.0,-11.0,-2.0,2.0,0.0,-1.0,2.0,2.0,1650846657643581.0
1.0,9.0,-5.0,-4.0,0.0,-1.0,-1.0,-1.0,1650846657656520.0
0.0,1.0,0.0,-4.0,-1.0,0.0,1.0,2.0,1650846657656520.0
0.0,2.0,1.0,3.0,0.0,-1.0,-1.0,0.0,1650846657658525.0
1.0,-3.0,4.0,2.0,0.0,1.0,-1.0,0.0,1650846657658525.0
0.0,11.0,2.0,-3.0,-2.0,-1.0,-1.0,-1.0,1650846657679605.0
-3.0,-26.0,-7.0,0.0,0.0,-1.0,1.0,0.0,1650846657679605.0
1.0,6.0,-3.0,-2.0,3.0,1.0,-1.0,0.0,1650846657680578.0
0.0,-2.0,-3.0,-2.0,-3.0,-1.0,0.0,-1.0,1650846657680578.0
0.0,3.0,2.0,0.0,-1.0,-1.0,1.0,2.0,1650846657709681.0
-2.0,3.0,2.0,0.0,-1.0,-2.0,1.0,0.0,1650846657709681.0
1.0,-1.0,2.0,0.0,-3.0,-1.0,-1.0,-1.0,1650846657710608.0
2.0,-3.0,-3.0,1.0,1.0,1.0,-1.0,0.0,1650846657710608.0
-3.0,-12.0,-4.0,-1.0,-1.0,-1.0,-3.0,-2.0,1650846657716611.0
-1.0,18.0,0.0,2.0,1.0,1.0,1.0,-2.0,1650846657716611.0
-1.0,0.0,3.0,0.0,-2.0,-2.0,0.0,1.0,1650846657718586.0
-3.0,-2.0,0.0,-3.0,-3.0,-3.0,-3.0,-2.0,1650846657718586.0
0.0,-4.0,-9.0,-4.0,-1.0,0.0,-2.0,2.0,1650846657739534.0
-1.0,5.0,2.0,2.0,1.0,-3.0,-1.0,0.0,1650846657739534.0
1.0,-6.0,-4.0,-3.0,-2.0,-1.0,1.0,-1.0,1650846657740537.0
0.0,-2.0,-1.0,0.0,2.0,0.0,0.0,1.0,1650846657740537.0
-1.0,1.0,3.0,-2.0,1.0,1.0,-1.0,-3.0,1650846657761904.0
-1.0,4.0,2.0,1.0,-2.0,1.0,0.0,1.0,1650846657761904.0
-1.0,2.0,4.0,0.0,1.0,1.0,-1.0,-1.0,1650846657763836.0
-5.0,-9.0,-4.0,-5.0,-5.0,-3.0,-2.0,0.0,1650846657763836.0
0.0,-6.0,-4.0,0.0,0.0,5.0,1.0,-2.0,1650846657775798.0
2.0,0.0,0.0,-1.0,0.0,1.0,-2.0,3.0,1650846657775798.0
-5.0,4.0,-3.0,-2.0,-1.0,-3.0,-2.0,-3.0,1650846657782842.0
3.0,9.0,0.0,-1.0,1.0,1.0,1.0,0.0,1650846657782842.0
-2.0,2.0,9.0,4.0,3.0,2.0,0.0,-2.0,1650846657799765.0
-1.0,-8.0,-5.0,-4.0,-3.0,0.0,-2.0,1.0,1650846657799765.0
0.0,6.0,-2.0,1.0,0.0,-1.0,0.0,0.0,1650846657800731.0
0.0,-6.0,0.0,-2.0,-3.0,0.0,-2.0,-2.0,1650846657800731.0
0.0,0.0,-3.0,-2.0,0.0,-4.0,1.0,2.0,1650846657821854.0
-3.0,-1.0,2.0,2.0,2.0,0.0,1.0,-1.0,1650846657821854.0
0.0,-4.0,-5.0,-2.0,-2.0,-1.0,-3.0,1.0,1650846657823819.0
-3.0,1.0,5.0,4.0,2.0,0.0,0.0,-1.0,1650846657823819.0
0.0,0.0,-4.0,-1.0,-4.0,-2.0,-3.0,0.0,1650846657835787.0
-1.0,-4.0,5.0,1.0,3.0,1.0,1.0,0.0,1650846657835787.0
1.0,5.0,-1.0,1.0,-3.0,-1.0,1.0,-1.0,1650846657842838.0
-1.0,-6.0,-4.0,0.0,-2.0,-1.0,-1.0,0.0,1650846657842838.0
2.0,3.0,-1.0,-2.0,-4.0,-1.0,-1.0,-2.0,1650846657859723.0
-2.0,-3.0,1.0,-2.0,1.0,-1.0,-1.0,-1.0,1650846657859723.0
-1.0,-4.0,-1.0,0.0,-1.0,-1.0,-2.0,-1.0,1650846657860721.0
1.0,3.0,4.0,3.0,1.0,3.0,0.0,0.0,1650846657860721.0
0.0,-2.0,-10.0,-6.0,-1.0,-2.0,-1.0,0.0,1650846657881786.0
0.0,5.0,-1.0,-2.0,-3.0,-2.0,-2.0,-2.0,1650846657881786.0
-1.0,-4.0,3.0,1.0,1.0,-4.0,3.0,-1.0,1650846657883782.0
-4.0,-7.0,-2.0,0.0,0.0,3.0,-2.0,0.0,1650846657883782.0
1.0,0.0,-3.0,-1.0,-2.0,0.0,-1.0,-2.0,1650846657895813.0
1.0,5.0,-5.0,-4.0,-4.0,-2.0,-1.0,1.0,1650846657895813.0
-1.0,1.0,0.0,-1.0,-2.0,-1.0,-1.0,1.0,1650846657902758.0
1.0,0.0,0.0,-3.0,0.0,-1.0,0.0,2.0,1650846657902758.0
-3.0,-5.0,1.0,2.0,1.0,-1.0,0.0,-1.0,1650846657919685.0
-2.0,-6.0,-2.0,-2.0,-2.0,-2.0,-2.0,-1.0,1650846657919685.0
1.0,2.0,1.0,2.0,0.0,1.0,0.0,-1.0,1650846657920682.0
0.0,1.0,-4.0,-1.0,2.0,0.0,0.0,0.0,1650846657920682.0
1.0,1.0,5.0,-1.0,-3.0,0.0,2.0,4.0,1650846657941694.0
-2.0,-2.0,-4.0,0.0,0.0,0.0,1.0,-1.0,1650846657941694.0
1.0,0.0,1.0,-2.0,2.0,1.0,-1.0,-1.0,1650846657943622.0
-1.0,-3.0,-9.0,-4.0,-2.0,-2.0,-2.0,-2.0,1650846657943622.0
-1.0,-2.0,-3.0,0.0,1.0,0.0,0.0,-2.0,1650846657956587.0
0.0,1.0,6.0,3.0,0.0,0.0,0.0,1.0,1650846657956587.0
0.0,-2.0,-2.0,-1.0,-2.0,1.0,0.0,0.0,1650846657962571.0
-1.0,4.0,1.0,0.0,0.0,0.0,-1.0,0.0,1650846657962571.0
-4.0,-3.0,-1.0,-1.0,-1.0,1.0,0.0,-3.0,1650846657979607.0
-2.0,-6.0,-7.0,-1.0,-1.0,-3.0,-2.0,1.0,1650846657979607.0
0.0,4.0,4.0,1.0,-2.0,0.0,-1.0,0.0,1650846657980608.0
-1.0,1.0,-3.0,0.0,-1.0,-3.0,-1.0,0.0,1650846657980608.0
0.0,-1.0,-1.0,-2.0,0.0,0.0,-1.0,0.0,1650846658001668.0
0.0,-4.0,-1.0,-3.0,0.0,0.0,-1.0,-2.0,1650846658001668.0
-1.0,3.0,2.0,-1.0,-1.0,-3.0,-1.0,-1.0,1650846658003682.0
-2.0,-2.0,0.0,2.0,-2.0,1.0,2.0,0.0,1650846658003682.0
2.0,0.0,3.0,3.0,0.0,0.0,0.0,3.0,1650846658015658.0
-6.0,-1.0,-3.0,-4.0,-4.0,-3.0,0.0,-3.0,1650846658015658.0
1.0,-6.0,5.0,1.0,0.0,1.0,2.0,4.0,1650846658022639.0
0.0,-4.0,-3.0,-1.0,-1.0,1.0,-1.0,1.0,1650846658022639.0
-2.0,4.0,-1.0,2.0,3.0,-1.0,0.0,-1.0,1650846658039594.0
-1.0,-1.0,0.0,0.0,3.0,0.0,1.0,5.0,1650846658039594.0
1.0,-1.0,-6.0,-4.0,-4.0,-1.0,-2.0,-7.0,1650846658040565.0
0.0,2.0,1.0,0.0,1.0,-1.0,-1.0,-1.0,1650846658040565.0
-1.0,6.0,3.0,3.0,0.0,0.0,-1.0,0.0,1650846658061504.0
2.0,-13.0,-4.0,-1.0,0.0,0.0,-2.0,-2.0,1650846658061504.0
-3.0,-1.0,-3.0,-2.0,-1.0,-2.0,-2.0,-1.0,1650846658063431.0
3.0,2.0,-1.0,-1.0,-2.0,-2.0,1.0,1.0,1650846658063431.0
-3.0,0.0,-4.0,-2.0,1.0,-1.0,-1.0,0.0,1650846658075399.0
-1.0,1.0,0.0,0.0,1.0,1.0,-1.0,1.0,1650846658075399.0
-1.0,-1.0,-1.0,1.0,0.0,1.0,-1.0,1.0,1650846658084374.0
-3.0,-10.0,-2.0,-3.0,-2.0,1.0,1.0,-2.0,1650846658084374.0
1.0,8.0,-2.0,0.0,-4.0,-3.0,0.0,1.0,1650846658098859.0
1.0,6.0,5.0,3.0,0.0,-2.0,0.0,0.0,1650846658098859.0
-4.0,-7.0,-8.0,0.0,1.0,1.0,-1.0,1.0,1650846658100826.0
-1.0,4.0,5.0,-1.0,0.0,-1.0,-2.0,-2.0,1650846658100826.0
0.0,-8.0,-5.0,-4.0,-4.0,-2.0,-1.0,-3.0,1650846658121797.0
0.0,-1.0,-5.0,-1.0,-1.0,1.0,0.0,0.0,1650846658121797.0
1.0,3.0,-1.0,-2.0,3.0,2.0,1.0,-1.0,1650846658123779.0
1.0,4.0,0.0,0.0,-2.0,-1.0,0.0,0.0,1650846658123779.0
2.0,-4.0,1.0,0.0,0.0,0.0,-1.0,1.0,1650846658135759.0
-8.0,6.0,-2.0,0.0,-2.0,0.0,-1.0,-9.0,1650846658135759.0
0.0,-23.0,-5.0,-2.0,3.0,-1.0,-1.0,4.0,1650846658144709.0
0.0,4.0,-2.0,-3.0,-3.0,-2.0,-2.0,1.0,1650846658144709.0
1.0,-2.0,0.0,-3.0,-1.0,-1.0,0.0,-1.0,1650846658159674.0
2.0,1.0,0.0,1.0,-2.0,0.0,-2.0,1.0,1650846658159674.0
-1.0,5.0,0.0,1.0,-1.0,1.0,0.0,-2.0,1650846658160621.0
-1.0,-2.0,-2.0,-1.0,2.0,0.0,0.0,-3.0,1650846658160621.0
-1.0,-3.0,-2.0,1.0,-3.0,0.0,-1.0,1.0,1650846658181888.0
3.0,4.0,3.0,-1.0,-3.0,-2.0,0.0,1.0,1650846658181888.0
-2.0,-5.0,1.0,3.0,-2.0,0.0,2.0,-1.0,1650846658183816.0
2.0,13.0,-1.0,0.0,2.0,0.0,0.0,1.0,1650846658183816.0
-2.0,-1.0,5.0,0.0,2.0,2.0,-2.0,-4.0,1650846658195851.0
-2.0,-5.0,-7.0,-4.0,-3.0,-3.0,-2.0,-1.0,1650846658195851.0
0.0,2.0,-1.0,-2.0,-4.0,-1.0,-1.0,0.0,1650846658204787.0
-3.0,-4.0,0.0,2.0,0.0,-2.0,-2.0,-3.0,1650846658204787.0
-3.0,-2.0,-1.0,2.0,1.0,-1.0,3.0,0.0,1650846658218827.0
2.0,0.0,-1.0,-1.0,-1.0,1.0,-1.0,-1.0,1650846658218827.0
1.0,6.0,0.0,-2.0,-3.0,-1.0,0.0,2.0,1650846658220843.0
1.0,-5.0,-1.0,1.0,4.0,2.0,-1.0,-1.0,1650846658220843.0
1.0,0.0,1.0,-1.0,-2.0,-1.0,-1.0,-1.0,1650846658241767.0
4.0,0.0,2.0,0.0,0.0,0.0,1.0,2.0,1650846658241767.0
-3.0,1.0,-3.0,-1.0,-1.0,-2.0,0.0,-2.0,1650846658243761.0
-1.0,-2.0,0.0,1.0,-3.0,0.0,0.0,0.0,1650846658243761.0
0.0,-1.0,-5.0,-1.0,-2.0,-2.0,-2.0,-2.0,1650846658255732.0
0.0,0.0,6.0,3.0,3.0,0.0,1.0,0.0,1650846658255732.0
2.0,2.0,0.0,-1.0,0.0,-2.0,2.0,3.0,1650846658264734.0
0.0,-2.0,-2.0,-2.0,0.0,-1.0,0.0,1.0,1650846658264734.0
-3.0,-2.0,-2.0,-3.0,-1.0,-1.0,2.0,-1.0,1650846658279677.0
-3.0,-4.0,-4.0,2.0,-2.0,-2.0,0.0,0.0,1650846658279677.0
-1.0,1.0,0.0,1.0,1.0,2.0,-1.0,0.0,1650846658280662.0
1.0,-9.0,0.0,1.0,-5.0,-2.0,-1.0,-1.0,1650846658280662.0
1.0,15.0,0.0,0.0,-1.0,0.0,-1.0,0.0,1650846658301627.0
-1.0,-5.0,-1.0,-3.0,1.0,3.0,1.0,0.0,1650846658301627.0
0.0,-2.0,0.0,0.0,0.0,-2.0,-1.0,-1.0,1650846658303600.0
-1.0,-4.0,-3.0,-2.0,-1.0,0.0,-1.0,-1.0,1650846658303600.0
1.0,4.0,5.0,0.0,-1.0,-4.0,-3.0,-3.0,1650846658315568.0
-3.0,-2.0,-3.0,0.0,-4.0,-3.0,0.0,-1.0,1650846658315568.0
-1.0,4.0,4.0,2.0,2.0,5.0,0.0,-1.0,1650846658330528.0
-2.0,-1.0,-4.0,0.0,0.0,1.0,2.0,0.0,1650846658330528.0
-1.0,-4.0,-2.0,1.0,0.0,-2.0,-1.0,1.0,1650846658339525.0
2.0,1.0,1.0,-2.0,1.0,-2.0,-1.0,1.0,1650846658339525.0
0.0,-2.0,-4.0,-5.0,-3.0,-4.0,-2.0,-1.0,1650846658340502.0
-1.0,4.0,3.0,0.0,0.0,-1.0,2.0,0.0,1650846658340502.0
-1.0,-5.0,-2.0,-1.0,1.0,1.0,1.0,2.0,1650846658361473.0
1.0,2.0,2.0,-1.0,-1.0,0.0,-1.0,-2.0,1650846658361473.0
0.0,-2.0,-1.0,-1.0,-3.0,-2.0,-2.0,-2.0,1650846658363440.0
-1.0,0.0,0.0,-2.0,0.0,0.0,-4.0,-2.0,1650846658363440.0
0.0,-3.0,-2.0,3.0,0.0,1.0,2.0,1.0,1650846658375409.0
-2.0,-2.0,-1.0,1.0,0.0,-1.0,1.0,4.0,1650846658375409.0
1.0,0.0,0.0,0.0,1.0,0.0,-2.0,-3.0,1650846658384392.0
-4.0,-5.0,-2.0,0.0,-2.0,-2.0,-2.0,-1.0,1650846658384392.0
-2.0,-2.0,-1.0,-1.0,-1.0,0.0,-2.0,-2.0,1650846658399483.0
1.0,3.0,1.0,2.0,1.0,2.0,2.0,1.0,1650846658399483.0
-2.0,-1.0,-1.0,-1.0,1.0,-2.0,-1.0,2.0,1650846658400452.0
-1.0,1.0,-2.0,-2.0,-2.0,-1.0,0.0,2.0,1650846658400452.0
0.0,-6.0,-7.0,-1.0,2.0,0.0,-1.0,0.0,1650846658421423.0
-2.0,-3.0,0.0,-2.0,-3.0,-1.0,-3.0,-4.0,1650846658421423.0
2.0,7.0,-3.0,-2.0,-1.0,0.0,-1.0,1.0,1650846658423392.0
1.0,2.0,4.0,1.0,-1.0,-2.0,0.0,-3.0,1650846658423392.0
-1.0,-7.0,-3.0,-5.0,0.0,-1.0,2.0,0.0,1650846658435358.0
1.0,-5.0,-1.0,1.0,4.0,0.0,-2.0,-1.0,1650846658435358.0
1.0,8.0,0.0,-2.0,-4.0,-3.0,2.0,-1.0,1650846658444856.0
-3.0,-3.0,-2.0,1.0,-2.0,1.0,-1.0,1.0,1650846658444856.0
-1.0,1.0,0.0,1.0,-1.0,0.0,-1.0,0.0,1650846658459805.0
-2.0,-9.0,-4.0,-1.0,2.0,1.0,-1.0,-3.0,1650846658459805.0
-1.0,-5.0,2.0,0.0,-1.0,-1.0,0.0,0.0,1650846658460806.0
1.0,1.0,3.0,-1.0,0.0,1.0,0.0,0.0,1650846658460806.0
2.0,5.0,-1.0,-1.0,-1.0,0.0,0.0,1.0,1650846658481763.0
