EMG_s0,EMG_s1,EMG_s2,EMG_s3,EMG_s4,EMG_s5,EMG_s6,EMG_s7,timestamp
2.0,14.0,-4.0,24.0,-3.0,-3.0,-3.0,2.0,1650848851691988.0
-1.0,7.0,-2.0,-12.0,-5.0,-7.0,-4.0,2.0,1650848851691988.0
-5.0,-13.0,-1.0,-10.0,-3.0,-4.0,-1.0,-6.0,1650848851696975.0
1.0,11.0,0.0,18.0,2.0,7.0,2.0,3.0,1650848851696975.0
2.0,8.0,-2.0,1.0,-1.0,0.0,-2.0,4.0,1650848851698975.0
-3.0,-10.0,0.0,-24.0,0.0,-7.0,-2.0,-6.0,1650848851698975.0
2.0,8.0,0.0,19.0,-7.0,-8.0,-4.0,-1.0,1650848851699967.0
3.0,11.0,-3.0,6.0,6.0,13.0,3.0,5.0,1650848851699967.0
-3.0,-9.0,2.0,-16.0,-3.0,-4.0,-1.0,-3.0,1650848851710966.0
-2.0,1.0,-1.0,7.0,-5.0,-15.0,-2.0,-1.0,1650848851710966.0
2.0,12.0,0.0,10.0,-2.0,13.0,2.0,7.0,1650848851718916.0
-1.0,-2.0,-1.0,-9.0,13.0,4.0,0.0,2.0,1650848851718916.0
-2.0,-5.0,1.0,-7.0,0.0,5.0,0.0,-4.0,1650848851725897.0
3.0,7.0,-1.0,11.0,3.0,-2.0,-1.0,0.0,1650848851725897.0
3.0,8.0,-2.0,-1.0,-6.0,-7.0,-2.0,3.0,1650848851740908.0
1.0,-5.0,2.0,-4.0,-3.0,-2.0,2.0,-4.0,1650848851740908.0
1.0,3.0,0.0,5.0,5.0,-3.0,2.0,1.0,1650848851748888.0
2.0,6.0,1.0,10.0,8.0,19.0,1.0,2.0,1650848851748888.0
1.0,-5.0,0.0,-12.0,1.0,-2.0,1.0,-2.0,1650848851756867.0
-1.0,-2.0,-1.0,-7.0,-7.0,-15.0,-4.0,-1.0,1650848851756867.0
-1.0,2.0,4.0,0.0,2.0,15.0,0.0,1.0,1650848851770849.0
-2.0,-2.0,2.0,4.0,-9.0,-3.0,-1.0,0.0,1650848851770849.0
-2.0,0.0,-1.0,0.0,17.0,3.0,1.0,0.0,1650848851780801.0
2.0,-1.0,-3.0,-4.0,-2.0,7.0,-1.0,1.0,1650848851780801.0
3.0,6.0,-4.0,-2.0,-7.0,-15.0,-6.0,1.0,1650848851809733.0
-3.0,-12.0,0.0,-16.0,-4.0,3.0,1.0,-6.0,1650848851809733.0
0.0,2.0,0.0,10.0,9.0,-3.0,-1.0,-1.0,1650848851817730.0
3.0,10.0,-3.0,15.0,-3.0,-1.0,0.0,2.0,1650848851817730.0
-3.0,-11.0,3.0,-16.0,0.0,3.0,3.0,-3.0,1650848851818700.0
1.0,1.0,2.0,4.0,9.0,7.0,4.0,0.0,1650848851818700.0
1.0,7.0,-3.0,5.0,-8.0,-7.0,-2.0,1.0,1650848851819699.0
-3.0,-8.0,2.0,-11.0,2.0,-1.0,-3.0,-3.0,1650848851819699.0
-2.0,-4.0,0.0,0.0,-8.0,-19.0,-3.0,-6.0,1650848851830668.0
2.0,9.0,-1.0,18.0,8.0,24.0,5.0,5.0,1650848851830668.0
-1.0,-2.0,0.0,-10.0,-2.0,4.0,-1.0,0.0,1650848851837651.0
-4.0,-9.0,0.0,-9.0,-4.0,-11.0,-1.0,-4.0,1650848851837651.0
1.0,4.0,-1.0,10.0,5.0,6.0,0.0,3.0,1650848851845629.0
0.0,2.0,-3.0,-2.0,-7.0,-15.0,-3.0,2.0,1650848851845629.0
-1.0,-7.0,3.0,-5.0,3.0,14.0,2.0,-3.0,1650848851860612.0
1.0,0.0,-1.0,2.0,1.0,3.0,0.0,-1.0,1650848851860612.0
0.0,4.0,-2.0,4.0,7.0,5.0,-1.0,1.0,1650848851867829.0
0.0,-3.0,-5.0,-7.0,-3.0,-7.0,-4.0,-4.0,1650848851867829.0
-3.0,-5.0,-1.0,-5.0,-11.0,-8.0,-3.0,-3.0,1650848851876844.0
2.0,5.0,3.0,5.0,-4.0,-11.0,-2.0,-3.0,1650848851876844.0
0.0,0.0,-2.0,-2.0,1.0,10.0,0.0,2.0,1650848851891480.0
0.0,-1.0,0.0,-3.0,1.0,3.0,3.0,0.0,1650848851891480.0
-1.0,-1.0,-2.0,2.0,-5.0,-11.0,-2.0,0.0,1650848851897504.0
0.0,0.0,-1.0,2.0,-3.0,-2.0,-3.0,0.0,1650848851897504.0
0.0,-2.0,2.0,-4.0,4.0,10.0,7.0,-1.0,1650848851905535.0
0.0,-2.0,-1.0,-2.0,-8.0,-13.0,-4.0,-3.0,1650848851905535.0
0.0,5.0,-1.0,0.0,5.0,5.0,-1.0,0.0,1650848851920686.0
-1.0,-3.0,-2.0,-7.0,-11.0,-8.0,0.0,-2.0,1650848851920686.0
0.0,-1.0,2.0,4.0,0.0,0.0,-2.0,-1.0,1650848851927600.0
-1.0,-1.0,0.0,4.0,2.0,1.0,-1.0,1.0,1650848851927600.0
1.0,-3.0,1.0,-4.0,-1.0,1.0,0.0,-1.0,1650848851936587.0
-2.0,-2.0,-5.0,-2.0,-5.0,-10.0,-3.0,-3.0,1650848851936587.0
0.0,3.0,-2.0,2.0,0.0,14.0,2.0,1.0,1650848851950601.0
-2.0,-1.0,2.0,-1.0,1.0,-12.0,-4.0,-1.0,1650848851950601.0
0.0,0.0,0.0,-2.0,-5.0,5.0,1.0,2.0,1650848851957584.0
-1.0,-2.0,-1.0,1.0,4.0,8.0,3.0,1.0,1650848851957584.0
-2.0,-1.0,-3.0,-3.0,-7.0,-11.0,-5.0,-1.0,1650848851965745.0
-2.0,-2.0,0.0,-2.0,1.0,-9.0,-5.0,-1.0,1650848851965745.0
1.0,0.0,2.0,6.0,9.0,26.0,4.0,0.0,1650848851980692.0
0.0,-1.0,-2.0,0.0,-8.0,-7.0,-2.0,0.0,1650848851980692.0
0.0,-1.0,1.0,-3.0,3.0,-5.0,-1.0,0.0,1650848851987674.0
-1.0,-3.0,-1.0,-4.0,-4.0,-4.0,-2.0,-2.0,1650848851987674.0
0.0,0.0,-3.0,-2.0,-9.0,-16.0,-3.0,-3.0,1650848851996607.0
1.0,2.0,3.0,-1.0,7.0,15.0,3.0,2.0,1650848851996607.0
-4.0,-4.0,1.0,11.0,-2.0,-12.0,-3.0,-2.0,1650848852010958.0
1.0,3.0,-1.0,1.0,7.0,8.0,2.0,1.0,1650848852010958.0
-1.0,-2.0,0.0,-3.0,-8.0,-2.0,2.0,-1.0,1650848852017940.0
-1.0,1.0,-3.0,-3.0,12.0,3.0,-2.0,0.0,1650848852017940.0
-1.0,-1.0,-3.0,-1.0,-3.0,0.0,1.0,-1.0,1650848852025870.0
-3.0,-1.0,-1.0,3.0,-8.0,-10.0,-3.0,-1.0,1650848852025870.0
0.0,-3.0,-2.0,-1.0,5.0,-14.0,-5.0,-2.0,1650848852039841.0
0.0,0.0,0.0,3.0,-4.0,38.0,4.0,1.0,1650848852039841.0
0.0,-1.0,1.0,-1.0,-2.0,-3.0,-2.0,0.0,1650848852047860.0
0.0,0.0,2.0,2.0,11.0,8.0,2.0,1.0,1650848852047860.0
0.0,-1.0,-4.0,-2.0,0.0,-10.0,-1.0,-4.0,1650848852062830.0
-1.0,0.0,-2.0,-2.0,-4.0,-15.0,-4.0,0.0,1650848852062830.0
0.0,0.0,-1.0,-1.0,-6.0,2.0,0.0,0.0,1650848852070806.0
-2.0,-2.0,0.0,-6.0,-9.0,4.0,4.0,-3.0,1650848852070806.0
0.0,-1.0,0.0,5.0,7.0,-2.0,-2.0,-1.0,1650848852077851.0
-1.0,-1.0,-1.0,2.0,-4.0,-21.0,-3.0,0.0,1650848852077851.0
2.0,1.0,-1.0,0.0,11.0,35.0,7.0,2.0,1650848852085806.0
0.0,-3.0,1.0,-2.0,2.0,-3.0,1.0,1.0,1650848852085806.0
-1.0,-1.0,-2.0,-2.0,4.0,3.0,-1.0,-1.0,1650848852100795.0
-1.0,0.0,0.0,-2.0,-3.0,-9.0,-2.0,-2.0,1650848852100795.0
-2.0,0.0,0.0,-1.0,-8.0,-10.0,-2.0,-2.0,1650848852107817.0
0.0,1.0,-2.0,2.0,-4.0,0.0,-1.0,0.0,1650848852107817.0
-3.0,-2.0,0.0,-3.0,-3.0,-16.0,-2.0,2.0,1650848852122776.0
0.0,0.0,2.0,2.0,12.0,40.0,10.0,4.0,1650848852122776.0
-2.0,-1.0,-1.0,-1.0,-1.0,-12.0,-3.0,-4.0,1650848852130688.0
1.0,0.0,-1.0,-2.0,2.0,6.0,-1.0,1.0,1650848852130688.0
-1.0,-4.0,-1.0,-2.0,-6.0,-8.0,-1.0,0.0,1650848852137737.0
-1.0,-2.0,1.0,-2.0,-1.0,-11.0,-3.0,-1.0,1650848852137737.0
-1.0,0.0,-3.0,0.0,-1.0,-1.0,0.0,1.0,1650848852145677.0
-1.0,0.0,0.0,-1.0,-2.0,0.0,1.0,0.0,1650848852145677.0
1.0,0.0,3.0,7.0,0.0,1.0,-2.0,1.0,1650848852168779.0
-3.0,-2.0,-3.0,-1.0,1.0,-3.0,-3.0,0.0,1650848852168779.0
1.0,2.0,2.0,0.0,-7.0,-4.0,0.0,-2.0,1650848852169710.0
1.0,0.0,-1.0,-3.0,4.0,8.0,0.0,0.0,1650848852169710.0
-1.0,-1.0,-1.0,-2.0,4.0,7.0,0.0,-2.0,1650848852183253.0
-2.0,0.0,-2.0,0.0,0.0,-1.0,-2.0,-1.0,1650848852183253.0
-2.0,-6.0,-2.0,-6.0,-9.0,-31.0,-5.0,-3.0,1650848852191302.0
0.0,1.0,-2.0,2.0,-5.0,18.0,5.0,1.0,1650848852191302.0
0.0,3.0,3.0,5.0,-1.0,4.0,3.0,3.0,1650848852198219.0
0.0,-1.0,3.0,1.0,11.0,0.0,-1.0,-1.0,1650848852198219.0
-2.0,-4.0,-2.0,-3.0,-3.0,-5.0,0.0,-1.0,1650848852205262.0
-2.0,-1.0,-1.0,1.0,-7.0,-13.0,-4.0,-2.0,1650848852205262.0
-1.0,-2.0,-3.0,-1.0,0.0,6.0,1.0,1.0,1650848852220184.0
0.0,-4.0,2.0,-3.0,-4.0,-10.0,-2.0,1.0,1650848852220184.0
0.0,3.0,1.0,8.0,5.0,13.0,0.0,0.0,1650848852228135.0
0.0,-1.0,0.0,-2.0,3.0,-2.0,1.0,0.0,1650848852228135.0
0.0,-2.0,-3.0,-4.0,1.0,3.0,0.0,-3.0,1650848852243122.0
0.0,1.0,-2.0,-2.0,-6.0,-4.0,0.0,-3.0,1650848852243122.0
1.0,0.0,0.0,4.0,8.0,5.0,-3.0,1.0,1650848852251134.0
-3.0,-2.0,-2.0,-7.0,-9.0,-8.0,-4.0,-1.0,1650848852251134.0
0.0,-2.0,0.0,1.0,-6.0,0.0,-2.0,-3.0,1650848852258082.0
1.0,-2.0,3.0,3.0,0.0,-15.0,-3.0,-2.0,1650848852258082.0
0.0,1.0,-1.0,-4.0,5.0,26.0,2.0,1.0,1650848852265036.0
-1.0,-4.0,2.0,-1.0,-4.0,-8.0,-1.0,-2.0,1650848852265036.0
-1.0,2.0,-2.0,1.0,1.0,-5.0,-1.0,0.0,1650848852279996.0
1.0,0.0,-3.0,-4.0,-1.0,8.0,2.0,-1.0,1650848852279996.0
-1.0,-1.0,2.0,-4.0,-7.0,-13.0,-3.0,-2.0,1650848852287893.0
-2.0,-1.0,-5.0,0.0,-1.0,-3.0,-5.0,-3.0,1650848852287893.0
0.0,1.0,1.0,4.0,5.0,0.0,0.0,0.0,1650848852303001.0
-1.0,-3.0,0.0,-6.0,-14.0,-7.0,-2.0,-2.0,1650848852303001.0
1.0,1.0,-3.0,8.0,13.0,2.0,0.0,0.0,1650848852310012.0
1.0,1.0,0.0,0.0,4.0,18.0,3.0,1.0,1650848852310012.0
-1.0,-3.0,-1.0,-5.0,-7.0,-5.0,0.0,-2.0,1650848852326966.0
0.0,-2.0,-2.0,2.0,0.0,2.0,-1.0,0.0,1650848852326966.0
-1.0,-2.0,-1.0,-5.0,-3.0,-25.0,-7.0,-1.0,1650848852327939.0
0.0,3.0,-2.0,8.0,4.0,31.0,10.0,1.0,1650848852327939.0
0.0,0.0,2.0,1.0,6.0,4.0,0.0,-2.0,1650848852339904.0
-1.0,-1.0,0.0,-5.0,-4.0,1.0,1.0,-2.0,1650848852339904.0
-2.0,-2.0,0.0,0.0,-5.0,-2.0,-1.0,0.0,1650848852347884.0
-1.0,-1.0,1.0,-2.0,-2.0,-21.0,-6.0,-1.0,1650848852347884.0
-1.0,-2.0,-5.0,-2.0,-2.0,2.0,-1.0,-1.0,1650848852362871.0
1.0,0.0,0.0,4.0,-2.0,0.0,0.0,1.0,1650848852362871.0
-2.0,-1.0,0.0,-2.0,0.0,5.0,2.0,-1.0,1650848852369825.0
0.0,0.0,0.0,-7.0,2.0,0.0,-1.0,-1.0,1650848852369825.0
1.0,-2.0,0.0,2.0,3.0,3.0,0.0,-3.0,1650848852378835.0
-2.0,-1.0,-3.0,0.0,-2.0,-12.0,-4.0,-2.0,1650848852378835.0
0.0,-2.0,-1.0,-3.0,5.0,19.0,5.0,0.0,1650848852393787.0
-1.0,-2.0,1.0,0.0,-8.0,-14.0,-2.0,-2.0,1650848852393787.0
-1.0,1.0,-3.0,-4.0,-5.0,-1.0,-2.0,0.0,1650848852400769.0
0.0,-2.0,-2.0,-6.0,-6.0,-14.0,-2.0,-2.0,1650848852400769.0
2.0,2.0,2.0,6.0,8.0,16.0,2.0,2.0,1650848852407723.0
0.0,-3.0,0.0,-2.0,4.0,-6.0,-2.0,-1.0,1650848852407723.0
-1.0,0.0,-2.0,-5.0,-9.0,-16.0,0.0,-1.0,1650848852422808.0
0.0,0.0,-2.0,1.0,15.0,33.0,3.0,1.0,1650848852422808.0
-2.0,-4.0,-4.0,-8.0,-10.0,-15.0,-4.0,-4.0,1650848852430760.0
0.0,1.0,9.0,12.0,6.0,0.0,-3.0,1.0,1650848852430760.0
-1.0,-4.0,-1.0,-6.0,-7.0,-2.0,-3.0,0.0,1650848852439748.0
1.0,1.0,-1.0,1.0,1.0,-5.0,1.0,-1.0,1650848852439748.0
-1.0,0.0,-1.0,-4.0,1.0,5.0,1.0,1.0,1650848852453726.0
0.0,-4.0,-3.0,-5.0,-10.0,-10.0,-1.0,-2.0,1650848852453726.0
0.0,0.0,2.0,6.0,4.0,-4.0,-2.0,0.0,1650848852460706.0
-1.0,-1.0,0.0,-1.0,11.0,19.0,4.0,0.0,1650848852460706.0
-2.0,-4.0,2.0,-6.0,-11.0,-13.0,-2.0,-2.0,1650848852467729.0
-1.0,-2.0,-3.0,4.0,5.0,1.0,-1.0,-1.0,1650848852467729.0
-2.0,-2.0,-1.0,-1.0,-3.0,2.0,-2.0,-1.0,1650848852482622.0
-1.0,-1.0,-5.0,-2.0,-7.0,-25.0,-7.0,-1.0,1650848852482622.0
1.0,2.0,0.0,5.0,4.0,31.0,7.0,2.0,1650848852490627.0
-1.0,-1.0,-1.0,-4.0,-3.0,-5.0,-1.0,0.0,1650848852490627.0
2.0,1.0,0.0,4.0,7.0,4.0,1.0,3.0,1650848852499576.0
0.0,-5.0,0.0,-4.0,2.0,-3.0,0.0,-2.0,1650848852499576.0
-2.0,-2.0,1.0,2.0,-7.0,-13.0,-5.0,-3.0,1650848852513538.0
-2.0,0.0,-1.0,7.0,-2.0,-1.0,0.0,0.0,1650848852513538.0
1.0,1.0,0.0,-2.0,14.0,13.0,2.0,0.0,1650848852520519.0
-1.0,0.0,1.0,-1.0,-10.0,-8.0,-2.0,-2.0,1650848852520519.0
0.0,0.0,-3.0,-3.0,3.0,-3.0,-1.0,1.0,1650848852527528.0
-1.0,-3.0,-5.0,-7.0,-10.0,-13.0,-3.0,-3.0,1650848852527528.0
0.0,0.0,1.0,2.0,4.0,24.0,4.0,1.0,1650848852542491.0
0.0,-1.0,3.0,2.0,-2.0,-3.0,1.0,-3.0,1650848852542491.0
-1.0,0.0,1.0,0.0,-8.0,-8.0,-3.0,-3.0,1650848852550508.0
-3.0,-1.0,-2.0,-2.0,6.0,-5.0,0.0,-2.0,1650848852550508.0
0.0,-1.0,0.0,0.0,2.0,15.0,7.0,0.0,1650848852566464.0
-1.0,1.0,-4.0,1.0,-2.0,-6.0,0.0,1.0,1650848852566464.0
-3.0,0.0,-2.0,-1.0,3.0,6.0,-1.0,0.0,1650848852573405.0
0.0,-2.0,4.0,-1.0,-1.0,-4.0,1.0,0.0,1650848852573405.0
-1.0,0.0,-4.0,0.0,-3.0,-13.0,-4.0,-2.0,1650848852580360.0
1.0,1.0,0.0,-3.0,5.0,14.0,0.0,0.0,1650848852580360.0
-2.0,-3.0,1.0,-1.0,-3.0,-18.0,-3.0,-3.0,1650848852587341.0
1.0,2.0,-3.0,3.0,-2.0,2.0,1.0,1.0,1650848852587341.0
-1.0,-1.0,2.0,-3.0,-8.0,-10.0,-3.0,0.0,1650848852603011.0
-1.0,-1.0,0.0,4.0,12.0,26.0,4.0,1.0,1650848852603011.0
-2.0,-6.0,-1.0,0.0,-2.0,-5.0,-2.0,-4.0,1650848852609958.0
0.0,0.0,-2.0,1.0,-5.0,1.0,-3.0,-3.0,1650848852609958.0
-1.0,1.0,2.0,-5.0,-2.0,-7.0,1.0,-1.0,1650848852618950.0
-1.0,-2.0,-1.0,-1.0,-7.0,-12.0,-2.0,-1.0,1650848852618950.0
1.0,3.0,1.0,0.0,-4.0,-22.0,-4.0,-1.0,1650848852633979.0
1.0,2.0,-2.0,3.0,13.0,52.0,11.0,2.0,1650848852633979.0
-2.0,-4.0,0.0,-4.0,7.0,-8.0,0.0,-2.0,1650848852639993.0
-1.0,-2.0,3.0,4.0,2.0,4.0,-1.0,1.0,1650848852639993.0
1.0,0.0,-4.0,-3.0,-3.0,0.0,1.0,0.0,1650848852655893.0
-2.0,-4.0,1.0,-3.0,-11.0,-24.0,-6.0,0.0,1650848852655893.0
1.0,2.0,-3.0,0.0,-5.0,-4.0,-2.0,1.0,1650848852662842.0
-1.0,1.0,-1.0,1.0,4.0,8.0,2.0,2.0,1650848852662842.0
1.0,-2.0,-2.0,-1.0,5.0,2.0,0.0,-1.0,1650848852670849.0
-2.0,-1.0,-1.0,-5.0,-13.0,-23.0,-6.0,-2.0,1650848852670849.0
-1.0,3.0,1.0,10.0,10.0,25.0,0.0,2.0,1650848852685778.0
0.0,-5.0,-1.0,-4.0,6.0,3.0,3.0,-2.0,1650848852685778.0
0.0,-3.0,1.0,-3.0,-10.0,-7.0,0.0,-2.0,1650848852693786.0
0.0,2.0,0.0,-1.0,1.0,0.0,-1.0,1.0,1650848852693786.0
-2.0,-4.0,-3.0,-8.0,-7.0,-21.0,-4.0,-3.0,1650848852700789.0
0.0,1.0,-2.0,1.0,-7.0,7.0,-6.0,1.0,1650848852700789.0
2.0,-1.0,-1.0,-1.0,2.0,7.0,2.0,1.0,1650848852707779.0
-1.0,-1.0,-2.0,-2.0,3.0,1.0,0.0,-3.0,1650848852707779.0
-1.0,-2.0,-1.0,-4.0,-7.0,-9.0,-5.0,-2.0,1650848852722739.0
-1.0,-1.0,6.0,8.0,4.0,-6.0,-3.0,-1.0,1650848852722739.0
-2.0,1.0,-2.0,1.0,0.0,-2.0,-2.0,-1.0,1650848852730690.0
0.0,0.0,0.0,-1.0,1.0,3.0,-1.0,-1.0,1650848852730690.0
0.0,-1.0,-3.0,-4.0,-8.0,-17.0,-3.0,-3.0,1650848852739694.0
1.0,3.0,-4.0,2.0,3.0,13.0,3.0,2.0,1650848852739694.0
-1.0,0.0,0.0,-1.0,4.0,-6.0,-1.0,2.0,1650848852753629.0
1.0,-1.0,-2.0,1.0,7.0,27.0,12.0,2.0,1650848852753629.0
-1.0,-2.0,-1.0,3.0,1.0,-5.0,1.0,-3.0,1650848852760631.0
0.0,0.0,2.0,-1.0,-6.0,-5.0,0.0,-1.0,1650848852760631.0
-1.0,-5.0,0.0,-5.0,-1.0,-1.0,-3.0,-2.0,1650848852767660.0
-2.0,-2.0,-3.0,-1.0,-6.0,-14.0,-5.0,-1.0,1650848852767660.0
0.0,-1.0,-1.0,0.0,-4.0,4.0,-1.0,0.0,1650848852782552.0
-2.0,0.0,0.0,0.0,0.0,-7.0,2.0,-1.0,1650848852782552.0
0.0,-1.0,0.0,-1.0,0.0,1.0,-1.0,-1.0,1650848852790558.0
-1.0,2.0,0.0,-2.0,-2.0,2.0,-1.0,1.0,1650848852790558.0
0.0,0.0,1.0,1.0,5.0,11.0,2.0,1.0,1650848852805490.0
-2.0,-5.0,0.0,-1.0,5.0,-2.0,-3.0,-1.0,1650848852805490.0
0.0,-2.0,-2.0,-3.0,1.0,3.0,4.0,0.0,1650848852813496.0
-2.0,-3.0,-1.0,7.0,-1.0,-5.0,-3.0,-1.0,1650848852813496.0
-2.0,-1.0,0.0,-4.0,-8.0,-8.0,-4.0,-1.0,1650848852828428.0
0.0,3.0,-1.0,0.0,5.0,-6.0,-3.0,-1.0,1650848852828428.0
1.0,-1.0,-1.0,-2.0,-2.0,12.0,4.0,2.0,1650848852829426.0
0.0,0.0,0.0,2.0,7.0,0.0,-4.0,1.0,1650848852829426.0
0.0,-5.0,1.0,-1.0,-5.0,-5.0,-1.0,-3.0,1650848852844429.0
-3.0,-1.0,-4.0,0.0,-10.0,-19.0,-5.0,-4.0,1650848852844429.0
0.0,3.0,6.0,6.0,14.0,26.0,3.0,4.0,1650848852850438.0
-1.0,-4.0,1.0,-10.0,-3.0,-8.0,0.0,-4.0,1650848852850438.0
0.0,0.0,-3.0,1.0,1.0,0.0,-2.0,-1.0,1650848852865331.0
0.0,-1.0,-5.0,-6.0,-15.0,-12.0,0.0,0.0,1650848852865331.0
0.0,0.0,4.0,6.0,11.0,12.0,3.0,0.0,1650848852873336.0
0.0,-3.0,-2.0,-4.0,5.0,1.0,1.0,-1.0,1650848852873336.0
-3.0,4.0,0.0,0.0,-6.0,5.0,0.0,1.0,1650848852888409.0
0.0,-4.0,-2.0,-3.0,-2.0,-10.0,-1.0,-1.0,1650848852888409.0
-2.0,-3.0,-4.0,-7.0,-14.0,-3.0,3.0,-1.0,1650848852889380.0
1.0,1.0,1.0,2.0,7.0,2.0,-1.0,0.0,1650848852889380.0
-2.0,-1.0,-3.0,-2.0,0.0,1.0,-1.0,-1.0,1650848852902411.0
-1.0,1.0,-3.0,-3.0,-4.0,-10.0,-1.0,-1.0,1650848852902411.0
-3.0,0.0,1.0,5.0,2.0,5.0,-3.0,-2.0,1650848852910351.0
2.0,-2.0,-2.0,2.0,1.0,0.0,0.0,0.0,1650848852910351.0
1.0,-1.0,-1.0,-1.0,1.0,3.0,-1.0,-1.0,1650848852925311.0
1.0,0.0,1.0,4.0,4.0,4.0,0.0,-3.0,1650848852925311.0
1.0,1.0,-5.0,-5.0,-4.0,-11.0,-4.0,0.0,1650848852933262.0
0.0,2.0,10.0,7.0,0.0,10.0,1.0,-1.0,1650848852933262.0
-3.0,-4.0,2.0,3.0,-8.0,-16.0,-2.0,-2.0,1650848852948223.0
0.0,2.0,-1.0,1.0,10.0,31.0,4.0,3.0,1650848852948223.0
-1.0,-2.0,-3.0,-9.0,-1.0,-13.0,-4.0,-3.0,1650848852949229.0
-2.0,-2.0,-4.0,-4.0,-2.0,-10.0,-4.0,-1.0,1650848852949229.0
0.0,0.0,-1.0,2.0,-11.0,-15.0,-3.0,-1.0,1650848852964179.0
0.0,1.0,3.0,0.0,11.0,33.0,8.0,3.0,1650848852964179.0
-1.0,-2.0,0.0,-2.0,-6.0,-7.0,-2.0,-1.0,1650848852970231.0
-3.0,-1.0,-3.0,1.0,-6.0,-7.0,-2.0,0.0,1650848852970231.0
2.0,0.0,3.0,2.0,9.0,2.0,0.0,2.0,1650848852985692.0
-2.0,0.0,2.0,-5.0,-4.0,2.0,0.0,-1.0,1650848852985692.0
0.0,-2.0,-3.0,-3.0,0.0,0.0,-2.0,-2.0,1650848852994128.0
-3.0,0.0,-3.0,-2.0,-6.0,-5.0,-2.0,-2.0,1650848852994128.0
0.0,3.0,-2.0,-1.0,-1.0,0.0,-1.0,1.0,1650848853008803.0
1.0,-3.0,-4.0,-6.0,-7.0,-11.0,-3.0,-2.0,1650848853008803.0
2.0,1.0,5.0,6.0,5.0,5.0,1.0,1.0,1650848853008803.0
-1.0,4.0,-1.0,0.0,-7.0,-15.0,-3.0,-1.0,1650848853008803.0
-1.0,-2.0,-4.0,-9.0,6.0,26.0,6.0,0.0,1650848853022763.0
-2.0,-4.0,0.0,4.0,-7.0,-10.0,-2.0,-2.0,1650848853022763.0
-3.0,1.0,-5.0,3.0,-3.0,-18.0,-7.0,-3.0,1650848853029747.0
2.0,-2.0,-2.0,1.0,-4.0,16.0,10.0,3.0,1650848853029747.0
-2.0,-4.0,1.0,0.0,14.0,6.0,-2.0,-2.0,1650848853045702.0
-1.0,-14.0,5.0,-2.0,-7.0,-6.0,-2.0,0.0,1650848853045702.0
2.0,23.0,0.0,-3.0,-5.0,-7.0,-2.0,-3.0,1650848853053717.0
-3.0,-12.0,-5.0,1.0,-2.0,-13.0,-1.0,-2.0,1650848853053717.0
0.0,0.0,1.0,-1.0,-1.0,15.0,2.0,1.0,1650848853068680.0
1.0,-4.0,-4.0,2.0,0.0,-6.0,3.0,0.0,1650848853068680.0
-1.0,-9.0,1.0,-1.0,4.0,7.0,1.0,0.0,1650848853069651.0
0.0,3.0,0.0,-2.0,1.0,0.0,-2.0,-2.0,1650848853069651.0
-2.0,-2.0,-2.0,3.0,-3.0,-4.0,-2.0,-2.0,1650848853082605.0
-1.0,1.0,-3.0,-4.0,0.0,-3.0,-3.0,-1.0,1650848853082605.0
0.0,-6.0,0.0,1.0,-5.0,-6.0,-1.0,-1.0,1650848853090584.0
1.0,4.0,-1.0,1.0,3.0,11.0,1.0,0.0,1650848853090584.0
1.0,-5.0,0.0,-1.0,5.0,4.0,4.0,1.0,1650848853105679.0
-1.0,3.0,1.0,-4.0,-4.0,-5.0,-3.0,-3.0,1650848853105679.0
-1.0,-4.0,-3.0,5.0,0.0,3.0,-2.0,1.0,1650848853113658.0
-1.0,-3.0,0.0,-3.0,1.0,-9.0,-1.0,-1.0,1650848853113658.0
2.0,0.0,1.0,2.0,-1.0,-10.0,-1.0,-1.0,1650848853128618.0
-2.0,4.0,-1.0,-4.0,-9.0,10.0,0.0,-1.0,1650848853128618.0
3.0,-1.0,3.0,3.0,6.0,-3.0,1.0,2.0,1650848853129609.0
-1.0,-3.0,-1.0,-5.0,2.0,2.0,-3.0,-1.0,1650848853129609.0
-2.0,1.0,-2.0,1.0,0.0,-1.0,-1.0,0.0,1650848853142581.0
-1.0,1.0,1.0,2.0,-4.0,-7.0,-2.0,-2.0,1650848853142581.0
-3.0,-6.0,-3.0,-2.0,-6.0,-2.0,-2.0,0.0,1650848853158679.0
-1.0,0.0,1.0,-1.0,2.0,-1.0,0.0,1.0,1650848853158679.0
0.0,3.0,-2.0,0.0,-2.0,4.0,0.0,1.0,1650848853165670.0
-1.0,4.0,5.0,2.0,3.0,-7.0,-1.0,2.0,1650848853165670.0
-2.0,-7.0,-2.0,-3.0,-9.0,3.0,2.0,-2.0,1650848853173704.0
1.0,3.0,0.0,9.0,6.0,-7.0,-3.0,1.0,1650848853173704.0
-2.0,-24.0,-5.0,4.0,7.0,22.0,8.0,3.0,1650848853188677.0
1.0,24.0,1.0,-2.0,-3.0,-12.0,-3.0,-2.0,1650848853188677.0
1.0,-4.0,-2.0,-4.0,1.0,9.0,3.0,1.0,1650848853195686.0
-3.0,-3.0,3.0,2.0,-7.0,-21.0,-6.0,-3.0,1650848853195686.0
-1.0,-5.0,-4.0,-2.0,-2.0,-2.0,-3.0,-1.0,1650848853202706.0
-1.0,-8.0,-4.0,-4.0,-5.0,1.0,1.0,1.0,1650848853202706.0
1.0,4.0,-2.0,4.0,10.0,-1.0,2.0,2.0,1650848853210648.0
2.0,1.0,-1.0,2.0,1.0,13.0,2.0,2.0,1650848853210648.0
-1.0,2.0,3.0,-5.0,-5.0,-9.0,-1.0,-2.0,1650848853225606.0
0.0,-6.0,-2.0,0.0,-1.0,-1.0,1.0,-2.0,1650848853225606.0
-3.0,3.0,0.0,0.0,-7.0,-7.0,-4.0,-3.0,1650848853233559.0
0.0,-4.0,0.0,-1.0,0.0,5.0,1.0,0.0,1650848853233559.0
1.0,6.0,-1.0,0.0,2.0,-8.0,-1.0,0.0,1650848853248518.0
-1.0,-2.0,-1.0,1.0,2.0,4.0,-1.0,0.0,1650848853248518.0
-1.0,-4.0,1.0,5.0,3.0,16.0,2.0,-1.0,1650848853249515.0
0.0,-1.0,0.0,-5.0,-3.0,5.0,0.0,0.0,1650848853249515.0
-2.0,6.0,4.0,3.0,1.0,-6.0,-3.0,-2.0,1650848853262507.0
-1.0,-5.0,-7.0,1.0,-2.0,-6.0,-2.0,-2.0,1650848853262507.0
-3.0,-2.0,-1.0,-4.0,-7.0,-18.0,-2.0,-3.0,1650848853278464.0
-2.0,0.0,0.0,4.0,5.0,20.0,1.0,-2.0,1650848853278464.0
0.0,1.0,-4.0,-2.0,-7.0,-4.0,0.0,1.0,1650848853285718.0
-1.0,-5.0,1.0,3.0,2.0,-2.0,-2.0,-2.0,1650848853285718.0
0.0,0.0,0.0,-2.0,2.0,-3.0,-1.0,-1.0,1650848853293417.0
1.0,3.0,0.0,-1.0,-6.0,-1.0,-1.0,3.0,1650848853293417.0
-1.0,-2.0,0.0,-2.0,6.0,2.0,-1.0,-1.0,1650848853308216.0
-2.0,-4.0,-1.0,-1.0,-1.0,1.0,2.0,-3.0,1650848853308216.0
-1.0,-2.0,-1.0,-1.0,-6.0,-2.0,-2.0,-1.0,1650848853309198.0
1.0,2.0,-4.0,-1.0,-4.0,-5.0,-2.0,-1.0,1650848853309198.0
-1.0,-3.0,-3.0,-4.0,-6.0,-2.0,-2.0,-1.0,1650848853323175.0
0.0,7.0,1.0,4.0,6.0,8.0,2.0,2.0,1650848853323175.0
-1.0,2.0,1.0,0.0,-4.0,-7.0,-2.0,-2.0,1650848853330160.0
0.0,-3.0,-1.0,1.0,3.0,2.0,-1.0,-1.0,1650848853330160.0
-1.0,0.0,0.0,-1.0,-2.0,-2.0,-3.0,-1.0,1650848853345117.0
0.0,-3.0,-3.0,-4.0,2.0,3.0,2.0,1.0,1650848853345117.0
3.0,1.0,3.0,4.0,5.0,7.0,5.0,3.0,1650848853354133.0
0.0,-3.0,-1.0,-5.0,2.0,-1.0,-3.0,0.0,1650848853354133.0
-1.0,2.0,-1.0,-2.0,-2.0,-4.0,0.0,-1.0,1650848853368030.0
0.0,0.0,0.0,1.0,-2.0,-2.0,-2.0,1.0,1650848853368030.0
-2.0,-3.0,0.0,-1.0,-2.0,-1.0,-1.0,-4.0,1650848853376035.0
-2.0,0.0,-4.0,1.0,-3.0,-12.0,-3.0,-3.0,1650848853376035.0
3.0,5.0,2.0,3.0,-1.0,7.0,3.0,0.0,1650848853382989.0
0.0,-3.0,0.0,-6.0,1.0,1.0,-2.0,0.0,1650848853382989.0
0.0,0.0,-2.0,0.0,4.0,5.0,1.0,0.0,1650848853389997.0
-1.0,0.0,0.0,4.0,1.0,-2.0,1.0,-1.0,1650848853389997.0
0.0,-4.0,-1.0,-4.0,-7.0,-12.0,-2.0,-2.0,1650848853404957.0
1.0,-3.0,1.0,2.0,9.0,20.0,4.0,2.0,1650848853404957.0
0.0,-1.0,0.0,6.0,2.0,-4.0,-3.0,0.0,1650848853413907.0
-1.0,-1.0,-4.0,-6.0,-5.0,-9.0,-2.0,-1.0,1650848853413907.0
-2.0,-3.0,1.0,-5.0,-10.0,-7.0,0.0,-2.0,1650848853427978.0
-1.0,0.0,-1.0,3.0,-6.0,-2.0,1.0,0.0,1650848853427978.0
2.0,-1.0,0.0,1.0,6.0,25.0,4.0,2.0,1650848853435997.0
-1.0,-3.0,0.0,-4.0,3.0,-3.0,1.0,-2.0,1650848853435997.0
2.0,0.0,-2.0,1.0,-1.0,-3.0,0.0,-3.0,1650848853442911.0
-3.0,-1.0,-2.0,2.0,0.0,-11.0,-3.0,-3.0,1650848853442911.0
-2.0,0.0,0.0,-2.0,-3.0,-8.0,-1.0,-1.0,1650848853449894.0
2.0,-2.0,0.0,-2.0,-6.0,4.0,0.0,0.0,1650848853449894.0
-2.0,1.0,-3.0,2.0,10.0,4.0,-2.0,-1.0,1650848853464879.0
-1.0,-3.0,0.0,-2.0,-9.0,-7.0,-4.0,-3.0,1650848853464879.0
-1.0,-2.0,1.0,-2.0,5.0,10.0,3.0,1.0,1650848853473828.0
1.0,1.0,2.0,-1.0,-6.0,-2.0,0.0,0.0,1650848853473828.0
0.0,1.0,-1.0,3.0,2.0,3.0,1.0,1.0,1650848853487957.0
-1.0,-1.0,2.0,-1.0,-1.0,-6.0,-2.0,-2.0,1650848853487957.0
-2.0,0.0,1.0,-4.0,-6.0,-16.0,-4.0,-3.0,1650848853495869.0
-2.0,2.0,-2.0,4.0,1.0,12.0,-1.0,-1.0,1650848853495869.0
-2.0,-2.0,1.0,-1.0,2.0,-7.0,-1.0,0.0,1650848853518968.0
2.0,-1.0,-3.0,-2.0,-4.0,7.0,2.0,0.0,1650848853518968.0
0.0,0.0,-2.0,-1.0,9.0,5.0,0.0,1.0,1650848853519902.0
-1.0,-2.0,1.0,0.0,-6.0,0.0,3.0,-2.0,1650848853519902.0
-1.0,-2.0,-3.0,1.0,0.0,-8.0,-2.0,-3.0,1650848853524888.0
0.0,0.0,-2.0,-3.0,-3.0,-3.0,0.0,0.0,1650848853524888.0
-1.0,1.0,0.0,-1.0,-5.0,-11.0,-3.0,-2.0,1650848853533872.0
-1.0,-4.0,2.0,-6.0,-5.0,-18.0,-3.0,-1.0,1650848853533872.0
1.0,2.0,2.0,-1.0,7.0,26.0,2.0,2.0,1650848853556975.0
-2.0,0.0,0.0,3.0,3.0,3.0,-2.0,-2.0,1650848853556975.0
0.0,-2.0,-4.0,-3.0,-2.0,0.0,-1.0,-3.0,1650848853556975.0
-1.0,0.0,-3.0,-3.0,-2.0,-5.0,-5.0,-4.0,1650848853556975.0
1.0,0.0,1.0,-1.0,-8.0,-3.0,-3.0,0.0,1650848853570976.0
1.0,-1.0,-2.0,-8.0,0.0,-1.0,-2.0,1.0,1650848853570976.0
0.0,-3.0,-1.0,0.0,-1.0,-4.0,-1.0,-1.0,1650848853571904.0
-1.0,1.0,-1.0,1.0,4.0,9.0,1.0,2.0,1650848853571904.0
0.0,1.0,2.0,-3.0,-4.0,-12.0,-3.0,-1.0,1650848853584869.0
-1.0,-5.0,-1.0,-2.0,-8.0,-14.0,-3.0,-1.0,1650848853584869.0
0.0,1.0,-3.0,6.0,8.0,15.0,3.0,2.0,1650848853593873.0
2.0,1.0,2.0,0.0,11.0,11.0,6.0,3.0,1650848853593873.0
-1.0,-2.0,0.0,-4.0,-6.0,-3.0,-2.0,-2.0,1650848853608084.0
-2.0,1.0,1.0,-1.0,4.0,0.0,-2.0,0.0,1650848853608084.0
-1.0,0.0,-3.0,-2.0,-11.0,-14.0,-3.0,-3.0,1650848853616078.0
-1.0,-1.0,-4.0,-3.0,-6.0,-20.0,-8.0,-1.0,1650848853616078.0
2.0,0.0,0.0,4.0,9.0,39.0,15.0,2.0,1650848853631053.0
2.0,-1.0,2.0,4.0,3.0,-2.0,0.0,0.0,1650848853631053.0
0.0,0.0,0.0,4.0,1.0,0.0,-3.0,1.0,1650848853632021.0
-2.0,-4.0,0.0,-6.0,3.0,-6.0,-3.0,-2.0,1650848853632021.0
-1.0,-2.0,-2.0,-7.0,-15.0,-20.0,-6.0,-3.0,1650848853644985.0
0.0,-1.0,-2.0,1.0,3.0,8.0,1.0,1.0,1650848853644985.0
1.0,-2.0,1.0,0.0,-4.0,-2.0,2.0,0.0,1650848853654017.0
1.0,0.0,2.0,-2.0,-2.0,6.0,0.0,-2.0,1650848853654017.0
-3.0,3.0,0.0,7.0,-1.0,-20.0,-3.0,-2.0,1650848853667992.0
2.0,4.0,2.0,6.0,21.0,40.0,8.0,4.0,1650848853667992.0
-1.0,-5.0,0.0,-10.0,-14.0,-12.0,-4.0,-2.0,1650848853675902.0
-2.0,-13.0,-9.0,3.0,2.0,4.0,0.0,1.0,1650848853675902.0
-2.0,22.0,7.0,-6.0,-8.0,-15.0,-4.0,-2.0,1650848853690891.0
-1.0,-7.0,-3.0,3.0,1.0,1.0,-3.0,-2.0,1650848853690891.0
1.0,-2.0,-1.0,6.0,8.0,-3.0,0.0,-1.0,1650848853691860.0
-1.0,4.0,3.0,-1.0,-11.0,-3.0,-5.0,0.0,1650848853691860.0
0.0,-11.0,-5.0,0.0,8.0,13.0,3.0,-1.0,1650848853704945.0
-3.0,0.0,1.0,-6.0,-10.0,-23.0,-3.0,-1.0,1650848853704945.0
0.0,-1.0,-5.0,-4.0,-1.0,8.0,-1.0,1.0,1650848853713891.0
0.0,0.0,4.0,8.0,3.0,-2.0,1.0,0.0,1650848853713891.0
1.0,-2.0,-9.0,10.0,13.0,2.0,-1.0,1.0,1650848853727882.0
-1.0,9.0,-5.0,-6.0,-6.0,-3.0,-1.0,-4.0,1650848853727882.0
-3.0,-10.0,-2.0,-4.0,-7.0,-7.0,-3.0,-2.0,1650848853735937.0
-2.0,0.0,1.0,-3.0,0.0,2.0,1.0,0.0,1650848853735937.0
0.0,-5.0,2.0,-1.0,0.0,12.0,2.0,3.0,1650848853750900.0
1.0,-5.0,-2.0,0.0,3.0,-2.0,-1.0,0.0,1650848853750900.0
-2.0,5.0,0.0,-3.0,-4.0,-1.0,-4.0,-2.0,1650848853751898.0
0.0,1.0,-3.0,5.0,-6.0,-14.0,-1.0,-1.0,1650848853751898.0
1.0,-2.0,1.0,0.0,9.0,9.0,0.0,1.0,1650848853764890.0
2.0,-2.0,-3.0,-3.0,-12.0,10.0,-2.0,0.0,1650848853764890.0
0.0,-6.0,1.0,-5.0,-4.0,-15.0,-3.0,0.0,1650848853773853.0
0.0,8.0,0.0,1.0,6.0,18.0,3.0,1.0,1650848853773853.0
-1.0,0.0,0.0,-4.0,-8.0,-14.0,-2.0,2.0,1650848853787985.0
1.0,2.0,0.0,4.0,-3.0,-27.0,-5.0,-1.0,1650848853787985.0
-4.0,-18.0,-11.0,-11.0,-5.0,25.0,2.0,1.0,1650848853795895.0
0.0,6.0,5.0,13.0,20.0,9.0,2.0,1.0,1650848853795895.0
1.0,3.0,2.0,-17.0,-6.0,-4.0,-1.0,-2.0,1650848853810873.0
-3.0,-8.0,-5.0,13.0,-4.0,-9.0,-2.0,-5.0,1650848853810873.0
-2.0,-9.0,1.0,3.0,0.0,2.0,-5.0,-1.0,1650848853811848.0
0.0,-11.0,-4.0,-12.0,-12.0,-14.0,-3.0,-1.0,1650848853811848.0
4.0,36.0,18.0,-1.0,-3.0,12.0,4.0,2.0,1650848853833907.0
1.0,8.0,24.0,-3.0,-1.0,-5.0,3.0,2.0,1650848853833907.0
-9.0,-10.0,-54.0,9.0,9.0,-9.0,-15.0,-16.0,1650848853834903.0
-17.0,-13.0,9.0,3.0,-5.0,34.0,-2.0,-17.0,1650848853834903.0
0.0,-8.0,2.0,-3.0,-10.0,-27.0,-1.0,-16.0,1650848853847896.0
16.0,34.0,9.0,18.0,20.0,10.0,29.0,51.0,1650848853847896.0
11.0,-4.0,15.0,0.0,8.0,6.0,2.0,20.0,1650848853855914.0
-10.0,-3.0,-7.0,-4.0,-19.0,-31.0,-25.0,-30.0,1650848853855914.0
-9.0,-7.0,-3.0,1.0,1.0,17.0,-13.0,-23.0,1650848853870874.0
-6.0,-3.0,3.0,-2.0,-7.0,0.0,6.0,-17.0,1650848853870874.0
9.0,-3.0,4.0,-12.0,4.0,-8.0,12.0,25.0,1650848853871805.0
14.0,-11.0,-8.0,-12.0,0.0,-2.0,6.0,21.0,1650848853871805.0
-10.0,-21.0,-10.0,6.0,-8.0,-11.0,-14.0,-9.0,1650848853885781.0
-15.0,-12.0,6.0,-4.0,0.0,1.0,-12.0,-30.0,1650848853885781.0
-6.0,17.0,3.0,12.0,0.0,0.0,2.0,-15.0,1650848853893745.0
12.0,25.0,11.0,-7.0,-3.0,0.0,13.0,16.0,1650848853893745.0
0.0,-6.0,0.0,3.0,11.0,18.0,5.0,11.0,1650848853907717.0
-7.0,-26.0,-29.0,-19.0,-5.0,-9.0,-17.0,-13.0,1650848853907717.0
-14.0,-16.0,11.0,13.0,-17.0,-13.0,7.0,-3.0,1650848853915687.0
4.0,27.0,-4.0,17.0,12.0,4.0,27.0,-11.0,1650848853915687.0
17.0,-20.0,-9.0,-22.0,-13.0,-17.0,20.0,48.0,1650848853930675.0
1.0,-7.0,5.0,-14.0,-8.0,-3.0,-37.0,-13.0,1650848853930675.0
-11.0,-14.0,-17.0,-5.0,1.0,1.0,-10.0,-6.0,1650848853931645.0
-8.0,-22.0,-16.0,-2.0,-10.0,-14.0,7.0,4.0,1650848853931645.0
-15.0,8.0,14.0,16.0,12.0,10.0,-6.0,-17.0,1650848853945634.0
6.0,14.0,4.0,-4.0,2.0,9.0,14.0,12.0,1650848853945634.0
-3.0,1.0,12.0,-5.0,-12.0,-7.0,-2.0,-28.0,1650848853953978.0
4.0,17.0,0.0,17.0,15.0,17.0,-4.0,20.0,1650848853953978.0
17.0,16.0,0.0,4.0,12.0,8.0,19.0,0.0,1650848853967963.0
-18.0,-41.0,-3.0,0.0,-6.0,-25.0,8.0,26.0,1650848853967963.0
19.0,0.0,6.0,-11.0,4.0,21.0,-7.0,-10.0,1650848853975948.0
-2.0,2.0,-2.0,-7.0,-4.0,-5.0,-13.0,-18.0,1650848853975948.0
-5.0,-2.0,4.0,-1.0,-4.0,3.0,11.0,16.0,1650848853990882.0
-14.0,-4.0,-15.0,16.0,7.0,-6.0,-26.0,-34.0,1650848853990882.0
-1.0,16.0,8.0,0.0,-1.0,1.0,18.0,5.0,1650848853991880.0
3.0,-13.0,-5.0,-12.0,-4.0,-5.0,1.0,23.0,1650848853991880.0
1.0,5.0,2.0,-2.0,-2.0,-2.0,-15.0,-12.0,1650848854004927.0
-2.0,0.0,-1.0,0.0,-4.0,12.0,1.0,-5.0,1650848854004927.0
-2.0,1.0,-5.0,1.0,-6.0,-10.0,-10.0,-9.0,1650848854012935.0
12.0,9.0,13.0,-1.0,9.0,-2.0,1.0,14.0,1650848854012935.0
1.0,9.0,10.0,9.0,10.0,27.0,0.0,-7.0,1650848854027895.0
-1.0,-8.0,-18.0,-6.0,-7.0,-5.0,6.0,3.0,1650848854027895.0
11.0,15.0,9.0,15.0,19.0,12.0,7.0,9.0,1650848854036417.0
-7.0,-3.0,5.0,2.0,-3.0,-13.0,-1.0,-5.0,1650848854036417.0
-7.0,-6.0,-16.0,6.0,-9.0,5.0,-8.0,0.0,1650848854050799.0
8.0,-3.0,6.0,-10.0,3.0,4.0,2.0,5.0,1650848854050799.0
3.0,37.0,14.0,-2.0,2.0,0.0,2.0,1.0,1650848854051795.0
-3.0,-22.0,-22.0,-8.0,-7.0,-12.0,-4.0,-4.0,1650848854051795.0
-2.0,5.0,13.0,5.0,-4.0,-2.0,10.0,7.0,1650848854064789.0
6.0,-5.0,-7.0,3.0,13.0,14.0,-9.0,-10.0,1650848854064789.0
-5.0,2.0,13.0,-3.0,-2.0,5.0,11.0,4.0,1650848854073764.0
-2.0,-13.0,-29.0,-8.0,-8.0,-6.0,-4.0,-2.0,1650848854073764.0
-1.0,4.0,1.0,1.0,-17.0,-29.0,-3.0,0.0,1650848854087851.0
2.0,-7.0,7.0,10.0,25.0,30.0,8.0,4.0,1650848854087851.0
-3.0,20.0,1.0,-1.0,-6.0,-9.0,-10.0,-3.0,1650848854095790.0
-5.0,-20.0,5.0,0.0,5.0,18.0,5.0,4.0,1650848854095790.0
-2.0,-9.0,-7.0,-9.0,-6.0,-14.0,-7.0,-6.0,1650848854111844.0
9.0,39.0,0.0,-4.0,-15.0,-18.0,9.0,10.0,1650848854111844.0
-8.0,-25.0,-12.0,8.0,-1.0,16.0,0.0,4.0,1650848854111844.0
4.0,19.0,8.0,4.0,7.0,-16.0,-1.0,-3.0,1650848854111844.0
0.0,-15.0,-8.0,-3.0,3.0,26.0,-5.0,-4.0,1650848854124809.0
6.0,6.0,8.0,9.0,6.0,-5.0,-10.0,-6.0,1650848854124809.0
0.0,-6.0,-8.0,4.0,4.0,12.0,20.0,15.0,1650848854133758.0
-5.0,0.0,12.0,1.0,-1.0,-9.0,-4.0,-8.0,1650848854133758.0
-1.0,6.0,-4.0,0.0,-7.0,-17.0,-9.0,-6.0,1650848854147748.0
2.0,2.0,-3.0,-1.0,3.0,8.0,2.0,2.0,1650848854147748.0
0.0,-21.0,-4.0,-6.0,-5.0,-9.0,-6.0,-1.0,1650848854155766.0
-1.0,12.0,0.0,3.0,-7.0,12.0,-4.0,-3.0,1650848854155766.0
0.0,2.0,2.0,1.0,10.0,-7.0,-1.0,3.0,1650848854170718.0
3.0,12.0,9.0,-5.0,1.0,7.0,9.0,1.0,1650848854170718.0
2.0,0.0,-6.0,0.0,-4.0,-7.0,-4.0,2.0,1650848854171660.0
-2.0,8.0,7.0,2.0,-5.0,-7.0,-11.0,-8.0,1650848854171660.0
-5.0,10.0,-2.0,4.0,7.0,8.0,0.0,-2.0,1650848854185687.0
1.0,2.0,8.0,-8.0,-16.0,-15.0,7.0,8.0,1650848854185687.0
0.0,-26.0,-20.0,-2.0,-5.0,13.0,-2.0,-1.0,1650848854193752.0
-1.0,-22.0,-6.0,6.0,15.0,15.0,2.0,0.0,1650848854193752.0
-1.0,-7.0,-2.0,-10.0,-5.0,-21.0,-5.0,-5.0,1650848854207873.0
-3.0,3.0,1.0,4.0,-7.0,-13.0,-4.0,-3.0,1650848854207873.0
1.0,-7.0,-4.0,4.0,7.0,7.0,0.0,-2.0,1650848854215813.0
2.0,20.0,7.0,0.0,-2.0,13.0,6.0,4.0,1650848854215813.0
3.0,-8.0,-3.0,0.0,7.0,7.0,-2.0,0.0,1650848854230776.0
2.0,0.0,1.0,-1.0,-10.0,-10.0,7.0,3.0,1650848854230776.0
-2.0,-1.0,-3.0,-8.0,-6.0,-12.0,-2.0,-4.0,1650848854231763.0
-1.0,-8.0,-1.0,0.0,-6.0,2.0,2.0,0.0,1650848854231763.0
4.0,-2.0,4.0,8.0,15.0,3.0,-2.0,5.0,1650848854245719.0
-6.0,-2.0,-4.0,-7.0,-12.0,-10.0,-15.0,-9.0,1650848854245719.0
4.0,6.0,7.0,2.0,6.0,0.0,-6.0,-2.0,1650848854253799.0
-1.0,-4.0,1.0,-7.0,-1.0,8.0,6.0,-2.0,1650848854253799.0
-1.0,12.0,-4.0,0.0,0.0,2.0,4.0,4.0,1650848854267794.0
-6.0,-13.0,-8.0,-3.0,-5.0,1.0,-5.0,-7.0,1650848854267794.0
-2.0,1.0,1.0,-2.0,-3.0,-24.0,-5.0,-2.0,1650848854275743.0
0.0,-9.0,-4.0,-3.0,-2.0,15.0,1.0,-3.0,1650848854275743.0
1.0,8.0,-3.0,-3.0,-2.0,0.0,-2.0,-1.0,1650848854290711.0
-3.0,-8.0,-6.0,-2.0,-4.0,0.0,4.0,-2.0,1650848854290711.0
7.0,33.0,22.0,2.0,7.0,2.0,2.0,5.0,1650848854298682.0
-2.0,-24.0,-10.0,-2.0,-5.0,-6.0,-5.0,-2.0,1650848854298682.0
-4.0,-6.0,-3.0,-5.0,-2.0,-6.0,-4.0,-3.0,1650848854305746.0
-1.0,-8.0,-2.0,5.0,8.0,7.0,2.0,6.0,1650848854305746.0
-2.0,1.0,6.0,3.0,-1.0,2.0,-3.0,-5.0,1650848854313642.0
3.0,11.0,3.0,-3.0,-4.0,-14.0,-1.0,2.0,1650848854313642.0
-4.0,-19.0,-7.0,-3.0,8.0,26.0,0.0,-3.0,1650848854327604.0
5.0,2.0,5.0,0.0,6.0,9.0,2.0,0.0,1650848854327604.0
1.0,20.0,3.0,-2.0,-1.0,2.0,-2.0,4.0,1650848854335583.0
-4.0,-3.0,-8.0,0.0,-4.0,-11.0,-7.0,-4.0,1650848854335583.0
-1.0,-9.0,-5.0,1.0,-6.0,-12.0,0.0,-2.0,1650848854350543.0
-3.0,0.0,1.0,-2.0,1.0,3.0,0.0,0.0,1650848854350543.0
-3.0,-7.0,0.0,-7.0,-8.0,-11.0,-3.0,-3.0,1650848854358522.0
1.0,10.0,-4.0,0.0,-3.0,6.0,-2.0,-2.0,1650848854358522.0
3.0,1.0,6.0,4.0,-1.0,6.0,8.0,11.0,1650848854387838.0
1.0,9.0,2.0,-6.0,5.0,6.0,-1.0,-3.0,1650848854387838.0
1.0,4.0,5.0,7.0,4.0,1.0,2.0,2.0,1650848854396811.0
0.0,1.0,0.0,-2.0,8.0,-9.0,-4.0,1.0,1650848854396811.0
-2.0,-23.0,-3.0,-4.0,-24.0,-17.0,-4.0,-4.0,1650848854411771.0
-2.0,3.0,-3.0,4.0,0.0,-18.0,-3.0,-1.0,1650848854411771.0
-3.0,-8.0,-8.0,-13.0,4.0,32.0,1.0,1.0,1650848854412768.0
0.0,7.0,10.0,1.0,-11.0,-1.0,2.0,-2.0,1650848854412768.0
3.0,6.0,2.0,8.0,10.0,-9.0,-2.0,-2.0,1650848854433712.0
0.0,-12.0,-8.0,-3.0,-7.0,-6.0,3.0,2.0,1650848854433712.0
-3.0,13.0,-3.0,-1.0,-3.0,-8.0,-2.0,-1.0,1650848854440693.0
-2.0,-11.0,2.0,-3.0,1.0,-2.0,-3.0,0.0,1650848854440693.0
1.0,1.0,-5.0,-5.0,-4.0,0.0,0.0,-2.0,1650848854463632.0
-1.0,5.0,-2.0,4.0,-6.0,-13.0,-1.0,1.0,1650848854463632.0
3.0,-12.0,-7.0,8.0,5.0,7.0,1.0,4.0,1650848854465639.0
-1.0,13.0,16.0,3.0,12.0,16.0,2.0,-2.0,1650848854465639.0
-2.0,-4.0,-8.0,-7.0,-9.0,-19.0,-4.0,-3.0,1650848854486573.0
-2.0,-2.0,-10.0,-5.0,-2.0,3.0,-3.0,-4.0,1650848854486573.0
-7.0,-11.0,1.0,-2.0,-20.0,-13.0,-5.0,-4.0,1650848854488566.0
0.0,7.0,7.0,0.0,18.0,3.0,4.0,-4.0,1650848854488566.0
10.0,0.0,-2.0,3.0,6.0,15.0,10.0,14.0,1650848854508511.0
-1.0,-3.0,9.0,-6.0,1.0,20.0,-1.0,-3.0,1650848854508511.0
-4.0,-7.0,-6.0,-6.0,-14.0,-18.0,-7.0,-6.0,1650848854515493.0
-3.0,-7.0,-10.0,1.0,-9.0,-21.0,-11.0,-5.0,1650848854515493.0
-5.0,20.0,2.0,-1.0,-2.0,4.0,-6.0,-6.0,1650848854530453.0
1.0,-17.0,-3.0,0.0,0.0,3.0,4.0,2.0,1650848854530453.0
2.0,6.0,2.0,4.0,5.0,-6.0,1.0,0.0,1650848854540430.0
1.0,6.0,6.0,7.0,9.0,9.0,6.0,6.0,1650848854540430.0
0.0,-3.0,0.0,-2.0,-2.0,-4.0,0.0,-3.0,1650848854561370.0
2.0,5.0,-2.0,3.0,-7.0,0.0,-1.0,1.0,1650848854561370.0
2.0,-3.0,1.0,2.0,1.0,-2.0,-2.0,2.0,1650848854563365.0
-3.0,10.0,-4.0,-5.0,-4.0,-8.0,-4.0,0.0,1650848854563365.0
1.0,-15.0,-10.0,2.0,1.0,14.0,1.0,0.0,1650848854584309.0
-2.0,20.0,13.0,0.0,-1.0,0.0,3.0,2.0,1650848854584309.0
2.0,-11.0,-2.0,1.0,13.0,0.0,4.0,3.0,1650848854586319.0
0.0,-1.0,-1.0,-5.0,-12.0,-13.0,-4.0,-1.0,1650848854586319.0
-4.0,-13.0,-2.0,-1.0,-5.0,-7.0,-4.0,-5.0,1650848854606254.0
1.0,19.0,5.0,2.0,13.0,14.0,8.0,3.0,1650848854606254.0
0.0,0.0,6.0,0.0,-1.0,5.0,1.0,0.0,1650848854612234.0
-1.0,-15.0,-19.0,-8.0,-1.0,-2.0,-1.0,-1.0,1650848854612234.0
-4.0,15.0,8.0,9.0,-11.0,-15.0,-10.0,-10.0,1650848854636170.0
0.0,-14.0,-3.0,-2.0,4.0,-2.0,12.0,14.0,1650848854636170.0
1.0,9.0,8.0,-6.0,-3.0,5.0,2.0,1.0,1650848854638167.0
-2.0,-1.0,-7.0,3.0,4.0,-1.0,-1.0,-3.0,1650848854638167.0
-3.0,-5.0,0.0,-5.0,2.0,1.0,-7.0,-4.0,1650848854659109.0
1.0,4.0,-7.0,-3.0,2.0,-4.0,-2.0,-4.0,1650848854659109.0
-1.0,1.0,1.0,8.0,4.0,8.0,2.0,-1.0,1650848854668085.0
3.0,3.0,3.0,-6.0,0.0,7.0,0.0,0.0,1650848854668085.0
-1.0,-6.0,-1.0,-4.0,-4.0,-8.0,7.0,6.0,1650848854682075.0
0.0,2.0,0.0,5.0,-7.0,-16.0,-4.0,-3.0,1650848854682075.0
0.0,15.0,0.0,0.0,12.0,19.0,1.0,1.0,1650848854683046.0
3.0,-4.0,8.0,0.0,0.0,3.0,1.0,-1.0,1650848854683046.0
-2.0,-6.0,-6.0,0.0,-1.0,4.0,2.0,1.0,1650848854704004.0
-4.0,-5.0,-10.0,-2.0,-4.0,-9.0,-7.0,-6.0,1650848854704004.0
-2.0,0.0,1.0,-1.0,-17.0,-5.0,-7.0,-2.0,1650848854710001.0
-3.0,0.0,2.0,2.0,18.0,19.0,5.0,2.0,1650848854710001.0
0.0,3.0,0.0,0.0,-4.0,-3.0,-1.0,-1.0,1650848854733936.0
2.0,-9.0,2.0,1.0,-5.0,-2.0,-3.0,-1.0,1650848854733936.0
-4.0,-9.0,-13.0,-7.0,-5.0,-25.0,-6.0,-5.0,1650848854735905.0
1.0,5.0,3.0,7.0,2.0,23.0,2.0,2.0,1650848854735905.0
1.0,-1.0,-1.0,-6.0,1.0,-1.0,2.0,2.0,1650848854756904.0
-2.0,2.0,6.0,-1.0,-3.0,-5.0,-4.0,-2.0,1650848854756904.0
-1.0,-1.0,2.0,0.0,4.0,3.0,4.0,2.0,1650848854759899.0
0.0,-3.0,-4.0,4.0,-2.0,-7.0,0.0,2.0,1650848854759899.0
0.0,2.0,5.0,-4.0,4.0,14.0,4.0,1.0,1650848854786827.0
1.0,-2.0,-4.0,4.0,2.0,5.0,-2.0,-2.0,1650848854786827.0
-2.0,7.0,1.0,-4.0,-5.0,-16.0,-5.0,0.0,1650848854787852.0
-1.0,-6.0,0.0,-3.0,-2.0,12.0,0.0,1.0,1650848854787852.0
-1.0,1.0,3.0,0.0,-7.0,-7.0,-1.0,-5.0,1650848854799819.0
2.0,4.0,3.0,5.0,18.0,12.0,1.0,4.0,1650848854799819.0
-1.0,-21.0,-11.0,-6.0,-3.0,-9.0,-1.0,-2.0,1650848854809767.0
1.0,21.0,5.0,1.0,-8.0,-2.0,-2.0,-1.0,1650848854809767.0
-1.0,-3.0,-1.0,-6.0,-2.0,-11.0,2.0,1.0,1650848854831735.0
-2.0,-4.0,-2.0,1.0,5.0,18.0,-1.0,-1.0,1650848854831735.0
1.0,-3.0,5.0,-3.0,-2.0,-7.0,0.0,0.0,1650848854833706.0
-3.0,-9.0,-8.0,-5.0,-6.0,-14.0,-3.0,-3.0,1650848854833706.0
-3.0,-2.0,-8.0,2.0,-1.0,-1.0,0.0,0.0,1650848854855379.0
-3.0,2.0,-1.0,-5.0,-6.0,-6.0,2.0,1.0,1650848854855379.0
2.0,0.0,-1.0,1.0,3.0,4.0,-1.0,-2.0,1650848854856386.0
0.0,-2.0,3.0,4.0,-8.0,-11.0,0.0,-1.0,1650848854856386.0
0.0,9.0,3.0,-3.0,7.0,7.0,-3.0,-2.0,1650848854875348.0
0.0,-7.0,-7.0,-7.0,-1.0,11.0,2.0,0.0,1650848854875348.0
-1.0,-1.0,7.0,19.0,13.0,10.0,3.0,2.0,1650848854884303.0
0.0,-5.0,1.0,-4.0,-4.0,-3.0,1.0,0.0,1650848854884303.0
-4.0,1.0,-6.0,0.0,-1.0,-12.0,-5.0,-3.0,1650848854906313.0
-1.0,-2.0,-3.0,-8.0,-9.0,-8.0,-4.0,-3.0,1650848854906313.0
6.0,12.0,4.0,-3.0,-7.0,4.0,0.0,0.0,1650848854908244.0
-2.0,-7.0,11.0,3.0,3.0,-21.0,-4.0,1.0,1650848854908244.0
29.0,17.0,-30.0,3.0,7.0,43.0,9.0,2.0,1650848854913246.0
-78.0,-21.0,-2.0,-6.0,-10.0,-15.0,-3.0,-11.0,1650848854913246.0
41.0,10.0,-5.0,-19.0,6.0,17.0,3.0,23.0,1650848854914223.0
4.0,-8.0,22.0,13.0,-8.0,-11.0,0.0,-19.0,1650848854914223.0
-53.0,-6.0,-10.0,10.0,3.0,-9.0,-16.0,-30.0,1650848854921231.0
17.0,-1.0,0.0,21.0,2.0,3.0,17.0,74.0,1650848854921231.0
-27.0,10.0,31.0,4.0,1.0,-1.0,0.0,-15.0,1650848854923200.0
-12.0,-2.0,-40.0,-22.0,-3.0,3.0,-2.0,10.0,1650848854923200.0
5.0,-6.0,9.0,-5.0,-2.0,-3.0,-1.0,-3.0,1650848854928213.0
31.0,10.0,-1.0,4.0,0.0,-16.0,-15.0,-16.0,1650848854928213.0
-22.0,-8.0,1.0,3.0,8.0,26.0,5.0,-7.0,1650848854936166.0
15.0,1.0,20.0,-1.0,0.0,6.0,3.0,7.0,1650848854936166.0
10.0,9.0,7.0,2.0,-1.0,-8.0,0.0,1.0,1650848854937162.0
9.0,-3.0,-6.0,-8.0,-5.0,-19.0,-1.0,-12.0,1650848854937162.0
7.0,-1.0,-4.0,6.0,-3.0,14.0,5.0,7.0,1650848854938159.0
-6.0,9.0,-8.0,-7.0,7.0,9.0,-1.0,-9.0,1650848854938159.0
8.0,-10.0,0.0,-3.0,-12.0,-20.0,-1.0,12.0,1650848854944170.0
-5.0,2.0,0.0,-1.0,2.0,16.0,1.0,-8.0,1650848854944170.0
4.0,-3.0,1.0,10.0,7.0,4.0,0.0,-2.0,1650848854946166.0
4.0,-5.0,-20.0,3.0,1.0,3.0,-4.0,-1.0,1650848854946166.0
-40.0,-4.0,30.0,-4.0,-4.0,-13.0,1.0,0.0,1650848854951125.0
13.0,-1.0,-36.0,-11.0,-13.0,9.0,-3.0,-11.0,1650848854951125.0
1.0,-6.0,-6.0,-1.0,-2.0,-20.0,-6.0,-5.0,1650848854952123.0
0.0,0.0,2.0,1.0,-1.0,9.0,2.0,3.0,1650848854952123.0
14.0,2.0,3.0,5.0,3.0,-4.0,4.0,6.0,1650848854959124.0
0.0,0.0,8.0,-6.0,-1.0,2.0,-2.0,-11.0,1650848854959124.0
-5.0,-21.0,-18.0,-16.0,-10.0,-8.0,-1.0,0.0,1650848854961125.0
-4.0,29.0,7.0,0.0,-4.0,-20.0,-4.0,0.0,1650848854961125.0
9.0,-7.0,6.0,4.0,8.0,33.0,10.0,5.0,1650848854966084.0
1.0,-1.0,2.0,2.0,0.0,-4.0,-3.0,-3.0,1650848854966084.0
0.0,4.0,-6.0,-9.0,-2.0,-2.0,1.0,1.0,1650848854967081.0
2.0,-10.0,5.0,11.0,-4.0,-6.0,0.0,2.0,1650848854967081.0
3.0,-4.0,3.0,-4.0,-11.0,-18.0,-5.0,-3.0,1650848854973094.0
3.0,3.0,-2.0,20.0,11.0,21.0,3.0,-3.0,1650848854973094.0
-2.0,0.0,8.0,-4.0,-1.0,-5.0,1.0,0.0,1650848854982063.0
-2.0,-2.0,-8.0,2.0,-4.0,4.0,0.0,-2.0,1650848854982063.0
8.0,2.0,-1.0,-8.0,5.0,2.0,-1.0,5.0,1650848854988053.0
-1.0,-6.0,1.0,-7.0,-4.0,-9.0,-1.0,-2.0,1650848854988053.0
12.0,5.0,-4.0,-1.0,0.0,-5.0,-4.0,2.0,1650848854997029.0
-72.0,-11.0,0.0,-4.0,6.0,19.0,0.0,-9.0,1650848854997029.0
23.0,-3.0,18.0,7.0,0.0,-4.0,0.0,0.0,1650848855009995.0
15.0,13.0,-9.0,-13.0,-7.0,-12.0,0.0,-5.0,1650848855009995.0
-2.0,-1.0,-9.0,6.0,0.0,-5.0,-3.0,6.0,1650848855018957.0
11.0,-2.0,-14.0,-6.0,0.0,1.0,-1.0,1.0,1650848855018957.0
-2.0,-2.0,-8.0,2.0,-6.0,1.0,2.0,4.0,1650848855032905.0
-21.0,-4.0,4.0,0.0,15.0,6.0,-1.0,-8.0,1650848855032905.0
5.0,-1.0,-6.0,-2.0,-5.0,-8.0,-1.0,-2.0,1650848855041881.0
12.0,-7.0,1.0,-5.0,-3.0,-4.0,-2.0,1.0,1650848855041881.0
-1.0,-1.0,-4.0,3.0,4.0,-1.0,-1.0,-1.0,1650848855047865.0
13.0,5.0,3.0,-1.0,-3.0,5.0,0.0,3.0,1650848855047865.0
-6.0,0.0,17.0,9.0,-1.0,-7.0,-2.0,-6.0,1650848855056825.0
9.0,5.0,-1.0,2.0,2.0,-5.0,0.0,2.0,1650848855056825.0
-7.0,-10.0,-9.0,0.0,-1.0,10.0,2.0,0.0,1650848855070795.0
0.0,7.0,8.0,-7.0,5.0,5.0,1.0,2.0,1650848855070795.0
-6.0,-9.0,-8.0,-2.0,-4.0,-2.0,1.0,-1.0,1650848855078795.0
6.0,-6.0,-5.0,2.0,1.0,0.0,-2.0,0.0,1650848855078795.0
6.0,9.0,7.0,-3.0,-4.0,-6.0,-1.0,1.0,1650848855092761.0
14.0,-10.0,6.0,5.0,-3.0,-3.0,0.0,0.0,1650848855092761.0
-36.0,5.0,-20.0,-3.0,13.0,3.0,1.0,-5.0,1650848855101706.0
11.0,-5.0,1.0,-1.0,-7.0,4.0,1.0,2.0,1650848855101706.0
-4.0,2.0,-16.0,-10.0,-5.0,-14.0,-3.0,-3.0,1650848855116696.0
16.0,2.0,14.0,4.0,-2.0,-10.0,0.0,3.0,1650848855116696.0
7.0,1.0,23.0,9.0,2.0,16.0,-2.0,-2.0,1650848855118662.0
11.0,1.0,-2.0,-5.0,4.0,15.0,12.0,2.0,1650848855118662.0
-4.0,0.0,-3.0,0.0,2.0,-5.0,-1.0,-2.0,1650848855130629.0
1.0,4.0,-4.0,-8.0,-4.0,-5.0,-2.0,0.0,1650848855130629.0
0.0,-3.0,-4.0,-5.0,-8.0,-19.0,-4.0,-1.0,1650848855139606.0
1.0,-5.0,0.0,5.0,-5.0,-6.0,-3.0,-3.0,1650848855139606.0
6.0,4.0,2.0,4.0,3.0,9.0,0.0,2.0,1650848855152571.0
1.0,-1.0,6.0,0.0,3.0,-1.0,0.0,1.0,1650848855152571.0
4.0,-4.0,-14.0,-8.0,-1.0,1.0,1.0,-4.0,1650848855161548.0
-4.0,-3.0,8.0,1.0,-4.0,0.0,-1.0,1.0,1650848855161548.0
-4.0,-1.0,-3.0,-1.0,9.0,4.0,2.0,0.0,1650848855167563.0
-42.0,2.0,6.0,-2.0,-5.0,-2.0,-1.0,-3.0,1650848855167563.0
-1.0,-20.0,-4.0,1.0,6.0,0.0,0.0,2.0,1650848855176517.0
22.0,26.0,5.0,3.0,-4.0,-8.0,-4.0,-1.0,1650848855176517.0
-10.0,-8.0,-4.0,1.0,-7.0,1.0,-1.0,-4.0,1650848855190537.0
-7.0,-3.0,-1.0,5.0,8.0,7.0,0.0,-1.0,1650848855190537.0
7.0,3.0,-3.0,0.0,7.0,11.0,4.0,0.0,1650848855199445.0
3.0,-3.0,1.0,-3.0,-11.0,-21.0,-5.0,0.0,1650848855199445.0
6.0,-6.0,-3.0,3.0,15.0,22.0,0.0,3.0,1650848855212881.0
0.0,0.0,5.0,-1.0,-10.0,-11.0,-4.0,-3.0,1650848855212881.0
-3.0,0.0,6.0,1.0,-8.0,-7.0,-2.0,-1.0,1650848855221859.0
-1.0,-8.0,3.0,1.0,6.0,1.0,0.0,1.0,1650848855221859.0
26.0,9.0,5.0,0.0,-6.0,-16.0,-5.0,2.0,1650848855251804.0
-38.0,-12.0,2.0,6.0,4.0,8.0,-1.0,-9.0,1650848855251804.0
6.0,-1.0,-12.0,-7.0,-3.0,-1.0,-1.0,-2.0,1650848855253773.0
8.0,3.0,10.0,-1.0,2.0,-1.0,-4.0,0.0,1650848855253773.0
10.0,0.0,-6.0,2.0,-4.0,1.0,17.0,4.0,1650848855273784.0
18.0,4.0,1.0,10.0,2.0,10.0,11.0,4.0,1650848855273784.0
0.0,-3.0,-7.0,-7.0,-2.0,0.0,-3.0,-4.0,1650848855275726.0
-22.0,-5.0,-2.0,-1.0,0.0,-1.0,-4.0,-2.0,1650848855275726.0
-16.0,-5.0,-12.0,-8.0,-3.0,-2.0,-4.0,-4.0,1650848855296658.0
8.0,6.0,1.0,-6.0,-3.0,-5.0,0.0,-1.0,1650848855296658.0
11.0,7.0,3.0,6.0,-1.0,1.0,-2.0,-4.0,1650848855304649.0
-2.0,-5.0,-1.0,-4.0,-2.0,-8.0,-6.0,-3.0,1650848855304649.0
-10.0,4.0,5.0,0.0,5.0,13.0,6.0,3.0,1650848855304649.0
13.0,-4.0,-16.0,-10.0,-4.0,-11.0,-4.0,0.0,1650848855304649.0
-10.0,1.0,13.0,11.0,-3.0,-2.0,11.0,4.0,1650848855305637.0
-3.0,2.0,1.0,-6.0,4.0,11.0,7.0,-1.0,1650848855305637.0
-9.0,-3.0,-4.0,-4.0,-4.0,-11.0,-14.0,-6.0,1650848855310182.0
29.0,-15.0,-5.0,4.0,-2.0,1.0,-2.0,3.0,1650848855310182.0
-65.0,42.0,6.0,-4.0,-2.0,-4.0,-5.0,-8.0,1650848855319106.0
0.0,-10.0,-9.0,-4.0,4.0,1.0,-6.0,-2.0,1650848855319106.0
-2.0,-3.0,-2.0,-4.0,-2.0,1.0,15.0,4.0,1650848855333098.0
5.0,6.0,2.0,2.0,0.0,2.0,-4.0,2.0,1650848855333098.0
12.0,-15.0,1.0,-2.0,-11.0,-10.0,-3.0,0.0,1650848855342044.0
-5.0,1.0,-3.0,9.0,5.0,-4.0,-1.0,1.0,1650848855342044.0
-1.0,16.0,8.0,1.0,7.0,17.0,-5.0,-3.0,1650848855348028.0
-2.0,-3.0,-6.0,-6.0,2.0,6.0,5.0,2.0,1650848855348028.0
9.0,-9.0,1.0,-3.0,-1.0,-7.0,-4.0,-1.0,1650848855356532.0
0.0,-2.0,-8.0,0.0,-3.0,3.0,10.0,2.0,1650848855356532.0
4.0,-5.0,-1.0,5.0,-1.0,-19.0,-7.0,0.0,1650848855370494.0
-9.0,-4.0,15.0,6.0,-3.0,11.0,3.0,-4.0,1650848855370494.0
11.0,-4.0,-7.0,0.0,4.0,4.0,2.0,2.0,1650848855379460.0
-1.0,-1.0,-4.0,-1.0,-1.0,1.0,3.0,0.0,1650848855379460.0
-3.0,-1.0,-3.0,-7.0,-5.0,-12.0,-5.0,-2.0,1650848855392428.0
-3.0,4.0,-3.0,-2.0,1.0,0.0,-3.0,0.0,1650848855392428.0
4.0,-6.0,0.0,1.0,-6.0,-6.0,-4.0,-2.0,1650848855401401.0
1.0,4.0,-2.0,2.0,12.0,4.0,0.0,0.0,1650848855401401.0
-5.0,-8.0,10.0,-1.0,-4.0,-3.0,-2.0,-2.0,1650848855416983.0
1.0,7.0,7.0,8.0,4.0,12.0,0.0,0.0,1650848855416983.0
10.0,-2.0,-6.0,-2.0,7.0,7.0,2.0,4.0,1650848855417989.0
-3.0,-4.0,-7.0,-7.0,-11.0,-27.0,-7.0,-1.0,1650848855417989.0
0.0,2.0,-1.0,3.0,4.0,36.0,3.0,3.0,1650848855429948.0
-2.0,1.0,6.0,2.0,-1.0,-12.0,-4.0,-1.0,1650848855429948.0
1.0,-9.0,-8.0,-2.0,-6.0,-8.0,-1.0,-2.0,1650848855438927.0
0.0,10.0,11.0,1.0,0.0,3.0,0.0,-1.0,1650848855438927.0
-4.0,-11.0,-6.0,0.0,-4.0,-13.0,-7.0,-3.0,1650848855452886.0
1.0,20.0,-1.0,1.0,-2.0,-4.0,0.0,-1.0,1650848855452886.0
2.0,-9.0,-3.0,0.0,0.0,7.0,-1.0,-2.0,1650848855461863.0
-1.0,-4.0,2.0,4.0,-4.0,0.0,-1.0,-1.0,1650848855461863.0
0.0,-2.0,-10.0,-4.0,1.0,-4.0,0.0,1.0,1650848855476945.0
-3.0,-7.0,0.0,-6.0,-6.0,-9.0,-2.0,-1.0,1650848855476945.0
3.0,1.0,3.0,6.0,9.0,15.0,3.0,3.0,1650848855477907.0
2.0,-1.0,-2.0,-1.0,0.0,4.0,0.0,3.0,1650848855477907.0
-2.0,5.0,-1.0,-4.0,-7.0,-8.0,-3.0,-3.0,1650848855498872.0
-4.0,-12.0,-10.0,-6.0,5.0,2.0,0.0,-2.0,1650848855498872.0
1.0,5.0,14.0,7.0,-1.0,1.0,-2.0,0.0,1650848855500867.0
0.0,11.0,-1.0,-2.0,-7.0,0.0,0.0,-3.0,1650848855500867.0
-1.0,-2.0,-2.0,2.0,1.0,2.0,1.0,0.0,1650848855512878.0
0.0,-3.0,-2.0,-1.0,-1.0,-10.0,-4.0,0.0,1650848855512878.0
4.0,-1.0,-5.0,-5.0,-1.0,0.0,1.0,0.0,1650848855521827.0
-3.0,-8.0,3.0,-2.0,-3.0,-5.0,-3.0,0.0,1650848855521827.0
0.0,-6.0,-2.0,-4.0,-1.0,10.0,0.0,2.0,1650848855536789.0
-4.0,13.0,-1.0,5.0,2.0,2.0,-4.0,-3.0,1650848855536789.0
-2.0,-12.0,9.0,-3.0,-8.0,-6.0,1.0,0.0,1650848855537785.0
3.0,9.0,-3.0,-4.0,0.0,-12.0,-1.0,-1.0,1650848855537785.0
2.0,3.0,-6.0,3.0,0.0,13.0,2.0,-1.0,1650848855549788.0
-3.0,-12.0,6.0,-3.0,7.0,-3.0,0.0,1.0,1650848855549788.0
2.0,1.0,-7.0,0.0,2.0,8.0,-1.0,-2.0,1650848855559727.0
-4.0,0.0,-9.0,-4.0,-4.0,-3.0,0.0,0.0,1650848855559727.0
1.0,4.0,9.0,1.0,-4.0,-15.0,-1.0,0.0,1650848855572732.0
1.0,-2.0,-1.0,2.0,3.0,7.0,1.0,0.0,1650848855572732.0
-1.0,7.0,-3.0,-1.0,1.0,-11.0,-2.0,-1.0,1650848855581674.0
0.0,-5.0,-1.0,1.0,3.0,13.0,2.0,1.0,1650848855581674.0
0.0,-6.0,2.0,-3.0,-1.0,-2.0,-1.0,-3.0,1650848855596647.0
-1.0,-4.0,-10.0,-2.0,-6.0,-3.0,-1.0,0.0,1650848855596647.0
-1.0,2.0,4.0,12.0,-5.0,-21.0,-5.0,1.0,1650848855598641.0
-1.0,-7.0,-5.0,1.0,11.0,36.0,13.0,4.0,1650848855598641.0
-2.0,3.0,3.0,-3.0,1.0,-1.0,1.0,0.0,1650848855610617.0
1.0,5.0,1.0,1.0,-5.0,-9.0,-2.0,-1.0,1650848855610617.0
-1.0,-11.0,-14.0,-11.0,2.0,-1.0,-1.0,-1.0,1650848855619566.0
0.0,4.0,13.0,3.0,2.0,1.0,-2.0,-1.0,1650848855619566.0
-3.0,-2.0,8.0,5.0,-11.0,-26.0,-6.0,-4.0,1650848855632531.0
-1.0,5.0,-6.0,-10.0,1.0,19.0,2.0,-1.0,1650848855632531.0
1.0,0.0,-4.0,0.0,-4.0,0.0,2.0,-1.0,1650848855641516.0
-1.0,-4.0,1.0,16.0,18.0,3.0,0.0,0.0,1650848855641516.0
0.0,-1.0,-3.0,-6.0,-5.0,3.0,-1.0,-1.0,1650848855655470.0
-2.0,-19.0,-1.0,1.0,-6.0,-21.0,-7.0,-2.0,1650848855655470.0
1.0,17.0,7.0,-6.0,-2.0,8.0,3.0,0.0,1650848855664472.0
2.0,-12.0,-2.0,0.0,-3.0,6.0,2.0,1.0,1650848855664472.0
0.0,0.0,0.0,5.0,5.0,-6.0,-1.0,0.0,1650848855670430.0
-1.0,6.0,-1.0,-4.0,-3.0,-14.0,-3.0,-2.0,1650848855670430.0
1.0,-10.0,-7.0,-1.0,0.0,21.0,7.0,3.0,1650848855679426.0
-1.0,-2.0,1.0,-6.0,-10.0,-10.0,-3.0,-3.0,1650848855679426.0
-2.0,9.0,4.0,2.0,4.0,2.0,-2.0,-1.0,1650848855692371.0
0.0,-14.0,1.0,6.0,3.0,3.0,5.0,1.0,1650848855692371.0
0.0,21.0,8.0,-2.0,2.0,-5.0,-4.0,-2.0,1650848855701375.0
-2.0,-1.0,-3.0,-6.0,-8.0,-7.0,-4.0,-3.0,1650848855701375.0
2.0,-2.0,5.0,2.0,-5.0,-11.0,0.0,-2.0,1650848855716334.0
0.0,-7.0,-6.0,0.0,1.0,6.0,-4.0,-1.0,1650848855716334.0
1.0,0.0,4.0,0.0,5.0,3.0,2.0,-1.0,1650848855718321.0
-2.0,-2.0,2.0,-3.0,-10.0,6.0,0.0,-2.0,1650848855718321.0
0.0,-2.0,0.0,-5.0,6.0,0.0,2.0,2.0,1650848855730303.0
-1.0,0.0,-6.0,4.0,6.0,1.0,1.0,1.0,1650848855730303.0
0.0,4.0,-2.0,-6.0,-8.0,-10.0,-3.0,-6.0,1650848855739245.0
0.0,3.0,-1.0,-1.0,-6.0,-8.0,-4.0,0.0,1650848855739245.0
-2.0,-6.0,-3.0,3.0,-2.0,-11.0,-4.0,-1.0,1650848855752244.0
2.0,1.0,5.0,-4.0,2.0,20.0,6.0,1.0,1650848855752244.0
-1.0,-1.0,-6.0,0.0,0.0,4.0,2.0,0.0,1650848855762184.0
-2.0,-4.0,-4.0,-4.0,-3.0,2.0,-2.0,-1.0,1650848855762184.0
-1.0,3.0,-2.0,0.0,5.0,7.0,3.0,0.0,1650848855776251.0
0.0,-5.0,5.0,2.0,-1.0,-4.0,2.0,-2.0,1650848855776251.0
-2.0,14.0,1.0,3.0,7.0,-7.0,-4.0,-1.0,1650848855778207.0
-2.0,-5.0,2.0,-2.0,-4.0,-1.0,-3.0,-4.0,1650848855778207.0
-1.0,6.0,-7.0,-8.0,-2.0,-4.0,-3.0,-2.0,1650848855790214.0
-1.0,-6.0,-4.0,1.0,-5.0,-2.0,-1.0,-1.0,1650848855790214.0
-1.0,-11.0,1.0,-2.0,-3.0,2.0,-1.0,0.0,1650848855799178.0
0.0,-2.0,-3.0,-3.0,2.0,-9.0,-2.0,-1.0,1650848855799178.0
0.0,-2.0,1.0,0.0,1.0,4.0,2.0,0.0,1650848855812656.0
-4.0,0.0,-4.0,-2.0,-7.0,-5.0,-3.0,0.0,1650848855812656.0
-1.0,1.0,0.0,-3.0,-6.0,0.0,-2.0,-1.0,1650848855827651.0
0.0,-4.0,1.0,0.0,11.0,10.0,3.0,1.0,1650848855827651.0
1.0,5.0,-2.0,8.0,10.0,14.0,3.0,2.0,1650848855836593.0
0.0,3.0,3.0,-10.0,-13.0,-6.0,-1.0,-1.0,1650848855836593.0
-3.0,-9.0,-11.0,-2.0,-3.0,-18.0,-5.0,-2.0,1650848855838589.0
-2.0,4.0,0.0,6.0,-1.0,14.0,3.0,1.0,1650848855838589.0
-2.0,-6.0,-1.0,-2.0,3.0,5.0,-1.0,-2.0,1650848855850555.0
-1.0,0.0,0.0,-3.0,-1.0,-8.0,-4.0,0.0,1650848855850555.0
-1.0,-1.0,4.0,1.0,-4.0,-7.0,-1.0,-1.0,1650848855859567.0
0.0,0.0,0.0,2.0,-4.0,-11.0,-4.0,0.0,1650848855859567.0
0.0,-2.0,0.0,3.0,3.0,2.0,0.0,-1.0,1650848855873208.0
2.0,2.0,-2.0,-1.0,3.0,7.0,3.0,-2.0,1650848855873208.0
1.0,-8.0,1.0,2.0,-2.0,3.0,1.0,1.0,1650848855882187.0
1.0,5.0,2.0,0.0,0.0,0.0,-1.0,-2.0,1650848855882187.0
-3.0,-7.0,-2.0,-3.0,-2.0,-6.0,-3.0,-2.0,1650848855897181.0
-1.0,2.0,1.0,0.0,-5.0,-18.0,-6.0,1.0,1650848855897181.0
2.0,-3.0,-7.0,0.0,0.0,36.0,12.0,2.0,1650848855899149.0
1.0,4.0,1.0,3.0,4.0,-5.0,-2.0,-1.0,1650848855899149.0
1.0,-10.0,1.0,3.0,5.0,2.0,0.0,-1.0,1650848855910146.0
-2.0,25.0,5.0,0.0,-4.0,-5.0,-3.0,-3.0,1650848855910146.0
-1.0,-6.0,2.0,1.0,3.0,-6.0,-2.0,0.0,1650848855919628.0
-4.0,-11.0,-6.0,-8.0,-13.0,-21.0,-3.0,-3.0,1650848855919628.0
0.0,6.0,-1.0,-1.0,-1.0,22.0,4.0,1.0,1650848855933558.0
-1.0,-3.0,1.0,3.0,3.0,4.0,0.0,-1.0,1650848855933558.0
-2.0,-7.0,-1.0,-5.0,-5.0,-10.0,-5.0,-1.0,1650848855941537.0
2.0,18.0,0.0,0.0,-1.0,-3.0,-1.0,1.0,1650848855941537.0
-4.0,-25.0,-6.0,4.0,5.0,5.0,-3.0,-2.0,1650848855956573.0
0.0,-11.0,1.0,-1.0,-5.0,0.0,3.0,0.0,1650848855956573.0
-1.0,15.0,-4.0,0.0,8.0,4.0,-3.0,-2.0,1650848855958608.0
0.0,-15.0,-2.0,-3.0,-5.0,7.0,4.0,1.0,1650848855958608.0
-2.0,9.0,1.0,1.0,-8.0,-19.0,-5.0,0.0,1650848855970543.0
-1.0,-4.0,-3.0,-1.0,4.0,12.0,1.0,-1.0,1650848855970543.0
-1.0,-15.0,-2.0,-5.0,-8.0,-2.0,-1.0,-1.0,1650848855979574.0
2.0,6.0,1.0,9.0,3.0,-1.0,-2.0,1.0,1650848855979574.0
2.0,1.0,0.0,3.0,5.0,4.0,3.0,2.0,1650848855992579.0
-1.0,-1.0,2.0,-4.0,-2.0,-5.0,-1.0,-1.0,1650848855992579.0
1.0,6.0,-2.0,3.0,1.0,-17.0,-4.0,0.0,1650848856001522.0
-3.0,-4.0,0.0,-5.0,-3.0,13.0,4.0,-2.0,1650848856001522.0
-1.0,1.0,1.0,1.0,-9.0,3.0,2.0,1.0,1650848856016496.0
-1.0,2.0,-3.0,7.0,4.0,4.0,0.0,0.0,1650848856016496.0
1.0,-1.0,2.0,3.0,9.0,11.0,6.0,2.0,1650848856018492.0
-2.0,-14.0,-4.0,-8.0,1.0,-13.0,-6.0,-3.0,1650848856018492.0
-2.0,-12.0,0.0,-5.0,-18.0,-14.0,-3.0,-1.0,1650848856030472.0
0.0,14.0,-5.0,0.0,1.0,13.0,-3.0,1.0,1650848856030472.0
0.0,-4.0,2.0,-7.0,-7.0,-5.0,0.0,0.0,1650848856039415.0
-4.0,-13.0,-10.0,8.0,8.0,-2.0,-1.0,-1.0,1650848856039415.0
2.0,16.0,4.0,-2.0,0.0,0.0,1.0,0.0,1650848856052400.0
-2.0,-12.0,1.0,-6.0,-7.0,-19.0,-4.0,-4.0,1650848856052400.0
-1.0,8.0,0.0,5.0,4.0,21.0,3.0,1.0,1650848856061391.0
-1.0,7.0,0.0,-2.0,-8.0,-9.0,-5.0,-1.0,1650848856061391.0
-1.0,0.0,0.0,-2.0,-4.0,-18.0,-1.0,2.0,1650848856076412.0
-2.0,-2.0,-1.0,9.0,14.0,36.0,4.0,1.0,1650848856076412.0
-2.0,3.0,3.0,-10.0,-11.0,-11.0,-5.0,-1.0,1650848856078373.0
-1.0,-2.0,-2.0,0.0,-2.0,-3.0,-1.0,-1.0,1650848856078373.0
1.0,-7.0,-2.0,1.0,3.0,-1.0,0.0,0.0,1650848856090380.0
3.0,9.0,2.0,-3.0,-8.0,-9.0,0.0,0.0,1650848856090380.0
-1.0,-2.0,2.0,3.0,-5.0,-9.0,-2.0,-1.0,1650848856105302.0
1.0,4.0,3.0,3.0,10.0,17.0,4.0,0.0,1650848856105302.0
-2.0,0.0,-5.0,-3.0,-4.0,-5.0,-5.0,-3.0,1650848856112321.0
1.0,-8.0,2.0,2.0,9.0,5.0,3.0,3.0,1650848856112321.0
0.0,-2.0,2.0,-1.0,0.0,0.0,-2.0,0.0,1650848856122267.0
1.0,1.0,-1.0,1.0,-3.0,-9.0,-1.0,0.0,1650848856122267.0
0.0,3.0,-5.0,-2.0,-8.0,-3.0,0.0,1.0,1650848856136238.0
1.0,1.0,-3.0,3.0,13.0,-4.0,-2.0,0.0,1650848856136238.0
-1.0,2.0,4.0,0.0,7.0,19.0,9.0,-2.0,1650848856138214.0
1.0,-8.0,-6.0,-1.0,-6.0,-8.0,-2.0,-2.0,1650848856138214.0
-4.0,10.0,1.0,-6.0,-10.0,-19.0,-5.0,-4.0,1650848856150202.0
0.0,-2.0,-6.0,8.0,7.0,15.0,0.0,1.0,1650848856150202.0
2.0,0.0,3.0,3.0,7.0,-7.0,0.0,-3.0,1650848856159158.0
-3.0,-1.0,2.0,-1.0,-11.0,-18.0,-4.0,-2.0,1650848856159158.0
-1.0,1.0,-2.0,-5.0,13.0,34.0,4.0,1.0,1650848856173161.0
-2.0,-10.0,-5.0,-6.0,-18.0,-21.0,-2.0,-2.0,1650848856173161.0
1.0,-9.0,4.0,14.0,17.0,3.0,-2.0,2.0,1650848856182095.0
0.0,26.0,-3.0,-4.0,7.0,12.0,3.0,0.0,1650848856182095.0
-2.0,-2.0,2.0,6.0,-2.0,-12.0,-4.0,-2.0,1650848856196058.0
-3.0,1.0,1.0,-7.0,-5.0,-4.0,-1.0,-2.0,1650848856196058.0
-2.0,-6.0,0.0,2.0,-5.0,4.0,-1.0,-2.0,1650848856203074.0
1.0,0.0,6.0,-5.0,-15.0,-7.0,-2.0,-2.0,1650848856203074.0
2.0,-1.0,-6.0,3.0,12.0,5.0,4.0,1.0,1650848856210059.0
2.0,4.0,-1.0,1.0,2.0,4.0,2.0,0.0,1650848856210059.0
-4.0,-22.0,-2.0,-13.0,-20.0,-31.0,-8.0,-4.0,1650848856218997.0
-1.0,-1.0,-1.0,1.0,-4.0,8.0,-1.0,1.0,1650848856218997.0
1.0,2.0,3.0,-4.0,10.0,24.0,6.0,2.0,1650848856232992.0
0.0,-4.0,1.0,-4.0,-4.0,-8.0,-3.0,-1.0,1650848856232992.0
2.0,6.0,-2.0,4.0,-5.0,-4.0,1.0,0.0,1650848856241969.0
-1.0,0.0,0.0,0.0,3.0,-7.0,-4.0,-1.0,1650848856241969.0
0.0,-11.0,-3.0,2.0,5.0,1.0,0.0,1.0,1650848856255898.0
-3.0,3.0,3.0,-4.0,-7.0,-12.0,0.0,-1.0,1650848856255898.0
-1.0,6.0,2.0,2.0,-2.0,-3.0,-4.0,-1.0,1650848856262907.0
-1.0,-8.0,-5.0,4.0,8.0,9.0,1.0,-1.0,1650848856262907.0
-1.0,-8.0,-3.0,-2.0,-5.0,-4.0,-1.0,-2.0,1650848856293797.0
-1.0,10.0,4.0,-2.0,0.0,0.0,1.0,-2.0,1650848856293797.0
2.0,4.0,-8.0,-6.0,-2.0,-2.0,-1.0,0.0,1650848856295811.0
0.0,-1.0,6.0,0.0,-3.0,1.0,2.0,0.0,1650848856295811.0
0.0,-4.0,-1.0,12.0,10.0,5.0,-3.0,0.0,1650848856316755.0
2.0,-3.0,-2.0,-3.0,1.0,-3.0,0.0,0.0,1650848856316755.0
-4.0,-1.0,-4.0,1.0,-9.0,-21.0,-9.0,-4.0,1650848856318736.0
1.0,2.0,0.0,1.0,8.0,42.0,11.0,1.0,1650848856318736.0
1.0,6.0,6.0,2.0,-1.0,-10.0,1.0,-2.0,1650848856338678.0
-4.0,-8.0,-8.0,0.0,9.0,9.0,3.0,3.0,1650848856338678.0
-1.0,-4.0,-2.0,-2.0,-5.0,-13.0,-1.0,0.0,1650848856345692.0
-1.0,-11.0,-3.0,-2.0,-9.0,-19.0,-6.0,-2.0,1650848856345692.0
1.0,25.0,11.0,4.0,-3.0,-3.0,-3.0,-1.0,1650848856369594.0
1.0,-3.0,2.0,3.0,8.0,9.0,1.0,1.0,1650848856369594.0
-3.0,-2.0,-3.0,-7.0,-5.0,6.0,1.0,-2.0,1650848856370590.0
3.0,14.0,2.0,20.0,22.0,8.0,4.0,4.0,1650848856370590.0
-5.0,-35.0,-4.0,-10.0,-8.0,4.0,-1.0,-3.0,1650848856391548.0
0.0,-1.0,-7.0,-3.0,-7.0,-9.0,-5.0,-5.0,1650848856391548.0
0.0,-4.0,-3.0,-4.0,-2.0,-6.0,-2.0,1.0,1650848856393530.0
-3.0,17.0,4.0,3.0,2.0,11.0,1.0,-1.0,1650848856393530.0
2.0,5.0,0.0,-3.0,-2.0,-2.0,3.0,1.0,1650848856414473.0
-3.0,-5.0,1.0,-4.0,0.0,-5.0,-7.0,-6.0,1650848856414473.0
1.0,-2.0,-11.0,1.0,-6.0,-4.0,2.0,1.0,1650848856415470.0
2.0,2.0,6.0,-1.0,-2.0,-4.0,2.0,7.0,1650848856415470.0
-2.0,3.0,2.0,0.0,10.0,17.0,5.0,0.0,1650848856436415.0
-6.0,-3.0,-9.0,-6.0,-9.0,-1.0,0.0,-2.0,1650848856436415.0
1.0,11.0,6.0,2.0,4.0,7.0,-2.0,-4.0,1650848856444396.0
-4.0,-16.0,-7.0,-7.0,1.0,-16.0,-6.0,-3.0,1650848856444396.0
-1.0,2.0,-6.0,-4.0,-20.0,-14.0,-5.0,-4.0,1650848856466334.0
2.0,8.0,7.0,12.0,15.0,12.0,4.0,5.0,1650848856466334.0
4.0,5.0,2.0,-2.0,3.0,7.0,5.0,1.0,1650848856468330.0
1.0,-15.0,-7.0,-5.0,-7.0,-5.0,-4.0,-2.0,1650848856468330.0
-4.0,12.0,5.0,4.0,-3.0,-4.0,-6.0,-5.0,1650848856489275.0
-1.0,-6.0,-4.0,2.0,-11.0,-12.0,-1.0,0.0,1650848856489275.0
3.0,6.0,0.0,6.0,10.0,9.0,-3.0,-1.0,1650848856490301.0
-4.0,-30.0,-6.0,-8.0,-3.0,4.0,2.0,-3.0,1650848856490301.0
3.0,5.0,-1.0,-4.0,-8.0,-16.0,2.0,8.0,1650848856511282.0
-3.0,-6.0,-1.0,-4.0,-9.0,14.0,1.0,-5.0,1650848856511282.0
-6.0,-3.0,3.0,8.0,11.0,5.0,-3.0,-1.0,1650848856518221.0
2.0,18.0,3.0,2.0,9.0,0.0,1.0,3.0,1650848856518221.0
0.0,4.0,1.0,-5.0,-3.0,3.0,0.0,-3.0,1650848856533186.0
-1.0,-3.0,-3.0,4.0,-2.0,1.0,-2.0,-2.0,1650848856533186.0
0.0,-6.0,-2.0,-3.0,0.0,3.0,5.0,1.0,1650848856542143.0
-2.0,-4.0,-4.0,-16.0,-8.0,-6.0,-3.0,-4.0,1650848856542143.0
5.0,7.0,7.0,9.0,7.0,-4.0,4.0,7.0,1650848856564101.0
3.0,8.0,0.0,9.0,3.0,1.0,0.0,1.0,1650848856564101.0
-3.0,-7.0,-4.0,-6.0,-1.0,3.0,2.0,1.0,1650848856570087.0
-2.0,-2.0,2.0,-1.0,-3.0,-8.0,-3.0,-2.0,1650848856570087.0
-10.0,-1.0,-3.0,-6.0,5.0,9.0,-8.0,-18.0,1650848856587040.0
1.0,-4.0,-9.0,-5.0,-12.0,-7.0,8.0,7.0,1650848856587040.0
7.0,9.0,9.0,0.0,2.0,1.0,-10.0,11.0,1650848856588010.0
3.0,0.0,1.0,3.0,-1.0,2.0,5.0,-19.0,1650848856588010.0
9.0,-13.0,-4.0,-9.0,-7.0,-12.0,11.0,43.0,1650848856593025.0
-8.0,-4.0,-10.0,-5.0,-9.0,-5.0,-6.0,-10.0,1650848856593025.0
-5.0,3.0,6.0,5.0,13.0,19.0,1.0,-5.0,1650848856593993.0
-3.0,8.0,1.0,-5.0,-7.0,-10.0,-5.0,-2.0,1650848856593993.0
-4.0,3.0,2.0,5.0,7.0,14.0,-8.0,-16.0,1650848856601972.0
3.0,-3.0,4.0,-5.0,-4.0,-23.0,-5.0,3.0,1650848856601972.0
-2.0,-2.0,-6.0,-2.0,-5.0,10.0,7.0,3.0,1650848856602977.0
-2.0,1.0,0.0,3.0,4.0,5.0,1.0,5.0,1650848856602977.0
1.0,-4.0,-5.0,0.0,-4.0,-13.0,-4.0,-3.0,1650848856607987.0
3.0,-5.0,4.0,5.0,1.0,-6.0,-6.0,2.0,1650848856607987.0
2.0,28.0,3.0,1.0,9.0,8.0,15.0,0.0,1650848856608986.0
4.0,-7.0,-4.0,-5.0,3.0,2.0,2.0,10.0,1650848856608986.0
-3.0,-7.0,1.0,9.0,0.0,0.0,-6.0,-11.0,1650848856615961.0
2.0,9.0,8.0,7.0,11.0,8.0,1.0,-2.0,1650848856615961.0
-8.0,-15.0,-16.0,-4.0,-12.0,-2.0,-2.0,-16.0,1650848856616959.0
13.0,4.0,4.0,0.0,3.0,1.0,18.0,17.0,1650848856616959.0
-4.0,-8.0,-2.0,-17.0,-10.0,-17.0,-11.0,14.0,1650848856624938.0
3.0,4.0,-1.0,-7.0,-1.0,6.0,-2.0,-7.0,1650848856624938.0
-4.0,1.0,10.0,3.0,-1.0,0.0,-7.0,-9.0,1650848856629919.0
-3.0,10.0,9.0,6.0,0.0,-5.0,-4.0,-10.0,1650848856629919.0
-6.0,-18.0,-23.0,-1.0,-6.0,-4.0,-3.0,-12.0,1650848856638875.0
1.0,-1.0,1.0,-1.0,11.0,21.0,4.0,0.0,1650848856638875.0
4.0,-4.0,1.0,-1.0,-10.0,-22.0,7.0,5.0,1650848856640868.0
-7.0,-9.0,-5.0,-1.0,0.0,0.0,-28.0,-8.0,1650848856640868.0
0.0,25.0,10.0,-8.0,-10.0,12.0,6.0,-30.0,1650848856652866.0
16.0,10.0,5.0,10.0,11.0,-2.0,22.0,51.0,1650848856652866.0
-1.0,-21.0,-8.0,0.0,-4.0,-7.0,3.0,22.0,1650848856661813.0
1.0,9.0,3.0,-2.0,0.0,-6.0,10.0,13.0,1650848856661813.0
-10.0,-11.0,-4.0,6.0,4.0,3.0,-17.0,-14.0,1650848856676438.0
-9.0,-2.0,-2.0,-4.0,-9.0,-5.0,-14.0,-20.0,1650848856676438.0
2.0,-1.0,-2.0,-6.0,-5.0,1.0,-4.0,-1.0,1650848856682795.0
3.0,5.0,6.0,8.0,3.0,3.0,0.0,4.0,1650848856682795.0
-3.0,-1.0,-4.0,-5.0,7.0,2.0,-2.0,6.0,1650848856698732.0
1.0,12.0,8.0,2.0,-3.0,-6.0,6.0,-1.0,1650848856698732.0
-1.0,-7.0,6.0,1.0,0.0,1.0,-9.0,-5.0,1650848856700727.0
-8.0,-16.0,-22.0,-8.0,-9.0,-9.0,0.0,-2.0,1650848856700727.0
8.0,15.0,2.0,6.0,10.0,24.0,16.0,7.0,1650848856712725.0
-4.0,-14.0,1.0,3.0,-3.0,-18.0,-4.0,-6.0,1650848856712725.0
-5.0,8.0,1.0,7.0,11.0,19.0,-30.0,-22.0,1650848856721671.0
5.0,7.0,-1.0,-5.0,-8.0,-9.0,32.0,15.0,1650848856721671.0
9.0,11.0,14.0,-3.0,-7.0,-10.0,9.0,18.0,1650848856735661.0
-1.0,2.0,4.0,1.0,2.0,2.0,0.0,1.0,1650848856735661.0
-10.0,-30.0,-14.0,1.0,-9.0,-15.0,-12.0,-10.0,1650848856742639.0
-5.0,23.0,6.0,3.0,12.0,9.0,-8.0,-16.0,1650848856742639.0
3.0,-10.0,-2.0,-1.0,-5.0,-7.0,2.0,2.0,1650848856758641.0
0.0,1.0,2.0,-7.0,-4.0,1.0,-4.0,0.0,1650848856758641.0
-3.0,-9.0,-1.0,6.0,7.0,-2.0,4.0,-2.0,1650848856766554.0
-4.0,6.0,1.0,-3.0,-10.0,-2.0,-12.0,-7.0,1650848856766554.0
0.0,2.0,1.0,7.0,11.0,5.0,1.0,-21.0,1650848856772535.0
2.0,-12.0,-10.0,0.0,3.0,4.0,4.0,25.0,1650848856772535.0
4.0,12.0,2.0,-7.0,-5.0,-8.0,2.0,1.0,1650848856781510.0
-1.0,-6.0,-2.0,-2.0,1.0,2.0,-3.0,0.0,1650848856781510.0
-6.0,4.0,-3.0,-2.0,-7.0,-10.0,-10.0,-3.0,1650848856795596.0
-2.0,-1.0,2.0,-5.0,-16.0,-24.0,-5.0,-14.0,1650848856795596.0
6.0,11.0,-4.0,6.0,19.0,38.0,14.0,14.0,1650848856802605.0
-3.0,-3.0,7.0,-5.0,-6.0,-6.0,-13.0,-10.0,1650848856802605.0
-2.0,-9.0,-5.0,6.0,-4.0,-4.0,9.0,2.0,1650848856834519.0
0.0,-14.0,-7.0,-2.0,10.0,4.0,4.0,7.0,1650848856834519.0
-1.0,-8.0,-6.0,-9.0,-16.0,-26.0,-4.0,0.0,1650848856835500.0
0.0,7.0,-4.0,4.0,5.0,32.0,8.0,-2.0,1650848856835500.0
0.0,-5.0,-1.0,3.0,1.0,3.0,-8.0,-1.0,1650848856856433.0
2.0,7.0,7.0,-6.0,-2.0,-7.0,1.0,-7.0,1650848856856433.0
-7.0,-2.0,-8.0,-3.0,-3.0,-10.0,3.0,2.0,1650848856864412.0
0.0,-10.0,-6.0,3.0,1.0,0.0,-5.0,-1.0,1650848856864412.0
4.0,2.0,4.0,2.0,-2.0,-4.0,4.0,10.0,1650848856887378.0
-6.0,-11.0,1.0,-2.0,10.0,13.0,-7.0,-12.0,1650848856887378.0
4.0,17.0,10.0,4.0,-2.0,-5.0,-2.0,-3.0,1650848856888348.0
0.0,-7.0,-1.0,6.0,4.0,-5.0,2.0,3.0,1650848856888348.0
-4.0,-7.0,0.0,-7.0,-1.0,1.0,2.0,1.0,1650848856909358.0
-3.0,1.0,-9.0,-5.0,-14.0,-20.0,-13.0,-12.0,1650848856909358.0
9.0,9.0,6.0,3.0,16.0,35.0,12.0,9.0,1650848856910289.0
-6.0,-11.0,-4.0,-3.0,-9.0,-9.0,-1.0,-4.0,1650848856910289.0
-3.0,5.0,-5.0,3.0,5.0,-8.0,-5.0,-4.0,1650848856930401.0
-3.0,0.0,-2.0,-5.0,-5.0,-5.0,-5.0,-2.0,1650848856930401.0
0.0,4.0,1.0,-1.0,-6.0,-6.0,-1.0,-1.0,1650848856939377.0
1.0,-4.0,3.0,1.0,14.0,19.0,3.0,1.0,1650848856939377.0
0.0,-14.0,-3.0,-7.0,-9.0,-8.0,-7.0,-1.0,1650848856946358.0
-5.0,9.0,0.0,1.0,-1.0,4.0,-4.0,-12.0,1650848856946358.0
4.0,0.0,4.0,-8.0,-11.0,-19.0,-9.0,5.0,1650848856948373.0
-1.0,-5.0,-8.0,11.0,4.0,-5.0,12.0,5.0,1650848856948373.0
0.0,-10.0,-2.0,-8.0,-4.0,0.0,-7.0,-1.0,1650848856953360.0
-3.0,-14.0,-5.0,2.0,5.0,5.0,4.0,0.0,1650848856953360.0
0.0,34.0,8.0,-5.0,-7.0,-3.0,2.0,-2.0,1650848856954336.0
-1.0,-7.0,-1.0,1.0,1.0,0.0,-15.0,-1.0,1650848856954336.0
2.0,12.0,4.0,0.0,7.0,3.0,15.0,8.0,1650848856961319.0
-2.0,-4.0,-1.0,-5.0,-4.0,4.0,-5.0,-5.0,1650848856961319.0
-1.0,-6.0,-4.0,1.0,-2.0,-18.0,5.0,6.0,1650848856963313.0
2.0,-15.0,3.0,1.0,3.0,19.0,2.0,-1.0,1650848856963313.0
5.0,-3.0,2.0,-1.0,4.0,-9.0,-2.0,2.0,1650848856976437.0
0.0,8.0,-2.0,3.0,2.0,16.0,-3.0,-1.0,1650848856976437.0
-6.0,-9.0,2.0,-1.0,1.0,-19.0,0.0,-7.0,1650848856982812.0
-3.0,8.0,-9.0,-3.0,-6.0,15.0,-3.0,-1.0,1650848856982812.0
1.0,1.0,0.0,0.0,-10.0,-11.0,-3.0,1.0,1650848856998913.0
4.0,9.0,7.0,5.0,5.0,3.0,6.0,2.0,1650848856998913.0
-2.0,-15.0,-5.0,0.0,8.0,6.0,-3.0,-5.0,1650848857000880.0
2.0,7.0,11.0,0.0,-3.0,-17.0,-3.0,-1.0,1650848857000880.0
-3.0,-4.0,-9.0,5.0,-5.0,3.0,2.0,-2.0,1650848857012875.0
-1.0,-10.0,-6.0,-3.0,-4.0,3.0,2.0,2.0,1650848857012875.0
1.0,14.0,5.0,-4.0,-3.0,-1.0,1.0,1.0,1650848857021824.0
0.0,-5.0,1.0,-4.0,-2.0,-3.0,-4.0,0.0,1650848857021824.0
-4.0,8.0,2.0,5.0,2.0,3.0,-5.0,-6.0,1650848857050914.0
4.0,1.0,2.0,-2.0,-4.0,-5.0,9.0,15.0,1650848857050914.0
-4.0,-16.0,-4.0,3.0,0.0,16.0,-2.0,-7.0,1650848857057903.0
1.0,-3.0,-8.0,-2.0,-3.0,-9.0,5.0,0.0,1650848857057903.0
-2.0,-7.0,0.0,-4.0,5.0,-2.0,-8.0,-2.0,1650848857081882.0
1.0,10.0,4.0,1.0,0.0,11.0,2.0,-2.0,1650848857081882.0
-1.0,-10.0,-7.0,-5.0,-6.0,-12.0,1.0,2.0,1650848857082882.0
1.0,9.0,5.0,-2.0,5.0,13.0,-1.0,0.0,1650848857082882.0
0.0,-6.0,-5.0,0.0,-3.0,-11.0,1.0,0.0,1650848857104960.0
-1.0,8.0,4.0,0.0,0.0,-16.0,-5.0,-4.0,1650848857104960.0
8.0,4.0,-4.0,6.0,8.0,38.0,20.0,12.0,1650848857106938.0
-5.0,-6.0,-2.0,-5.0,-8.0,-21.0,-7.0,-7.0,1650848857106938.0
0.0,4.0,0.0,-3.0,3.0,7.0,1.0,3.0,1650848857126967.0
-2.0,-6.0,-2.0,-5.0,-9.0,-10.0,-6.0,-5.0,1650848857126967.0
-1.0,9.0,5.0,3.0,-6.0,-8.0,-10.0,-6.0,1650848857132942.0
-2.0,-4.0,-6.0,-5.0,6.0,4.0,4.0,3.0,1650848857132942.0
0.0,-21.0,-1.0,4.0,4.0,6.0,7.0,5.0,1650848857155990.0
3.0,27.0,3.0,1.0,-4.0,-1.0,-1.0,-3.0,1650848857155990.0
-3.0,-2.0,5.0,-3.0,-2.0,0.0,-5.0,-8.0,1650848857163980.0
-4.0,-8.0,-1.0,0.0,-10.0,-10.0,6.0,2.0,1650848857163980.0
6.0,17.0,2.0,0.0,12.0,11.0,1.0,-1.0,1650848857179916.0
-2.0,-17.0,-5.0,-5.0,-4.0,-6.0,0.0,-3.0,1650848857179916.0
-3.0,0.0,1.0,4.0,4.0,-1.0,-4.0,1.0,1650848857181896.0
-3.0,-1.0,-1.0,1.0,-6.0,-14.0,-14.0,-9.0,1650848857181896.0
0.0,2.0,-3.0,0.0,-2.0,0.0,10.0,6.0,1650848857201840.0
-2.0,2.0,7.0,3.0,7.0,6.0,-1.0,0.0,1650848857201840.0
-1.0,-8.0,-9.0,-2.0,-1.0,-16.0,-6.0,-7.0,1650848857207826.0
2.0,20.0,4.0,1.0,-2.0,20.0,6.0,2.0,1650848857207826.0
-3.0,-2.0,-4.0,-1.0,0.0,6.0,1.0,0.0,1650848857222775.0
3.0,-2.0,3.0,4.0,6.0,8.0,6.0,3.0,1650848857222775.0
0.0,-16.0,-7.0,-7.0,-2.0,-14.0,-3.0,0.0,1650848857231916.0
3.0,15.0,3.0,1.0,-9.0,-10.0,-8.0,-3.0,1650848857231916.0
1.0,5.0,6.0,-2.0,14.0,10.0,8.0,5.0,1650848857253885.0
-3.0,-9.0,-3.0,-1.0,-2.0,12.0,-5.0,-1.0,1650848857253885.0
-4.0,-3.0,-5.0,-7.0,-16.0,-16.0,-4.0,-4.0,1650848857255852.0
1.0,-9.0,1.0,-2.0,-3.0,7.0,0.0,4.0,1650848857255852.0
-1.0,7.0,1.0,-4.0,-2.0,-5.0,-6.0,-6.0,1650848857276844.0
-2.0,-5.0,-4.0,-2.0,-1.0,-4.0,0.0,0.0,1650848857276844.0
0.0,1.0,2.0,1.0,10.0,3.0,3.0,2.0,1650848857283804.0
1.0,-2.0,-1.0,0.0,-2.0,-4.0,-1.0,1.0,1650848857283804.0
-4.0,-2.0,-4.0,0.0,-10.0,-7.0,-4.0,-2.0,1650848857297769.0
-2.0,-5.0,-3.0,-3.0,9.0,-10.0,-3.0,-3.0,1650848857297769.0
1.0,3.0,4.0,0.0,5.0,30.0,10.0,3.0,1650848857306716.0
1.0,5.0,3.0,5.0,2.0,4.0,4.0,0.0,1650848857306716.0
-2.0,-9.0,-8.0,-2.0,-5.0,2.0,-2.0,-2.0,1650848857328843.0
1.0,0.0,3.0,5.0,1.0,-9.0,1.0,1.0,1650848857328843.0
0.0,5.0,0.0,0.0,-5.0,-16.0,-8.0,-2.0,1650848857330770.0
1.0,-2.0,4.0,4.0,11.0,20.0,4.0,3.0,1650848857330770.0
-3.0,-8.0,-5.0,-7.0,-4.0,-10.0,-4.0,-3.0,1650848857335757.0
-1.0,7.0,2.0,2.0,-1.0,9.0,2.0,0.0,1650848857335757.0
-3.0,4.0,-2.0,0.0,-1.0,-16.0,-7.0,-3.0,1650848857336754.0
-1.0,-10.0,-6.0,-8.0,-3.0,6.0,4.0,1.0,1650848857336754.0
1.0,-2.0,0.0,5.0,-10.0,-9.0,-4.0,-2.0,1650848857343763.0
0.0,19.0,2.0,-4.0,3.0,1.0,0.0,-1.0,1650848857343763.0
2.0,-12.0,-1.0,-1.0,2.0,8.0,-2.0,0.0,1650848857345731.0
-2.0,8.0,-1.0,0.0,-5.0,-29.0,-6.0,-5.0,1650848857345731.0
0.0,0.0,0.0,4.0,2.0,16.0,1.0,0.0,1650848857350716.0
-3.0,-10.0,-5.0,-5.0,-13.0,-12.0,-2.0,-1.0,1650848857350716.0
2.0,0.0,5.0,0.0,5.0,-2.0,3.0,-2.0,1650848857351715.0
1.0,1.0,2.0,3.0,12.0,24.0,1.0,-1.0,1650848857351715.0
0.0,-3.0,-2.0,-1.0,-1.0,-6.0,2.0,1.0,1650848857358723.0
-2.0,-5.0,-5.0,-5.0,-2.0,-4.0,-2.0,-2.0,1650848857358723.0
-1.0,3.0,4.0,-3.0,-7.0,0.0,-1.0,-1.0,1650848857359692.0
-4.0,-4.0,2.0,1.0,-12.0,-33.0,-6.0,-3.0,1650848857359692.0
1.0,6.0,3.0,-2.0,8.0,8.0,-1.0,-1.0,1650848857366674.0
2.0,-8.0,-12.0,1.0,10.0,15.0,3.0,0.0,1650848857366674.0
-1.0,-1.0,9.0,3.0,1.0,-1.0,0.0,1.0,1650848857368669.0
-3.0,-3.0,-10.0,-6.0,0.0,1.0,0.0,-1.0,1650848857368669.0
-1.0,1.0,-12.0,-5.0,-13.0,-9.0,-1.0,-1.0,1650848857381645.0
-2.0,-4.0,12.0,1.0,0.0,-9.0,-3.0,-2.0,1650848857381645.0
1.0,4.0,-2.0,5.0,13.0,32.0,11.0,4.0,1650848857383629.0
-2.0,-2.0,11.0,-1.0,-3.0,-11.0,-1.0,-2.0,1650848857383629.0
0.0,4.0,3.0,3.0,1.0,5.0,-2.0,-1.0,1650848857395708.0
-3.0,-8.0,-14.0,-6.0,-10.0,-32.0,-5.0,-3.0,1650848857395708.0
0.0,2.0,1.0,3.0,0.0,27.0,1.0,1.0,1650848857402690.0
1.0,-6.0,1.0,-5.0,12.0,7.0,2.0,0.0,1650848857402690.0
-2.0,3.0,3.0,-2.0,-5.0,-6.0,-1.0,-1.0,1650848857418648.0
1.0,3.0,2.0,1.0,-1.0,2.0,-2.0,3.0,1650848857418648.0
-2.0,-6.0,-6.0,2.0,-8.0,-7.0,-3.0,-3.0,1650848857425802.0
2.0,2.0,-6.0,3.0,1.0,-2.0,-2.0,1.0,1650848857425802.0
1.0,-3.0,0.0,0.0,7.0,4.0,0.0,-1.0,1650848857441762.0
-1.0,-4.0,-1.0,-4.0,-7.0,-5.0,-1.0,-3.0,1650848857441762.0
1.0,3.0,-4.0,-2.0,2.0,-3.0,0.0,1.0,1650848857442793.0
-2.0,2.0,-3.0,8.0,0.0,2.0,1.0,0.0,1650848857442793.0
-2.0,0.0,5.0,-2.0,9.0,5.0,-1.0,2.0,1650848857455724.0
-3.0,-4.0,-1.0,-5.0,-18.0,-21.0,-5.0,-2.0,1650848857455724.0
0.0,4.0,-3.0,5.0,-1.0,25.0,1.0,2.0,1650848857462705.0
0.0,1.0,1.0,-6.0,18.0,14.0,6.0,1.0,1650848857462705.0
-4.0,-6.0,-1.0,-6.0,-12.0,-15.0,-6.0,-4.0,1650848857478868.0
3.0,-2.0,-1.0,8.0,3.0,12.0,1.0,-1.0,1650848857478868.0
-1.0,1.0,-2.0,-3.0,-4.0,-21.0,-3.0,-1.0,1650848857484871.0
1.0,-6.0,-3.0,-3.0,-5.0,-8.0,-2.0,-1.0,1650848857484871.0
-2.0,7.0,-2.0,3.0,-1.0,-3.0,-2.0,-2.0,1650848857501806.0
-1.0,0.0,-4.0,1.0,7.0,29.0,3.0,3.0,1650848857501806.0
-2.0,-1.0,4.0,-3.0,-4.0,-15.0,-2.0,-2.0,1650848857502803.0
-2.0,-1.0,1.0,0.0,0.0,4.0,-1.0,0.0,1650848857502803.0
-1.0,0.0,1.0,0.0,-1.0,-12.0,-1.0,0.0,1650848857515769.0
-3.0,-6.0,-11.0,1.0,-2.0,9.0,1.0,0.0,1650848857515769.0
1.0,-3.0,2.0,3.0,8.0,-2.0,3.0,0.0,1650848857522750.0
-1.0,4.0,11.0,2.0,-7.0,-7.0,-3.0,-2.0,1650848857522750.0
1.0,1.0,-2.0,-9.0,1.0,9.0,3.0,0.0,1650848857538728.0
-4.0,0.0,-7.0,-3.0,-6.0,-15.0,-3.0,-4.0,1650848857538728.0
-1.0,-1.0,0.0,0.0,3.0,17.0,2.0,2.0,1650848857545715.0
-2.0,-5.0,-5.0,-2.0,1.0,-6.0,-4.0,0.0,1650848857545715.0
-1.0,3.0,12.0,5.0,-5.0,-4.0,-2.0,-1.0,1650848857561648.0
4.0,5.0,1.0,-5.0,15.0,14.0,3.0,1.0,1650848857561648.0
-1.0,-3.0,-23.0,-4.0,-10.0,-25.0,-5.0,-4.0,1650848857563661.0
0.0,-5.0,1.0,6.0,-6.0,0.0,-4.0,-1.0,1650848857563661.0
0.0,-5.0,6.0,-4.0,-10.0,15.0,4.0,2.0,1650848857607696.0
1.0,-1.0,-5.0,3.0,13.0,6.0,2.0,2.0,1650848857607696.0
1.0,2.0,9.0,-5.0,4.0,-3.0,-1.0,2.0,1650848857609692.0
-2.0,3.0,2.0,6.0,-3.0,-6.0,-3.0,-5.0,1650848857609692.0
-2.0,-5.0,-13.0,-5.0,0.0,0.0,-2.0,-3.0,1650848857621659.0
1.0,3.0,-5.0,-7.0,-7.0,-3.0,-1.0,0.0,1650848857621659.0
-2.0,-5.0,16.0,-1.0,-1.0,1.0,-1.0,-1.0,1650848857623654.0
-1.0,-4.0,-25.0,9.0,-3.0,-5.0,-1.0,1.0,1650848857623654.0
1.0,3.0,10.0,3.0,8.0,-9.0,-3.0,1.0,1650848857635648.0
0.0,5.0,4.0,-9.0,4.0,20.0,8.0,2.0,1650848857635648.0
2.0,2.0,3.0,-1.0,6.0,7.0,3.0,1.0,1650848857644597.0
2.0,4.0,8.0,-10.0,-4.0,-7.0,-1.0,-2.0,1650848857644597.0
2.0,1.0,-22.0,-1.0,-1.0,3.0,-1.0,0.0,1650848857658626.0
1.0,0.0,13.0,-3.0,-6.0,-13.0,-4.0,-2.0,1650848857658626.0
1.0,2.0,2.0,1.0,-1.0,3.0,-3.0,0.0,1650848857659557.0
1.0,1.0,1.0,-3.0,-7.0,-10.0,2.0,0.0,1650848857659557.0
1.0,3.0,-1.0,-1.0,2.0,5.0,-1.0,-1.0,1650848857673519.0
-1.0,-1.0,3.0,-2.0,8.0,13.0,3.0,4.0,1650848857673519.0
0.0,2.0,0.0,-6.0,0.0,-5.0,0.0,0.0,1650848857680567.0
1.0,0.0,-1.0,-9.0,-2.0,2.0,-1.0,-2.0,1650848857680567.0
0.0,-5.0,-3.0,-11.0,-6.0,-11.0,-1.0,-4.0,1650848857689477.0
0.0,3.0,7.0,3.0,-4.0,-9.0,-3.0,0.0,1650848857689477.0
-1.0,0.0,2.0,1.0,-3.0,3.0,-4.0,-2.0,1650848857690474.0
2.0,-4.0,-7.0,-11.0,17.0,32.0,8.0,2.0,1650848857690474.0
-2.0,0.0,0.0,-4.0,-13.0,-4.0,-1.0,-2.0,1650848857710425.0
2.0,-1.0,0.0,0.0,2.0,1.0,1.0,0.0,1650848857710425.0
-1.0,-4.0,-2.0,-4.0,0.0,-18.0,-1.0,-3.0,1650848857719397.0
0.0,-6.0,7.0,-6.0,-3.0,-5.0,-3.0,-2.0,1650848857719397.0
2.0,6.0,-5.0,-1.0,-1.0,-5.0,0.0,-1.0,1650848857726832.0
-4.0,-2.0,19.0,-5.0,0.0,12.0,-1.0,-2.0,1650848857726832.0
-5.0,-7.0,1.0,-6.0,-4.0,-3.0,0.0,-3.0,1650848857727833.0
-2.0,-3.0,-9.0,-3.0,2.0,4.0,2.0,0.0,1650848857727833.0
0.0,0.0,0.0,-6.0,5.0,1.0,2.0,0.0,1650848857748873.0
-1.0,-2.0,-1.0,-6.0,-15.0,-37.0,-7.0,-4.0,1650848857748873.0
2.0,6.0,2.0,-2.0,8.0,52.0,7.0,3.0,1650848857750834.0
-1.0,-1.0,1.0,-7.0,4.0,-7.0,-3.0,-2.0,1650848857750834.0
0.0,-8.0,4.0,-2.0,4.0,12.0,1.0,1.0,1650848857771799.0
-1.0,-4.0,-7.0,-3.0,-6.0,-1.0,0.0,-3.0,1650848857771799.0
-1.0,-3.0,-1.0,-5.0,-5.0,-15.0,-4.0,-5.0,1650848857772776.0
-1.0,-1.0,0.0,3.0,-5.0,-13.0,-2.0,-2.0,1650848857772776.0
-1.0,-9.0,-4.0,-11.0,-11.0,3.0,2.0,0.0,1650848857785761.0
-2.0,-1.0,3.0,10.0,15.0,6.0,0.0,-4.0,1650848857785761.0
-3.0,-5.0,-13.0,-9.0,-5.0,-16.0,-3.0,-5.0,1650848857792766.0
-2.0,-4.0,13.0,-6.0,4.0,15.0,3.0,-1.0,1650848857792766.0
-4.0,-5.0,0.0,7.0,-3.0,-9.0,-4.0,-4.0,1650848857808680.0
-2.0,-2.0,-20.0,-4.0,-5.0,10.0,2.0,-1.0,1650848857808680.0
-3.0,-5.0,-5.0,-9.0,-8.0,-29.0,-3.0,-2.0,1650848857810674.0
0.0,1.0,10.0,1.0,2.0,-3.0,-2.0,0.0,1650848857810674.0
1.0,-4.0,-5.0,3.0,17.0,45.0,12.0,3.0,1650848857831189.0
0.0,-1.0,12.0,10.0,5.0,4.0,2.0,-1.0,1650848857831189.0
-2.0,-6.0,-17.0,-9.0,-12.0,-11.0,-3.0,-3.0,1650848857838185.0
-1.0,2.0,11.0,5.0,-5.0,-12.0,-2.0,-1.0,1650848857838185.0
-2.0,-2.0,-7.0,3.0,-10.0,-17.0,-5.0,0.0,1650848857846167.0
-2.0,-2.0,7.0,3.0,-1.0,-2.0,-1.0,-3.0,1650848857846167.0
0.0,-2.0,-7.0,0.0,4.0,8.0,1.0,0.0,1650848857853109.0
-1.0,2.0,2.0,-3.0,-5.0,-1.0,-1.0,1.0,1650848857853109.0
-2.0,-1.0,-2.0,6.0,1.0,-13.0,-4.0,-2.0,1650848857869102.0
-1.0,-5.0,-12.0,-3.0,2.0,13.0,3.0,0.0,1650848857869102.0
1.0,-3.0,1.0,9.0,-5.0,-10.0,-1.0,3.0,1650848857871062.0
0.0,3.0,0.0,6.0,9.0,17.0,3.0,-1.0,1650848857871062.0
-2.0,-2.0,11.0,2.0,-1.0,-9.0,-2.0,-1.0,1650848857900019.0
0.0,-3.0,-4.0,-5.0,-3.0,-5.0,-3.0,-2.0,1650848857900019.0
-1.0,1.0,-7.0,1.0,-6.0,0.0,-3.0,0.0,1650848857901002.0
0.0,1.0,7.0,6.0,1.0,-11.0,-3.0,1.0,1650848857901002.0
2.0,5.0,-4.0,4.0,8.0,17.0,4.0,2.0,1650848857921925.0
-3.0,0.0,1.0,-4.0,-3.0,-15.0,-4.0,-3.0,1650848857921925.0
-1.0,-2.0,1.0,-1.0,1.0,18.0,2.0,0.0,1650848857922923.0
-1.0,-1.0,-5.0,-5.0,-8.0,-5.0,1.0,-1.0,1650848857922923.0
0.0,2.0,5.0,0.0,-2.0,-11.0,-2.0,0.0,1650848857942910.0
3.0,0.0,-5.0,-4.0,13.0,15.0,3.0,2.0,1650848857942910.0
2.0,6.0,1.0,-2.0,1.0,-2.0,1.0,-1.0,1650848857951846.0
-5.0,-3.0,7.0,1.0,-7.0,-5.0,-5.0,-2.0,1650848857951846.0
-1.0,4.0,1.0,3.0,0.0,-4.0,-3.0,-1.0,1650848857973786.0
-2.0,-6.0,5.0,-7.0,-11.0,-9.0,-4.0,-3.0,1650848857973786.0
-1.0,-11.0,-31.0,-2.0,-5.0,-4.0,-2.0,-1.0,1650848857975782.0
0.0,0.0,-10.0,0.0,0.0,5.0,0.0,0.0,1650848857975782.0
-2.0,-3.0,6.0,-11.0,-3.0,-4.0,-1.0,-3.0,1650848857996851.0
5.0,4.0,2.0,7.0,-3.0,1.0,-1.0,2.0,1650848857996851.0
-3.0,3.0,-5.0,-9.0,-2.0,-14.0,-1.0,-2.0,1650848857997851.0
5.0,2.0,7.0,2.0,6.0,15.0,-1.0,1.0,1650848857997851.0
-1.0,-9.0,13.0,14.0,-3.0,-13.0,-5.0,-8.0,1650848858003862.0
5.0,4.0,5.0,-3.0,0.0,9.0,7.0,3.0,1650848858003862.0
0.0,0.0,9.0,0.0,10.0,7.0,1.0,1.0,1650848858005828.0
17.0,-4.0,-19.0,-8.0,-9.0,-15.0,-2.0,-3.0,1650848858005828.0
-33.0,0.0,1.0,-8.0,-1.0,-7.0,-4.0,-4.0,1650848858010816.0
-6.0,-3.0,-4.0,3.0,0.0,-1.0,-2.0,0.0,1650848858010816.0
5.0,-2.0,13.0,3.0,-7.0,-7.0,-2.0,-1.0,1650848858011814.0
6.0,2.0,-7.0,0.0,11.0,4.0,2.0,1.0,1650848858011814.0
12.0,1.0,5.0,6.0,-2.0,5.0,0.0,2.0,1650848858018815.0
-17.0,-7.0,-1.0,-4.0,-8.0,0.0,-1.0,-2.0,1650848858018815.0
0.0,1.0,-2.0,3.0,6.0,11.0,3.0,1.0,1650848858024780.0
-9.0,-1.0,10.0,4.0,4.0,1.0,-3.0,-1.0,1650848858024780.0
15.0,1.0,-14.0,-6.0,1.0,2.0,5.0,2.0,1650848858041733.0
-1.0,3.0,12.0,-2.0,-8.0,-18.0,-5.0,-4.0,1650848858041733.0
-69.0,-11.0,-7.0,-3.0,5.0,14.0,4.0,5.0,1650848858042730.0
1.0,-2.0,9.0,2.0,-4.0,-2.0,-1.0,-2.0,1650848858042730.0
1.0,-1.0,-1.0,-11.0,4.0,1.0,-1.0,1.0,1650848858055728.0
10.0,0.0,-13.0,-1.0,-2.0,-14.0,-4.0,-2.0,1650848858055728.0
13.0,5.0,11.0,9.0,-2.0,-16.0,-9.0,-3.0,1650848858064672.0
0.0,1.0,-13.0,-6.0,-1.0,36.0,18.0,5.0,1650848858064672.0
-21.0,-5.0,-4.0,-8.0,1.0,-6.0,-6.0,-2.0,1650848858078757.0
5.0,-1.0,-2.0,2.0,1.0,9.0,7.0,0.0,1650848858078757.0
9.0,3.0,2.0,-3.0,-5.0,-19.0,-8.0,-5.0,1650848858085698.0
-6.0,-7.0,4.0,6.0,-12.0,-5.0,-6.0,-2.0,1650848858085698.0
14.0,9.0,-2.0,2.0,7.0,3.0,-2.0,0.0,1650848858100760.0
-2.0,-3.0,-10.0,-5.0,-7.0,-8.0,-1.0,-2.0,1650848858100760.0
5.0,-1.0,1.0,-2.0,2.0,25.0,3.0,0.0,1650848858107711.0
-3.0,1.0,6.0,-4.0,7.0,-19.0,-3.0,-5.0,1650848858107711.0
1.0,-6.0,-9.0,-1.0,-8.0,2.0,1.0,2.0,1650848858115716.0
-4.0,0.0,-11.0,-6.0,4.0,-2.0,-4.0,1.0,1650848858115716.0
10.0,-2.0,20.0,8.0,1.0,-2.0,3.0,-2.0,1650848858124674.0
-5.0,6.0,-13.0,-4.0,-8.0,-6.0,-4.0,0.0,1650848858124674.0
1.0,-3.0,2.0,-1.0,-3.0,-4.0,0.0,0.0,1650848858138628.0
-1.0,-3.0,2.0,-1.0,0.0,-11.0,-4.0,-2.0,1650848858138628.0
11.0,-1.0,-6.0,1.0,2.0,16.0,4.0,-2.0,1650848858145676.0
-4.0,-5.0,-9.0,-4.0,3.0,4.0,1.0,-2.0,1650848858145676.0
0.0,3.0,13.0,5.0,1.0,4.0,-3.0,-3.0,1650848858161571.0
0.0,-2.0,5.0,-1.0,-7.0,-8.0,3.0,2.0,1650848858161571.0
0.0,-3.0,-12.0,3.0,6.0,6.0,2.0,1.0,1650848858167579.0
-2.0,5.0,7.0,-5.0,3.0,3.0,2.0,0.0,1650848858167579.0
3.0,-2.0,-27.0,-6.0,-5.0,-5.0,0.0,0.0,1650848858175551.0
-2.0,0.0,-3.0,4.0,0.0,7.0,-2.0,-1.0,1650848858175551.0
1.0,-1.0,19.0,5.0,-5.0,-14.0,-3.0,-1.0,1650848858184505.0
13.0,2.0,-6.0,3.0,-3.0,-11.0,-2.0,-2.0,1650848858184505.0
7.0,0.0,-3.0,2.0,4.0,7.0,3.0,-1.0,1650848858198585.0
0.0,-5.0,4.0,2.0,4.0,5.0,1.0,1.0,1650848858198585.0
-2.0,0.0,-5.0,-8.0,0.0,-5.0,1.0,0.0,1650848858205564.0
2.0,1.0,3.0,0.0,-6.0,-2.0,-3.0,2.0,1650848858205564.0
-2.0,0.0,7.0,5.0,5.0,0.0,2.0,1.0,1650848858221089.0
-1.0,-2.0,-16.0,-8.0,-2.0,3.0,-4.0,-2.0,1650848858221089.0
10.0,4.0,9.0,4.0,-1.0,-8.0,-4.0,0.0,1650848858228106.0
-10.0,-6.0,-6.0,1.0,-4.0,-6.0,0.0,-2.0,1650848858228106.0
-3.0,1.0,-6.0,2.0,2.0,21.0,2.0,0.0,1650848858244067.0
5.0,1.0,2.0,-4.0,10.0,10.0,3.0,2.0,1650848858244067.0
-2.0,-1.0,-6.0,-2.0,-9.0,-7.0,5.0,2.0,1650848858246021.0
-5.0,-4.0,-9.0,-1.0,-5.0,-11.0,-5.0,-1.0,1650848858246021.0
-3.0,2.0,9.0,-6.0,-8.0,-16.0,-2.0,0.0,1650848858258959.0
1.0,-1.0,-1.0,2.0,-1.0,2.0,-2.0,0.0,1650848858258959.0
-4.0,-2.0,1.0,4.0,0.0,4.0,-2.0,-1.0,1650848858264970.0
-3.0,-1.0,-10.0,-5.0,-2.0,-7.0,-2.0,2.0,1650848858264970.0
1.0,-1.0,14.0,3.0,6.0,9.0,0.0,-6.0,1650848858280927.0
3.0,1.0,12.0,9.0,-3.0,4.0,-1.0,0.0,1650848858280927.0
0.0,6.0,-1.0,-4.0,-6.0,-7.0,-1.0,-2.0,1650848858287909.0
-6.0,-5.0,-10.0,-8.0,3.0,0.0,-1.0,-2.0,1650848858287909.0
1.0,-1.0,-1.0,-1.0,4.0,4.0,0.0,0.0,1650848858303907.0
-3.0,5.0,5.0,1.0,2.0,3.0,0.0,-1.0,1650848858303907.0
-1.0,-10.0,-5.0,-7.0,-5.0,-3.0,-2.0,-2.0,1650848858305874.0
3.0,5.0,1.0,0.0,1.0,2.0,0.0,-1.0,1650848858305874.0
0.0,-7.0,-9.0,-5.0,-9.0,-18.0,-3.0,2.0,1650848858318838.0
-3.0,4.0,2.0,2.0,2.0,12.0,-2.0,-1.0,1650848858318838.0
1.0,4.0,6.0,0.0,8.0,9.0,5.0,1.0,1650848858324823.0
-3.0,-6.0,-5.0,4.0,-5.0,-7.0,-2.0,-3.0,1650848858324823.0
-1.0,-3.0,1.0,0.0,-3.0,-19.0,-3.0,0.0,1650848858340800.0
-3.0,-3.0,-4.0,-3.0,-8.0,17.0,2.0,-1.0,1650848858340800.0
1.0,-1.0,-1.0,2.0,10.0,3.0,0.0,1.0,1650848858347761.0
-3.0,4.0,1.0,-1.0,5.0,11.0,2.0,0.0,1650848858347761.0
-4.0,-3.0,6.0,0.0,-4.0,-14.0,-2.0,-3.0,1650848858363746.0
1.0,-1.0,-11.0,1.0,-3.0,-10.0,-2.0,-1.0,1650848858363746.0
0.0,-1.0,-4.0,-1.0,-3.0,2.0,-1.0,0.0,1650848858365718.0
0.0,1.0,6.0,-4.0,1.0,2.0,1.0,0.0,1650848858365718.0
0.0,-6.0,-5.0,0.0,1.0,7.0,0.0,2.0,1650848858378745.0
1.0,5.0,9.0,1.0,2.0,-2.0,0.0,1.0,1650848858378745.0
2.0,-1.0,-1.0,1.0,1.0,0.0,-1.0,-3.0,1650848858392641.0
-1.0,-2.0,-5.0,-3.0,-3.0,-18.0,-7.0,-3.0,1650848858392641.0
-1.0,4.0,3.0,5.0,13.0,40.0,4.0,2.0,1650848858400684.0
-4.0,-8.0,-10.0,-8.0,-9.0,-11.0,-1.0,-1.0,1650848858400684.0
-1.0,-3.0,-1.0,-3.0,1.0,-3.0,-2.0,-2.0,1650848858407601.0
0.0,1.0,14.0,9.0,-5.0,-4.0,1.0,1.0,1650848858407601.0
3.0,2.0,0.0,3.0,5.0,0.0,1.0,2.0,1650848858432181.0
-1.0,5.0,11.0,1.0,-1.0,-5.0,-1.0,-4.0,1650848858432181.0
-1.0,-2.0,-10.0,-7.0,-5.0,-3.0,-2.0,-2.0,1650848858433175.0
-2.0,-3.0,-2.0,-2.0,-1.0,4.0,-2.0,0.0,1650848858433175.0
0.0,-3.0,-6.0,-3.0,3.0,2.0,0.0,1.0,1650848858438159.0
-1.0,-6.0,0.0,-1.0,-2.0,-13.0,-1.0,-1.0,1650848858438159.0
0.0,6.0,1.0,3.0,-2.0,14.0,2.0,2.0,1650848858445169.0
0.0,-3.0,3.0,0.0,5.0,5.0,3.0,-1.0,1650848858445169.0
-3.0,-8.0,4.0,1.0,-8.0,-14.0,-4.0,-3.0,1650848858461165.0
1.0,8.0,3.0,6.0,8.0,10.0,0.0,1.0,1650848858461165.0
-2.0,3.0,-2.0,-6.0,-4.0,-13.0,-5.0,-3.0,1650848858468106.0
1.0,-5.0,-5.0,0.0,-1.0,3.0,-1.0,0.0,1650848858468106.0
-2.0,-5.0,-2.0,-1.0,-1.0,14.0,7.0,1.0,1650848858484063.0
-1.0,-2.0,-2.0,2.0,-3.0,0.0,-2.0,-3.0,1650848858484063.0
-1.0,-3.0,3.0,-2.0,-3.0,3.0,0.0,-2.0,1650848858486059.0
-1.0,3.0,-4.0,-3.0,1.0,-3.0,2.0,-1.0,1650848858486059.0
1.0,7.0,2.0,-3.0,-1.0,-12.0,-5.0,0.0,1650848858498890.0
-1.0,-11.0,-4.0,-1.0,0.0,0.0,-1.0,-1.0,1650848858498890.0
0.0,4.0,3.0,1.0,-8.0,-5.0,-1.0,0.0,1650848858512915.0
0.0,-5.0,-4.0,1.0,0.0,4.0,0.0,0.0,1650848858512915.0
-1.0,-2.0,-7.0,-1.0,2.0,0.0,-2.0,0.0,1650848858520859.0
-3.0,-2.0,6.0,-5.0,0.0,1.0,0.0,-1.0,1650848858520859.0
-1.0,-3.0,-5.0,-1.0,3.0,-3.0,0.0,-1.0,1650848858527880.0
-2.0,4.0,1.0,1.0,-6.0,-8.0,-1.0,-2.0,1650848858527880.0
0.0,1.0,2.0,2.0,-1.0,-5.0,0.0,-1.0,1650848858543814.0
0.0,-4.0,-7.0,2.0,4.0,16.0,2.0,2.0,1650848858543814.0
-1.0,0.0,0.0,-3.0,-6.0,-13.0,-2.0,-3.0,1650848858545836.0
0.0,1.0,4.0,1.0,6.0,8.0,0.0,0.0,1650848858545836.0
-1.0,0.0,-5.0,-2.0,-6.0,-12.0,0.0,-4.0,1650848858558773.0
-1.0,3.0,1.0,4.0,-2.0,3.0,-2.0,-1.0,1650848858558773.0
0.0,-1.0,-3.0,0.0,7.0,12.0,2.0,2.0,1650848858565754.0
1.0,-4.0,-5.0,-4.0,-7.0,-5.0,1.0,1.0,1650848858565754.0
-1.0,-6.0,0.0,1.0,4.0,-3.0,-1.0,-2.0,1650848858580781.0
-2.0,4.0,-3.0,-2.0,-4.0,-10.0,-2.0,1.0,1650848858580781.0
-4.0,-9.0,2.0,7.0,-1.0,-8.0,-3.0,-1.0,1650848858587723.0
-2.0,7.0,4.0,-3.0,-7.0,-2.0,-1.0,-1.0,1650848858587723.0
3.0,2.0,-6.0,-2.0,-1.0,2.0,-2.0,0.0,1650848858603772.0
0.0,0.0,-3.0,-5.0,-4.0,-13.0,-1.0,-1.0,1650848858603772.0
-2.0,-5.0,-1.0,1.0,-1.0,5.0,-1.0,-3.0,1650848858605743.0
0.0,-2.0,0.0,0.0,6.0,11.0,7.0,3.0,1650848858605743.0
-3.0,3.0,-1.0,3.0,1.0,22.0,2.0,1.0,1650848858618704.0
0.0,2.0,-1.0,-5.0,0.0,-5.0,0.0,-1.0,1650848858618704.0
-2.0,-16.0,-6.0,-1.0,-3.0,-12.0,-4.0,0.0,1650848858625229.0
2.0,18.0,15.0,8.0,0.0,-2.0,-2.0,-1.0,1650848858625229.0
1.0,3.0,0.0,-4.0,-5.0,-5.0,-4.0,0.0,1650848858641186.0
-1.0,-7.0,4.0,4.0,3.0,-4.0,1.0,1.0,1650848858641186.0
-1.0,1.0,-9.0,-3.0,-6.0,6.0,0.0,0.0,1650848858648215.0
-1.0,-9.0,-9.0,-3.0,7.0,-1.0,-1.0,-2.0,1650848858648215.0
-1.0,0.0,5.0,1.0,5.0,-9.0,1.0,0.0,1650848858664235.0
-2.0,-7.0,-7.0,0.0,0.0,19.0,3.0,1.0,1650848858664235.0
2.0,8.0,11.0,-1.0,-8.0,-5.0,1.0,1.0,1650848858666206.0
-3.0,-4.0,-1.0,0.0,11.0,6.0,1.0,0.0,1650848858666206.0
1.0,0.0,1.0,0.0,-10.0,-11.0,-1.0,-3.0,1650848858678241.0
-1.0,1.0,-2.0,-3.0,-11.0,-29.0,-8.0,-3.0,1650848858678241.0
0.0,4.0,0.0,0.0,17.0,39.0,5.0,5.0,1650848858685155.0
-1.0,-3.0,-7.0,-4.0,-14.0,-8.0,2.0,0.0,1650848858685155.0
-1.0,-1.0,7.0,4.0,7.0,5.0,-3.0,-1.0,1650848858708878.0
0.0,0.0,1.0,-1.0,0.0,-14.0,-1.0,-2.0,1650848858708878.0
1.0,0.0,-9.0,1.0,2.0,13.0,1.0,1.0,1650848858710874.0
-3.0,2.0,2.0,-7.0,-9.0,-9.0,-6.0,-2.0,1650848858710874.0
-1.0,-4.0,-5.0,0.0,-10.0,-1.0,0.0,2.0,1650848858723867.0
0.0,-2.0,7.0,2.0,6.0,4.0,0.0,0.0,1650848858723867.0
1.0,6.0,2.0,-1.0,0.0,-11.0,-2.0,-1.0,1650848858725835.0
0.0,-9.0,0.0,2.0,-2.0,2.0,-3.0,-1.0,1650848858725835.0
-3.0,-1.0,-7.0,-5.0,-9.0,-10.0,0.0,-1.0,1650848858737800.0
3.0,6.0,-2.0,6.0,11.0,21.0,2.0,4.0,1650848858737800.0
0.0,1.0,5.0,2.0,-8.0,-10.0,1.0,0.0,1650848858746892.0
-2.0,-7.0,-2.0,-4.0,3.0,4.0,1.0,0.0,1650848858746892.0
-1.0,6.0,6.0,-8.0,-6.0,-8.0,-4.0,-1.0,1650848858761042.0
-1.0,-1.0,-8.0,4.0,-1.0,-3.0,-3.0,-2.0,1650848858761042.0
-2.0,-2.0,4.0,-1.0,-1.0,-11.0,0.0,-1.0,1650848858768023.0
0.0,0.0,-2.0,2.0,6.0,14.0,2.0,0.0,1650848858768023.0
0.0,-3.0,2.0,5.0,6.0,12.0,1.0,-1.0,1650848858790922.0
-1.0,0.0,4.0,-4.0,2.0,-11.0,1.0,1.0,1650848858790922.0
0.0,4.0,-9.0,-7.0,-7.0,15.0,1.0,-3.0,1650848858798888.0
-1.0,-4.0,4.0,4.0,-2.0,-13.0,-5.0,-2.0,1650848858798888.0
-2.0,2.0,0.0,8.0,8.0,0.0,-1.0,0.0,1650848858798888.0
-1.0,-2.0,-5.0,-3.0,0.0,3.0,3.0,0.0,1650848858798888.0
-3.0,-5.0,2.0,-4.0,-3.0,-15.0,-4.0,-2.0,1650848858806856.0
-1.0,1.0,-10.0,-7.0,-5.0,-3.0,0.0,1.0,1650848858806856.0
1.0,-2.0,2.0,1.0,1.0,7.0,0.0,1.0,1650848858821848.0
0.0,1.0,-1.0,-2.0,-2.0,1.0,-1.0,-3.0,1650848858821848.0
0.0,1.0,6.0,6.0,6.0,-1.0,1.0,1.0,1650848858828868.0
-1.0,-5.0,-3.0,2.0,-5.0,0.0,-2.0,0.0,1650848858828868.0
-1.0,-1.0,-4.0,-8.0,-4.0,-8.0,-1.0,0.0,1650848858843790.0
-2.0,-3.0,-1.0,0.0,-6.0,-5.0,-5.0,-2.0,1650848858843790.0
1.0,-2.0,-5.0,0.0,10.0,12.0,4.0,1.0,1650848858845784.0
-1.0,5.0,1.0,-4.0,-7.0,1.0,5.0,-1.0,1650848858845784.0
1.0,-1.0,4.0,1.0,5.0,2.0,0.0,-1.0,1650848858857779.0
-1.0,-3.0,-4.0,-1.0,-2.0,-20.0,-4.0,-1.0,1650848858857779.0
3.0,-2.0,-6.0,-3.0,-6.0,2.0,0.0,3.0,1650848858866827.0
-1.0,-3.0,15.0,7.0,10.0,14.0,-3.0,-2.0,1650848858866827.0
-2.0,3.0,-5.0,-2.0,-11.0,-9.0,-1.0,-2.0,1650848858880831.0
-1.0,-2.0,-3.0,1.0,-5.0,5.0,0.0,0.0,1650848858880831.0
-1.0,-3.0,0.0,-4.0,-1.0,-11.0,-3.0,-1.0,1650848858887794.0
1.0,0.0,-1.0,-1.0,-2.0,0.0,1.0,2.0,1650848858887794.0
0.0,-4.0,5.0,0.0,5.0,7.0,2.0,0.0,1650848858904791.0
2.0,5.0,-7.0,-3.0,-5.0,3.0,1.0,-1.0,1650848858904791.0
-3.0,2.0,6.0,2.0,2.0,-10.0,-3.0,-1.0,1650848858906786.0
-2.0,2.0,4.0,1.0,-2.0,11.0,0.0,1.0,1650848858906786.0
-2.0,-2.0,-6.0,-5.0,-6.0,-8.0,-1.0,-1.0,1650848858917757.0
-2.0,-3.0,1.0,-3.0,6.0,8.0,1.0,0.0,1650848858917757.0
1.0,-1.0,-5.0,1.0,-3.0,-6.0,-1.0,-2.0,1650848858926734.0
-2.0,-1.0,-2.0,-3.0,-10.0,-30.0,-6.0,-2.0,1650848858926734.0
-1.0,-4.0,-2.0,4.0,9.0,27.0,3.0,3.0,1650848858940696.0
-2.0,-2.0,0.0,-1.0,1.0,9.0,6.0,0.0,1650848858940696.0
0.0,1.0,1.0,2.0,-3.0,-17.0,-4.0,-3.0,1650848858947745.0
0.0,3.0,0.0,0.0,9.0,23.0,11.0,2.0,1650848858947745.0
0.0,-6.0,-2.0,-1.0,-10.0,-15.0,-3.0,-3.0,1650848858964631.0
0.0,3.0,3.0,4.0,6.0,3.0,0.0,-1.0,1650848858964631.0
1.0,-5.0,-2.0,-1.0,1.0,-7.0,-1.0,-3.0,1650848858965629.0
0.0,-6.0,-8.0,-4.0,-2.0,-2.0,0.0,-2.0,1650848858965629.0
0.0,6.0,22.0,11.0,-2.0,2.0,0.0,-1.0,1650848858977598.0
0.0,3.0,-11.0,-1.0,4.0,10.0,3.0,1.0,1650848858977598.0
-1.0,-3.0,2.0,-5.0,-9.0,-16.0,-2.0,0.0,1650848858986573.0
0.0,2.0,-5.0,6.0,6.0,15.0,0.0,1.0,1650848858986573.0
-2.0,-8.0,-9.0,-8.0,0.0,2.0,1.0,-2.0,1650848859000626.0
-1.0,4.0,10.0,4.0,-4.0,-8.0,-3.0,-1.0,1650848859000626.0
1.0,-2.0,-6.0,-2.0,-3.0,-2.0,-1.0,0.0,1650848859007634.0
1.0,1.0,-1.0,1.0,3.0,-1.0,-3.0,-1.0,1650848859007634.0
0.0,2.0,1.0,0.0,1.0,3.0,0.0,-1.0,1650848859023744.0
-1.0,-6.0,-1.0,-4.0,-3.0,-2.0,1.0,-1.0,1650848859023744.0
-4.0,1.0,-2.0,-4.0,-7.0,-2.0,-1.0,0.0,1650848859031695.0
-1.0,2.0,-6.0,0.0,0.0,-2.0,-1.0,0.0,1650848859031695.0
-2.0,-5.0,-5.0,-5.0,-3.0,-15.0,-3.0,-2.0,1650848859037705.0
1.0,-2.0,-2.0,2.0,0.0,13.0,-3.0,-1.0,1650848859037705.0
2.0,4.0,3.0,-4.0,4.0,7.0,2.0,0.0,1650848859046679.0
-2.0,-5.0,3.0,-2.0,-16.0,-41.0,-8.0,-4.0,1650848859046679.0
0.0,1.0,-5.0,3.0,17.0,45.0,5.0,2.0,1650848859060618.0
1.0,-4.0,-1.0,-7.0,-12.0,-11.0,0.0,-1.0,1650848859060618.0
-1.0,-1.0,-2.0,6.0,2.0,4.0,-1.0,2.0,1650848859067628.0
-1.0,-2.0,5.0,2.0,7.0,-2.0,-2.0,-4.0,1650848859067628.0
0.0,-1.0,-7.0,-3.0,-11.0,-15.0,-5.0,-2.0,1650848859083555.0
0.0,1.0,9.0,8.0,4.0,-2.0,1.0,2.0,1650848859083555.0
0.0,2.0,-5.0,-3.0,0.0,13.0,3.0,-2.0,1650848859090536.0
0.0,-5.0,-3.0,-2.0,-7.0,-8.0,0.0,1.0,1650848859090536.0
-1.0,3.0,2.0,3.0,0.0,6.0,1.0,0.0,1650848859106521.0
-2.0,-6.0,-5.0,-5.0,-3.0,0.0,0.0,-1.0,1650848859106521.0
-1.0,-3.0,4.0,-1.0,-2.0,-5.0,-2.0,0.0,1650848859108509.0
0.0,10.0,-5.0,3.0,-4.0,-4.0,-2.0,1.0,1650848859108509.0
1.0,0.0,8.0,-1.0,9.0,2.0,-1.0,0.0,1650848859121453.0
-4.0,-7.0,-2.0,-5.0,-11.0,-14.0,-3.0,-2.0,1650848859121453.0
-1.0,2.0,8.0,6.0,11.0,22.0,0.0,2.0,1650848859127439.0
1.0,-9.0,-7.0,4.0,2.0,-10.0,-2.0,-2.0,1650848859127439.0
0.0,9.0,-1.0,0.0,6.0,21.0,7.0,1.0,1650848859143396.0
3.0,-13.0,-3.0,-1.0,-2.0,-1.0,-1.0,-1.0,1650848859143396.0
0.0,35.0,11.0,5.0,12.0,-1.0,-1.0,0.0,1650848859150405.0
-1.0,-9.0,0.0,-8.0,-7.0,-3.0,-1.0,-2.0,1650848859150405.0
-1.0,0.0,-7.0,3.0,-4.0,-25.0,-3.0,-1.0,1650848859157385.0
1.0,-11.0,-3.0,-4.0,-3.0,21.0,0.0,-1.0,1650848859157385.0
-2.0,4.0,4.0,4.0,-4.0,-13.0,-1.0,-4.0,1650848859166513.0
2.0,3.0,-1.0,4.0,10.0,14.0,3.0,-1.0,1650848859166513.0
0.0,-4.0,-3.0,-6.0,-12.0,-13.0,-3.0,0.0,1650848859181473.0
0.0,9.0,-1.0,-1.0,0.0,-2.0,-1.0,1.0,1650848859181473.0
-1.0,-17.0,-4.0,-7.0,-3.0,-7.0,-3.0,-3.0,1650848859187485.0
-2.0,0.0,3.0,-3.0,-11.0,-24.0,-5.0,-3.0,1650848859187485.0
2.0,-1.0,-1.0,9.0,5.0,39.0,8.0,5.0,1650848859203511.0
-2.0,8.0,1.0,2.0,16.0,9.0,1.0,0.0,1650848859203511.0
-1.0,-11.0,-6.0,-6.0,-3.0,-1.0,2.0,0.0,1650848859210514.0
2.0,5.0,9.0,0.0,3.0,-1.0,0.0,4.0,1650848859210514.0
-1.0,0.0,4.0,-4.0,-19.0,-32.0,-6.0,-3.0,1650848859226485.0
0.0,2.0,-5.0,-1.0,1.0,5.0,0.0,-1.0,1650848859226485.0
-1.0,-4.0,-4.0,3.0,4.0,6.0,2.0,1.0,1650848859228508.0
0.0,0.0,2.0,3.0,3.0,13.0,1.0,-1.0,1650848859228508.0
-3.0,-4.0,-7.0,-10.0,-2.0,-8.0,-1.0,-2.0,1650848859240475.0
3.0,10.0,14.0,15.0,-2.0,-8.0,0.0,1.0,1650848859240475.0
-2.0,-19.0,-16.0,3.0,7.0,-15.0,-4.0,-3.0,1650848859247498.0
2.0,23.0,4.0,-9.0,4.0,46.0,15.0,2.0,1650848859247498.0
-3.0,-13.0,2.0,3.0,5.0,-3.0,-1.0,-2.0,1650848859263948.0
0.0,7.0,-4.0,-10.0,-7.0,-9.0,-4.0,-4.0,1650848859263948.0
0.0,-4.0,6.0,5.0,-15.0,-13.0,-4.0,0.0,1650848859269933.0
1.0,-5.0,-3.0,-2.0,5.0,2.0,-2.0,0.0,1650848859269933.0
-1.0,6.0,-5.0,-2.0,-7.0,-21.0,-4.0,-2.0,1650848859301876.0
-2.0,-1.0,-8.0,-7.0,-4.0,14.0,1.0,1.0,1650848859301876.0
0.0,-1.0,5.0,3.0,11.0,8.0,3.0,1.0,1650848859304841.0
0.0,-4.0,0.0,2.0,4.0,1.0,-2.0,-1.0,1650848859304841.0
1.0,1.0,1.0,-3.0,-12.0,-5.0,-1.0,-1.0,1650848859323875.0
-3.0,-1.0,-2.0,1.0,6.0,-12.0,-5.0,0.0,1650848859323875.0
0.0,-2.0,-9.0,-10.0,-14.0,-9.0,-1.0,0.0,1650848859325870.0
0.0,-9.0,-2.0,11.0,13.0,14.0,-2.0,0.0,1650848859325870.0
2.0,3.0,1.0,1.0,12.0,3.0,8.0,1.0,1650848859354874.0
-3.0,-13.0,0.0,3.0,4.0,8.0,2.0,-3.0,1650848859354874.0
1.0,10.0,6.0,-1.0,-4.0,11.0,2.0,1.0,1650848859355871.0
0.0,-4.0,1.0,-9.0,-6.0,-30.0,-6.0,1.0,1650848859355871.0
-2.0,-8.0,-10.0,-3.0,-12.0,-4.0,-5.0,0.0,1650848859376828.0
0.0,10.0,7.0,7.0,12.0,2.0,0.0,2.0,1650848859376828.0
1.0,-3.0,1.0,0.0,-5.0,7.0,1.0,-2.0,1650848859378811.0
-3.0,-21.0,-7.0,0.0,-5.0,-2.0,0.0,2.0,1650848859378811.0
0.0,13.0,5.0,1.0,8.0,7.0,-1.0,-2.0,1650848859399781.0
-1.0,-18.0,-9.0,-8.0,-11.0,-9.0,-2.0,-2.0,1650848859399781.0
1.0,15.0,5.0,3.0,-3.0,0.0,-3.0,-1.0,1650848859401769.0
0.0,-3.0,4.0,0.0,6.0,4.0,0.0,-3.0,1650848859401769.0
1.0,-1.0,3.0,0.0,0.0,-16.0,-4.0,-2.0,1650848859420698.0
-1.0,-9.0,-4.0,3.0,2.0,8.0,4.0,0.0,1650848859420698.0
-2.0,-3.0,-3.0,1.0,7.0,17.0,-1.0,0.0,1650848859435708.0
-1.0,8.0,-7.0,-7.0,-8.0,13.0,1.0,-2.0,1650848859435708.0
-3.0,-12.0,-5.0,-1.0,-10.0,-21.0,-7.0,-4.0,1650848859442667.0
1.0,9.0,10.0,-4.0,2.0,-2.0,-2.0,-2.0,1650848859442667.0
-2.0,-3.0,-2.0,0.0,-7.0,-14.0,4.0,6.0,1650848859451622.0
0.0,22.0,-3.0,17.0,2.0,3.0,-2.0,2.0,1650848859451622.0
1.0,-4.0,2.0,-8.0,6.0,12.0,3.0,2.0,1650848859473675.0
-3.0,-6.0,-5.0,-7.0,-11.0,-7.0,-5.0,-4.0,1650848859473675.0
2.0,2.0,6.0,-6.0,-1.0,4.0,-2.0,-3.0,1650848859475643.0
-3.0,2.0,0.0,-1.0,-3.0,-18.0,-6.0,-4.0,1650848859475643.0
0.0,-2.0,-6.0,0.0,-6.0,1.0,-2.0,-1.0,1650848859504368.0
1.0,0.0,3.0,4.0,-1.0,0.0,0.0,3.0,1650848859504368.0
-1.0,3.0,-4.0,6.0,19.0,-2.0,-3.0,1.0,1650848859505339.0
-1.0,-7.0,-2.0,-5.0,-1.0,5.0,6.0,0.0,1650848859505339.0
1.0,5.0,3.0,-1.0,-4.0,17.0,3.0,-1.0,1650848859519309.0
2.0,3.0,4.0,9.0,10.0,2.0,5.0,5.0,1650848859519309.0
-3.0,-27.0,-11.0,-7.0,1.0,-9.0,-9.0,-5.0,1650848859520296.0
-1.0,15.0,6.0,1.0,-8.0,-18.0,0.0,2.0,1650848859520296.0
0.0,4.0,-5.0,-4.0,0.0,4.0,0.0,3.0,1650848859539861.0
4.0,10.0,11.0,2.0,-3.0,-1.0,1.0,1.0,1650848859539861.0
-3.0,-24.0,-15.0,-6.0,-14.0,-1.0,3.0,-1.0,1650848859551830.0
0.0,7.0,7.0,-3.0,8.0,11.0,-1.0,-10.0,1650848859551830.0
2.0,-4.0,2.0,-5.0,-5.0,-10.0,2.0,13.0,1650848859571775.0
-4.0,3.0,-2.0,1.0,-12.0,-11.0,-9.0,-11.0,1650848859571775.0
1.0,5.0,2.0,-4.0,-6.0,0.0,0.0,5.0,1650848859572773.0
7.0,-1.0,0.0,-6.0,-3.0,2.0,5.0,6.0,1650848859572773.0
-5.0,-9.0,-5.0,6.0,6.0,6.0,2.0,-4.0,1650848859601723.0
-3.0,-3.0,3.0,5.0,12.0,5.0,-5.0,-2.0,1650848859601723.0
0.0,13.0,5.0,3.0,-2.0,11.0,15.0,4.0,1650848859603690.0
-4.0,-21.0,-4.0,-7.0,-4.0,-15.0,-7.0,-4.0,1650848859603690.0
-1.0,10.0,4.0,0.0,-5.0,-2.0,3.0,1.0,1650848859616168.0
2.0,-1.0,-2.0,3.0,-1.0,-7.0,-1.0,3.0,1650848859616168.0
-3.0,-1.0,-4.0,5.0,5.0,-7.0,-3.0,-3.0,1650848859623109.0
4.0,4.0,-3.0,-6.0,-2.0,15.0,-4.0,-6.0,1650848859623109.0
-4.0,-15.0,-10.0,-3.0,-12.0,-15.0,-5.0,-4.0,1650848859647088.0
-4.0,1.0,5.0,5.0,2.0,5.0,2.0,-4.0,1650848859647088.0
0.0,17.0,9.0,3.0,16.0,9.0,-5.0,-1.0,1650848859648017.0
2.0,-6.0,0.0,-2.0,-10.0,-12.0,4.0,7.0,1650848859648017.0
0.0,-5.0,-6.0,0.0,10.0,1.0,3.0,1.0,1650848859669074.0
-2.0,-7.0,-6.0,-10.0,-15.0,1.0,-3.0,-2.0,1650848859669074.0
-3.0,10.0,7.0,-2.0,-15.0,-25.0,-2.0,-5.0,1650848859671039.0
-2.0,-4.0,-13.0,0.0,12.0,39.0,5.0,3.0,1650848859671039.0
3.0,1.0,12.0,9.0,10.0,-1.0,-6.0,-5.0,1650848859689987.0
5.0,7.0,0.0,-10.0,0.0,0.0,7.0,11.0,1650848859689987.0
2.0,-6.0,4.0,-16.0,-9.0,-3.0,-4.0,4.0,1650848859698972.0
-9.0,-13.0,-11.0,3.0,-9.0,-21.0,-15.0,-19.0,1650848859698972.0
-4.0,-11.0,-13.0,-10.0,-13.0,-4.0,1.0,0.0,1650848859721930.0
-3.0,7.0,-3.0,-1.0,0.0,-5.0,-3.0,-7.0,1650848859721930.0
1.0,2.0,4.0,12.0,23.0,24.0,-1.0,-2.0,1650848859724895.0
0.0,-2.0,4.0,-9.0,-12.0,-15.0,3.0,2.0,1650848859724895.0
3.0,7.0,8.0,-1.0,6.0,12.0,-2.0,-4.0,1650848859742846.0
-1.0,-8.0,0.0,5.0,8.0,2.0,5.0,4.0,1650848859742846.0
4.0,1.0,-8.0,2.0,-5.0,-1.0,8.0,6.0,1650848859751844.0
-2.0,-2.0,5.0,-4.0,-1.0,-1.0,-3.0,1.0,1650848859751844.0
-5.0,3.0,-2.0,3.0,-2.0,-15.0,-7.0,-6.0,1650848859773894.0
-5.0,-2.0,-8.0,-7.0,1.0,6.0,-5.0,0.0,1650848859773894.0
6.0,5.0,3.0,3.0,-8.0,17.0,4.0,-7.0,1650848859775861.0
0.0,-6.0,-5.0,6.0,18.0,-1.0,5.0,-6.0,1650848859775861.0
5.0,4.0,7.0,-7.0,-6.0,-1.0,8.0,20.0,1650848859781844.0
1.0,5.0,9.0,1.0,-3.0,-15.0,-5.0,-14.0,1650848859781844.0
-4.0,-14.0,-19.0,3.0,-2.0,-3.0,5.0,12.0,1650848859782842.0
-1.0,5.0,11.0,-3.0,-6.0,-5.0,-9.0,0.0,1650848859782842.0
-3.0,-1.0,-5.0,1.0,-3.0,-4.0,-7.0,-14.0,1650848859803813.0
-1.0,-1.0,6.0,5.0,12.0,7.0,-4.0,-1.0,1650848859803813.0
-2.0,12.0,-1.0,-7.0,-8.0,-5.0,-9.0,-15.0,1650848859809798.0
7.0,12.0,8.0,11.0,4.0,-4.0,16.0,19.0,1650848859809798.0
-7.0,-19.0,-13.0,-4.0,7.0,19.0,4.0,-3.0,1650848859825749.0
1.0,11.0,7.0,-1.0,5.0,7.0,-4.0,1.0,1650848859825749.0
-1.0,-20.0,-4.0,-4.0,-9.0,-4.0,2.0,-8.0,1650848859834751.0
-2.0,-13.0,-7.0,-2.0,-5.0,-14.0,-4.0,9.0,1650848859834751.0
1.0,36.0,14.0,4.0,-12.0,-18.0,-8.0,-1.0,1650848859856645.0
7.0,7.0,2.0,8.0,16.0,23.0,7.0,-2.0,1650848859856645.0
-3.0,-7.0,-4.0,-4.0,9.0,26.0,13.0,-1.0,1650848859858639.0
-6.0,-10.0,-7.0,-6.0,-7.0,-5.0,0.0,1.0,1650848859858639.0
4.0,-4.0,4.0,5.0,1.0,-2.0,-6.0,-5.0,1650848859878586.0
0.0,3.0,-7.0,-2.0,-14.0,-27.0,-9.0,-5.0,1650848859878586.0
2.0,16.0,10.0,-3.0,-4.0,-16.0,-9.0,3.0,1650848859886566.0
-5.0,-9.0,-7.0,10.0,12.0,16.0,3.0,-7.0,1650848859886566.0
-4.0,-4.0,4.0,2.0,10.0,6.0,-3.0,-6.0,1650848859909531.0
2.0,4.0,6.0,-4.0,-16.0,-16.0,0.0,6.0,1650848859909531.0
-8.0,-21.0,-14.0,-1.0,0.0,4.0,-5.0,-1.0,1650848859910500.0
4.0,3.0,5.0,0.0,2.0,2.0,0.0,-1.0,1650848859910500.0
1.0,9.0,-9.0,3.0,3.0,-3.0,2.0,2.0,1650848859931473.0
1.0,-11.0,-2.0,-7.0,2.0,8.0,-4.0,-1.0,1650848859931473.0
4.0,15.0,7.0,-2.0,-8.0,-13.0,9.0,3.0,1650848859939443.0
-1.0,-6.0,-2.0,0.0,-2.0,-3.0,-2.0,7.0,1650848859939443.0
-9.0,0.0,-5.0,2.0,-5.0,2.0,-16.0,-18.0,1650848859962375.0
7.0,1.0,-5.0,-11.0,0.0,7.0,20.0,3.0,1650848859962375.0
11.0,5.0,4.0,8.0,6.0,-15.0,4.0,19.0,1650848859964383.0
1.0,10.0,-5.0,-10.0,-9.0,6.0,-6.0,-11.0,1650848859964383.0
1.0,1.0,13.0,-3.0,3.0,14.0,5.0,4.0,1650848859984558.0
-8.0,-7.0,-18.0,3.0,-5.0,-5.0,-12.0,-12.0,1650848859984558.0
-9.0,7.0,0.0,1.0,-3.0,-9.0,-6.0,-11.0,1650848859985346.0
4.0,5.0,10.0,2.0,6.0,-7.0,3.0,4.0,1650848859985346.0
-1.0,-14.0,-9.0,-3.0,-18.0,-7.0,-4.0,0.0,1650848860005294.0
-1.0,-3.0,0.0,4.0,11.0,21.0,-1.0,-3.0,1650848860005294.0
-1.0,-8.0,-3.0,-4.0,2.0,0.0,0.0,-1.0,1650848860014307.0
1.0,3.0,1.0,-3.0,-5.0,0.0,1.0,5.0,1650848860014307.0
-1.0,-3.0,-4.0,-3.0,-1.0,-16.0,-9.0,-4.0,1650848860036282.0
-1.0,-15.0,-3.0,-5.0,-16.0,-14.0,2.0,2.0,1650848860036282.0
4.0,18.0,12.0,8.0,15.0,9.0,0.0,6.0,1650848860038246.0
-6.0,-7.0,-4.0,0.0,3.0,9.0,-3.0,-5.0,1650848860038246.0
8.0,15.0,19.0,8.0,3.0,4.0,11.0,5.0,1650848860059217.0
-6.0,-26.0,-29.0,-7.0,-5.0,-4.0,0.0,0.0,1650848860059217.0
2.0,-6.0,3.0,-3.0,0.0,1.0,-5.0,4.0,1650848860061184.0
-5.0,3.0,-5.0,-4.0,-9.0,-11.0,-6.0,-11.0,1650848860061184.0
1.0,13.0,8.0,4.0,15.0,15.0,9.0,3.0,1650848860082136.0
-3.0,0.0,2.0,-2.0,-12.0,-12.0,-2.0,3.0,1650848860082136.0
-2.0,-5.0,-3.0,-2.0,1.0,6.0,-1.0,-9.0,1650848860088111.0
-2.0,-6.0,-2.0,4.0,-5.0,-10.0,-8.0,-3.0,1650848860088111.0
3.0,-12.0,-8.0,-6.0,-5.0,-6.0,6.0,11.0,1650848860103099.0
-1.0,16.0,9.0,-2.0,16.0,21.0,6.0,-6.0,1650848860103099.0
1.0,-9.0,-9.0,0.0,-3.0,-10.0,-2.0,4.0,1650848860112049.0
5.0,15.0,4.0,-8.0,-6.0,7.0,3.0,-2.0,1650848860112049.0
-7.0,-13.0,-3.0,3.0,3.0,-11.0,-8.0,-5.0,1650848860134016.0
-3.0,0.0,-1.0,4.0,-3.0,-8.0,2.0,1.0,1650848860134016.0
-2.0,0.0,1.0,-5.0,0.0,-1.0,-4.0,-5.0,1650848860136004.0
1.0,4.0,0.0,3.0,-9.0,-3.0,1.0,-3.0,1650848860136004.0
0.0,-11.0,0.0,0.0,11.0,23.0,6.0,3.0,1650848860156955.0
0.0,2.0,-5.0,1.0,13.0,5.0,0.0,3.0,1650848860156955.0
-2.0,-3.0,0.0,-2.0,-6.0,-2.0,-5.0,-11.0,1650848860157926.0
4.0,4.0,7.0,2.0,-1.0,-8.0,4.0,12.0,1650848860157926.0
2.0,4.0,-4.0,-6.0,-9.0,-5.0,-10.0,-10.0,1650848860178869.0
-2.0,-14.0,-4.0,-2.0,-9.0,-3.0,10.0,8.0,1650848860178869.0
-4.0,-6.0,-1.0,-1.0,0.0,-3.0,-1.0,3.0,1650848860186852.0
-4.0,9.0,-5.0,1.0,-5.0,0.0,-6.0,-9.0,1650848860186852.0
-2.0,-8.0,-5.0,-8.0,0.0,4.0,1.0,1.0,1650848860209813.0
2.0,4.0,7.0,2.0,1.0,-4.0,-6.0,-3.0,1650848860209813.0
-1.0,1.0,-1.0,0.0,-4.0,0.0,0.0,-1.0,1650848860214803.0
3.0,0.0,7.0,0.0,5.0,4.0,10.0,5.0,1650848860214803.0
-2.0,-14.0,-11.0,3.0,2.0,-7.0,-1.0,-2.0,1650848860231729.0
0.0,14.0,7.0,10.0,10.0,12.0,1.0,3.0,1650848860231729.0
0.0,-4.0,-1.0,-3.0,-6.0,-5.0,-4.0,-4.0,1650848860232726.0
-1.0,-5.0,-3.0,-5.0,4.0,6.0,-7.0,-7.0,1650848860232726.0
0.0,7.0,0.0,2.0,-4.0,-12.0,5.0,5.0,1650848860253696.0
-1.0,-6.0,-2.0,-4.0,-5.0,-7.0,-4.0,3.0,1650848860253696.0
1.0,10.0,6.0,1.0,-4.0,-3.0,-2.0,0.0,1650848860260650.0
-6.0,-18.0,-6.0,-3.0,1.0,-13.0,-9.0,-5.0,1650848860260650.0
1.0,-1.0,2.0,4.0,13.0,23.0,6.0,4.0,1650848860284613.0
4.0,14.0,3.0,-5.0,-20.0,-7.0,3.0,6.0,1650848860284613.0
-3.0,-5.0,4.0,11.0,27.0,19.0,3.0,1.0,1650848860287598.0
-2.0,-2.0,-4.0,-4.0,-10.0,-13.0,-2.0,-2.0,1650848860287598.0
-4.0,0.0,-6.0,4.0,-1.0,-6.0,-2.0,-7.0,1650848860306664.0
-3.0,-11.0,2.0,-6.0,-5.0,-3.0,-3.0,-3.0,1650848860306664.0
5.0,2.0,-7.0,-6.0,-7.0,-6.0,-4.0,-1.0,1650848860308664.0
-6.0,1.0,-1.0,5.0,-2.0,-5.0,-1.0,-3.0,1650848860308664.0
11.0,20.0,10.0,7.0,13.0,9.0,11.0,15.0,1650848860327607.0
-1.0,-12.0,-4.0,-8.0,-14.0,5.0,2.0,-4.0,1650848860327607.0
-5.0,7.0,2.0,2.0,-3.0,-3.0,2.0,-2.0,1650848860336602.0
4.0,2.0,-1.0,-2.0,9.0,12.0,-2.0,1.0,1650848860336602.0
-6.0,-4.0,-4.0,-9.0,-11.0,-14.0,-7.0,-6.0,1650848860359581.0
0.0,2.0,0.0,2.0,2.0,-8.0,-3.0,-1.0,1650848860359581.0
-2.0,0.0,-5.0,-1.0,-2.0,4.0,-7.0,-5.0,1650848860360544.0
0.0,-6.0,0.0,-9.0,-6.0,-2.0,6.0,2.0,1650848860360544.0
-1.0,19.0,14.0,5.0,-8.0,-33.0,-8.0,-5.0,1650848860381518.0
0.0,-12.0,-13.0,4.0,2.0,37.0,7.0,6.0,1650848860381518.0
0.0,-1.0,6.0,1.0,6.0,9.0,6.0,1.0,1650848860383506.0
-1.0,-13.0,-8.0,-7.0,8.0,11.0,-1.0,-5.0,1650848860383506.0
0.0,-6.0,-1.0,-7.0,-7.0,-6.0,-9.0,-4.0,1650848860403425.0
-4.0,4.0,-1.0,0.0,-4.0,-18.0,-8.0,-5.0,1650848860403425.0
-5.0,3.0,-1.0,-3.0,-13.0,-19.0,-8.0,-4.0,1650848860411420.0
-1.0,0.0,-7.0,4.0,-10.0,-6.0,-2.0,-1.0,1650848860411420.0
3.0,-2.0,-1.0,0.0,18.0,34.0,10.0,7.0,1650848860434343.0
1.0,-4.0,3.0,0.0,4.0,-11.0,2.0,-4.0,1650848860434343.0
2.0,3.0,-1.0,-7.0,-3.0,4.0,1.0,3.0,1650848860435340.0
4.0,13.0,7.0,6.0,1.0,-4.0,-11.0,-7.0,1650848860435340.0
-1.0,-12.0,-6.0,0.0,-9.0,-8.0,9.0,3.0,1650848860456284.0
1.0,21.0,1.0,0.0,12.0,13.0,1.0,2.0,1650848860456284.0
1.0,-13.0,-4.0,3.0,-2.0,-3.0,-1.0,-2.0,1650848860458287.0
-4.0,8.0,0.0,-1.0,-7.0,-4.0,-3.0,-2.0,1650848860458287.0
0.0,-4.0,2.0,-4.0,-2.0,-11.0,-5.0,-4.0,1650848860478253.0
4.0,2.0,2.0,3.0,9.0,9.0,1.0,7.0,1650848860478253.0
-3.0,-4.0,-2.0,-4.0,-1.0,-6.0,-1.0,1.0,1650848860487201.0
1.0,-1.0,3.0,0.0,-5.0,7.0,6.0,2.0,1650848860487201.0
-3.0,-2.0,-6.0,-5.0,-5.0,2.0,0.0,-1.0,1650848860509171.0
-1.0,-3.0,-1.0,6.0,5.0,-8.0,-2.0,-4.0,1650848860509171.0
-1.0,4.0,2.0,-10.0,-6.0,-24.0,-12.0,-1.0,1650848860511137.0
1.0,-1.0,-1.0,11.0,-1.0,41.0,15.0,1.0,1650848860511137.0
-1.0,5.0,5.0,0.0,21.0,14.0,-12.0,-2.0,1650848860532111.0
-2.0,-8.0,-7.0,-11.0,-16.0,-26.0,9.0,-4.0,1650848860532111.0
4.0,1.0,0.0,1.0,3.0,19.0,11.0,13.0,1650848860533079.0
-3.0,13.0,1.0,-2.0,2.0,-27.0,-6.0,-1.0,1650848860533079.0
-4.0,-10.0,-9.0,0.0,-8.0,20.0,5.0,-4.0,1650848860553053.0
-2.0,8.0,4.0,-2.0,-2.0,-5.0,-13.0,-9.0,1650848860553053.0
-3.0,-18.0,-3.0,2.0,-3.0,-11.0,-3.0,-6.0,1650848860560034.0
3.0,25.0,3.0,-1.0,3.0,9.0,3.0,3.0,1650848860560034.0
0.0,-1.0,1.0,-6.0,-5.0,-4.0,-7.0,-3.0,1650848860585032.0
1.0,-4.0,-1.0,4.0,3.0,-4.0,9.0,8.0,1650848860585032.0
-1.0,0.0,1.0,-2.0,-1.0,10.0,6.0,4.0,1650848860587029.0
3.0,-10.0,-1.0,2.0,5.0,-4.0,-3.0,1.0,1650848860587029.0
-2.0,1.0,-2.0,-3.0,-6.0,-5.0,-1.0,-5.0,1650848860607002.0
1.0,3.0,2.0,0.0,-2.0,-9.0,-6.0,-3.0,1650848860607002.0
-2.0,3.0,3.0,3.0,-3.0,-4.0,1.0,-2.0,1650848860607973.0
2.0,-11.0,0.0,2.0,6.0,32.0,12.0,5.0,1650848860607973.0
2.0,-1.0,2.0,1.0,22.0,5.0,3.0,3.0,1650848860628918.0
-4.0,5.0,-2.0,-5.0,-12.0,-7.0,-4.0,-3.0,1650848860628918.0
-2.0,-12.0,-4.0,-2.0,-3.0,-20.0,-7.0,-6.0,1650848860630925.0
1.0,13.0,6.0,-2.0,1.0,8.0,-2.0,1.0,1650848860630925.0
5.0,2.0,1.0,3.0,-9.0,0.0,4.0,3.0,1650848860649927.0
-1.0,-13.0,-4.0,-6.0,-1.0,-7.0,-5.0,-2.0,1650848860649927.0
-1.0,-8.0,-7.0,4.0,1.0,7.0,-1.0,-4.0,1650848860658865.0
0.0,-1.0,1.0,2.0,5.0,1.0,3.0,2.0,1650848860658865.0
-2.0,13.0,7.0,3.0,3.0,-4.0,-11.0,-6.0,1650848860682800.0
2.0,-4.0,-1.0,-6.0,0.0,1.0,13.0,10.0,1650848860682800.0
0.0,5.0,2.0,-1.0,-7.0,-5.0,-5.0,1.0,1650848860683770.0
-1.0,-15.0,-8.0,2.0,1.0,-11.0,-1.0,1.0,1650848860683770.0
-2.0,6.0,4.0,-2.0,5.0,5.0,-2.0,-4.0,1650848860703744.0
-4.0,-3.0,-1.0,3.0,-6.0,-6.0,-7.0,-9.0,1650848860703744.0
1.0,-3.0,-5.0,0.0,1.0,8.0,1.0,-1.0,1650848860705713.0
0.0,17.0,8.0,2.0,8.0,6.0,2.0,1.0,1650848860705713.0
-1.0,0.0,-2.0,-4.0,-13.0,-27.0,-1.0,1.0,1650848860734642.0
-4.0,-13.0,-7.0,9.0,13.0,27.0,5.0,2.0,1650848860734642.0
-1.0,1.0,-1.0,-1.0,4.0,11.0,2.0,1.0,1650848860735641.0
-3.0,-9.0,-3.0,-5.0,-1.0,-11.0,-5.0,-3.0,1650848860735641.0
1.0,4.0,-1.0,4.0,-15.0,-13.0,1.0,1.0,1650848860756612.0
3.0,7.0,4.0,3.0,16.0,14.0,1.0,1.0,1650848860756612.0
-1.0,-3.0,0.0,-3.0,7.0,1.0,0.0,-2.0,1650848860758600.0
0.0,-7.0,-3.0,0.0,-9.0,-19.0,-6.0,-2.0,1650848860758600.0
-3.0,1.0,-4.0,-3.0,-15.0,7.0,3.0,2.0,1650848860779531.0
2.0,3.0,1.0,-2.0,10.0,-2.0,-4.0,-2.0,1650848860779531.0
-1.0,4.0,6.0,1.0,-2.0,4.0,2.0,-3.0,1650848860780529.0
-1.0,-5.0,-11.0,-1.0,-1.0,-9.0,-3.0,1.0,1650848860780529.0
-3.0,-12.0,-5.0,-1.0,-7.0,-11.0,0.0,1.0,1650848860801477.0
-1.0,-2.0,1.0,0.0,-6.0,1.0,1.0,-1.0,1650848860801477.0
2.0,13.0,1.0,0.0,9.0,34.0,2.0,-1.0,1650848860807477.0
0.0,-8.0,3.0,-7.0,-3.0,-13.0,-2.0,1.0,1650848860807477.0
-1.0,-2.0,0.0,2.0,4.0,-4.0,-1.0,0.0,1650848860822429.0
0.0,2.0,-3.0,3.0,-10.0,-21.0,-6.0,-2.0,1650848860822429.0
-1.0,-3.0,-1.0,2.0,5.0,4.0,1.0,1.0,1650848860832402.0
-1.0,9.0,3.0,2.0,2.0,6.0,3.0,-1.0,1650848860832402.0
0.0,-15.0,-6.0,-4.0,0.0,7.0,1.0,-2.0,1650848860854350.0
3.0,23.0,12.0,-1.0,-6.0,-4.0,-5.0,1.0,1650848860854350.0
2.0,-1.0,1.0,-2.0,-8.0,-12.0,0.0,1.0,1650848860855321.0
-4.0,-14.0,-9.0,-1.0,-6.0,-4.0,-2.0,-3.0,1650848860855321.0
0.0,8.0,-2.0,3.0,13.0,6.0,1.0,0.0,1650848860876292.0
0.0,-2.0,5.0,0.0,1.0,3.0,-1.0,-2.0,1650848860876292.0
0.0,0.0,3.0,-2.0,-8.0,-7.0,-2.0,-3.0,1650848860878259.0
-2.0,-1.0,0.0,0.0,7.0,1.0,0.0,-1.0,1650848860878259.0
1.0,-1.0,-4.0,1.0,0.0,7.0,1.0,1.0,1650848860898206.0
1.0,-5.0,-5.0,-4.0,-7.0,-1.0,-3.0,0.0,1650848860898206.0
-3.0,2.0,-4.0,-2.0,-2.0,-16.0,-3.0,-2.0,1650848860907184.0
0.0,-6.0,-1.0,3.0,-4.0,0.0,-2.0,-1.0,1650848860907184.0
2.0,3.0,4.0,3.0,4.0,27.0,4.0,2.0,1650848860928866.0
-5.0,-4.0,10.0,-2.0,-3.0,-11.0,-3.0,-5.0,1650848860928866.0
0.0,2.0,-13.0,-1.0,1.0,6.0,-2.0,0.0,1650848860930862.0
0.0,3.0,11.0,-4.0,-6.0,-11.0,-3.0,0.0,1650848860930862.0
1.0,-4.0,-14.0,-4.0,-3.0,-16.0,-3.0,0.0,1650848860935848.0
-3.0,-4.0,-10.0,-1.0,-2.0,13.0,-2.0,-3.0,1650848860935848.0
3.0,-2.0,-2.0,-2.0,-4.0,-3.0,2.0,0.0,1650848860936846.0
-1.0,-1.0,11.0,4.0,13.0,2.0,0.0,1.0,1650848860936846.0
-2.0,0.0,6.0,0.0,2.0,3.0,3.0,-1.0,1650848860943854.0
-1.0,-2.0,4.0,-3.0,-8.0,-7.0,-3.0,-2.0,1650848860943854.0
0.0,0.0,-10.0,2.0,-1.0,-4.0,-1.0,0.0,1650848860945822.0
-2.0,-4.0,-6.0,-1.0,-6.0,5.0,1.0,-3.0,1650848860945822.0
-1.0,-3.0,1.0,-1.0,-4.0,-14.0,-1.0,-1.0,1650848860950835.0
0.0,2.0,4.0,3.0,10.0,12.0,1.0,1.0,1650848860950835.0
-1.0,1.0,2.0,-6.0,5.0,10.0,3.0,-1.0,1650848860951806.0
-1.0,-7.0,-11.0,-7.0,-12.0,-19.0,-4.0,-1.0,1650848860951806.0
-3.0,8.0,10.0,12.0,4.0,9.0,0.0,-2.0,1650848860958786.0
2.0,-1.0,-4.0,-7.0,-8.0,13.0,8.0,2.0,1650848860958786.0
-3.0,-2.0,-7.0,4.0,-3.0,-5.0,-4.0,-2.0,1650848860958786.0
1.0,3.0,4.0,1.0,8.0,7.0,0.0,2.0,1650848860958786.0
0.0,-7.0,-4.0,-9.0,-9.0,-24.0,-3.0,-1.0,1650848860966792.0
-1.0,5.0,-6.0,-2.0,-10.0,0.0,-4.0,-2.0,1650848860966792.0
-1.0,-3.0,-5.0,3.0,9.0,3.0,3.0,1.0,1650848860967790.0
1.0,-7.0,-7.0,-5.0,2.0,4.0,1.0,-1.0,1650848860967790.0
0.0,2.0,6.0,1.0,7.0,10.0,1.0,-1.0,1650848860973748.0
0.0,3.0,4.0,0.0,-4.0,-8.0,0.0,1.0,1650848860973748.0
-4.0,-13.0,1.0,-1.0,-8.0,-6.0,-2.0,-1.0,1650848860973748.0
1.0,26.0,0.0,-1.0,-1.0,-9.0,-6.0,-2.0,1650848860973748.0
1.0,-5.0,-6.0,-5.0,4.0,18.0,5.0,1.0,1650848860980736.0
0.0,-4.0,3.0,3.0,1.0,-5.0,0.0,-3.0,1650848860980736.0
1.0,0.0,5.0,0.0,-1.0,0.0,-2.0,-1.0,1650848860981728.0
-3.0,-6.0,-2.0,2.0,-5.0,-28.0,-3.0,0.0,1650848860981728.0
-1.0,4.0,3.0,-1.0,6.0,40.0,7.0,3.0,1650848860988707.0
-1.0,5.0,-4.0,-3.0,2.0,-6.0,-3.0,-2.0,1650848860988707.0
-3.0,-14.0,-3.0,6.0,-1.0,-8.0,-4.0,-3.0,1650848860990701.0
-1.0,0.0,4.0,1.0,0.0,3.0,2.0,1.0,1650848860990701.0
2.0,11.0,0.0,1.0,-4.0,-2.0,-4.0,0.0,1650848860995708.0
-1.0,-6.0,-6.0,-6.0,1.0,-5.0,0.0,2.0,1650848860995708.0
-4.0,3.0,4.0,-4.0,-1.0,-2.0,-1.0,-1.0,1650848860996686.0
0.0,-4.0,-2.0,-1.0,-1.0,6.0,-1.0,-2.0,1650848860996686.0
-3.0,-6.0,-4.0,-8.0,-8.0,-23.0,-5.0,-4.0,1650848861003667.0
1.0,1.0,2.0,5.0,-8.0,-1.0,1.0,-1.0,1650848861003667.0
3.0,5.0,7.0,4.0,25.0,18.0,5.0,2.0,1650848861005662.0
-2.0,-6.0,-5.0,-4.0,-3.0,11.0,4.0,2.0,1650848861005662.0
0.0,8.0,-3.0,0.0,-4.0,-10.0,-2.0,-1.0,1650848861010676.0
0.0,-3.0,4.0,1.0,-1.0,-5.0,-3.0,0.0,1650848861010676.0
-1.0,0.0,-4.0,-3.0,-10.0,-9.0,-3.0,-1.0,1650848861011652.0
0.0,-1.0,0.0,1.0,3.0,6.0,0.0,-2.0,1650848861011652.0
-1.0,-8.0,0.0,-1.0,0.0,-10.0,-1.0,-1.0,1650848861018627.0
0.0,-1.0,-1.0,2.0,-1.0,-7.0,-2.0,1.0,1650848861018627.0
2.0,8.0,4.0,3.0,5.0,29.0,10.0,4.0,1650848861019624.0
-3.0,-12.0,-17.0,-5.0,-7.0,-4.0,-4.0,-4.0,1650848861019624.0
0.0,-10.0,1.0,5.0,4.0,-11.0,-2.0,0.0,1650848861026605.0
2.0,23.0,10.0,2.0,5.0,9.0,2.0,1.0,1650848861026605.0
-1.0,-8.0,-1.0,-3.0,-4.0,-8.0,-2.0,-3.0,1650848861028600.0
2.0,6.0,4.0,2.0,-6.0,-5.0,1.0,-1.0,1650848861028600.0
-2.0,-4.0,-8.0,-1.0,-1.0,-5.0,-2.0,-1.0,1650848861033643.0
-6.0,-15.0,-13.0,-7.0,1.0,-5.0,-8.0,-4.0,1650848861033643.0
4.0,18.0,10.0,0.0,-5.0,7.0,1.0,2.0,1650848861034639.0
0.0,-16.0,-3.0,7.0,13.0,13.0,4.0,5.0,1650848861034639.0
0.0,23.0,10.0,0.0,-4.0,-1.0,-1.0,0.0,1650848861057549.0
2.0,-8.0,7.0,4.0,12.0,1.0,2.0,-2.0,1650848861057549.0
-4.0,-2.0,-10.0,-5.0,-10.0,-12.0,-5.0,-3.0,1650848861058547.0
-2.0,-2.0,6.0,2.0,-4.0,-3.0,-2.0,-3.0,1650848861058547.0
-2.0,-3.0,-10.0,-6.0,1.0,2.0,-2.0,-2.0,1650848861059545.0
-3.0,-9.0,-8.0,-3.0,-11.0,-20.0,-5.0,-2.0,1650848861059545.0
-1.0,3.0,2.0,6.0,3.0,15.0,-5.0,1.0,1650848861064532.0
2.0,6.0,8.0,-5.0,10.0,11.0,4.0,0.0,1650848861064532.0
-3.0,-12.0,-6.0,-4.0,-14.0,-8.0,1.0,-1.0,1650848861064532.0
2.0,4.0,-1.0,2.0,13.0,10.0,0.0,1.0,1650848861064532.0
0.0,-2.0,2.0,-4.0,-8.0,-19.0,-7.0,-1.0,1650848861065529.0
-2.0,-1.0,-5.0,-2.0,-3.0,-10.0,-2.0,-3.0,1650848861065529.0
2.0,-1.0,1.0,2.0,3.0,18.0,1.0,1.0,1650848861079490.0
-2.0,1.0,-16.0,-4.0,-5.0,-1.0,1.0,-2.0,1650848861079490.0
2.0,-1.0,13.0,-4.0,-9.0,-20.0,0.0,0.0,1650848861080489.0
3.0,-2.0,-1.0,2.0,18.0,26.0,3.0,3.0,1650848861080489.0
-1.0,17.0,10.0,7.0,2.0,0.0,0.0,0.0,1650848861102497.0
-6.0,-11.0,-1.0,-7.0,-7.0,-2.0,-1.0,-3.0,1650848861102497.0
0.0,-3.0,5.0,4.0,2.0,-5.0,-2.0,-2.0,1650848861104426.0
-8.0,4.0,6.0,1.0,-10.0,-11.0,-3.0,-4.0,1650848861104426.0
2.0,-9.0,-4.0,-9.0,0.0,-4.0,-1.0,0.0,1650848861123401.0
7.0,1.0,7.0,4.0,4.0,10.0,1.0,3.0,1650848861123401.0
-3.0,3.0,7.0,0.0,4.0,1.0,2.0,0.0,1650848861131374.0
3.0,0.0,3.0,-2.0,-10.0,-11.0,-4.0,-1.0,1650848861131374.0
0.0,-6.0,-2.0,3.0,-4.0,0.0,0.0,-2.0,1650848861131374.0
9.0,4.0,1.0,5.0,14.0,13.0,2.0,1.0,1650848861131374.0
-34.0,-4.0,-6.0,3.0,-3.0,-5.0,-1.0,-6.0,1650848861139331.0
3.0,3.0,8.0,-5.0,1.0,1.0,1.0,-2.0,1650848861139331.0
-7.0,-2.0,3.0,1.0,-3.0,-6.0,-2.0,1.0,1650848861140333.0
6.0,1.0,-9.0,-1.0,-6.0,-4.0,-3.0,0.0,1650848861140333.0
8.0,-1.0,2.0,-3.0,3.0,-4.0,0.0,0.0,1650848861140333.0
-3.0,1.0,2.0,14.0,7.0,18.0,9.0,1.0,1650848861140333.0
-2.0,-2.0,-13.0,-9.0,-2.0,-4.0,-3.0,-5.0,1650848861146333.0
-6.0,-7.0,-21.0,-3.0,-5.0,1.0,1.0,-2.0,1650848861146333.0
5.0,-1.0,7.0,-2.0,-5.0,-17.0,-3.0,0.0,1650848861148307.0
-4.0,4.0,-4.0,-3.0,-2.0,11.0,0.0,2.0,1650848861148307.0
10.0,5.0,17.0,4.0,7.0,-4.0,3.0,1.0,1650848861153294.0
-4.0,-5.0,6.0,-10.0,-7.0,-8.0,-1.0,-1.0,1650848861153294.0
-2.0,3.0,-14.0,4.0,5.0,18.0,1.0,-1.0,1650848861154292.0
5.0,-3.0,6.0,3.0,-13.0,-19.0,-5.0,-1.0,1650848861154292.0
-3.0,3.0,-40.0,-5.0,4.0,4.0,1.0,-1.0,1650848861161301.0
-7.0,-5.0,17.0,3.0,-4.0,-4.0,-1.0,-3.0,1650848861161301.0
5.0,4.0,-6.0,-6.0,-3.0,-1.0,0.0,0.0,1650848861163267.0
-2.0,-3.0,-6.0,-5.0,-4.0,-7.0,-4.0,0.0,1650848861163267.0
1.0,-5.0,14.0,2.0,4.0,2.0,0.0,-1.0,1650848861168281.0
-4.0,1.0,8.0,6.0,-3.0,-4.0,-1.0,0.0,1650848861168281.0
7.0,10.0,0.0,5.0,11.0,8.0,2.0,-2.0,1650848861169251.0
1.0,-7.0,0.0,-5.0,-3.0,-6.0,3.0,2.0,1650848861169251.0
-1.0,-2.0,-11.0,-3.0,-2.0,9.0,3.0,0.0,1650848861176232.0
1.0,2.0,-5.0,-3.0,2.0,-1.0,-2.0,-1.0,1650848861176232.0
1.0,-4.0,-5.0,-6.0,-12.0,-13.0,-5.0,-1.0,1650848861177229.0
-2.0,0.0,-1.0,8.0,11.0,6.0,-2.0,-3.0,1650848861177229.0
-4.0,4.0,1.0,0.0,-4.0,-9.0,-1.0,-2.0,1650848861184238.0
0.0,0.0,24.0,12.0,9.0,15.0,-1.0,3.0,1650848861184238.0
1.0,-7.0,0.0,-7.0,-14.0,-7.0,2.0,1.0,1650848861186248.0
-4.0,8.0,-8.0,2.0,4.0,-3.0,-3.0,-2.0,1650848861186248.0
0.0,-6.0,4.0,0.0,-13.0,-10.0,-2.0,-3.0,1650848861191222.0
1.0,-1.0,8.0,-2.0,13.0,18.0,2.0,1.0,1650848861191222.0
-1.0,-5.0,-34.0,-12.0,-3.0,-5.0,1.0,-1.0,1650848861192194.0
17.0,4.0,22.0,13.0,0.0,3.0,-4.0,1.0,1650848861192194.0
-39.0,-13.0,9.0,-4.0,0.0,-6.0,-2.0,-2.0,1650848861207177.0
0.0,9.0,-15.0,-2.0,-9.0,-16.0,0.0,0.0,1650848861207177.0
6.0,-9.0,-2.0,6.0,3.0,20.0,2.0,0.0,1650848861213133.0
7.0,1.0,-13.0,-13.0,-1.0,-5.0,2.0,-3.0,1650848861213133.0
5.0,-3.0,3.0,-3.0,-3.0,0.0,0.0,5.0,1650848861228121.0
-24.0,5.0,-3.0,1.0,1.0,-3.0,0.0,-3.0,1650848861228121.0
1.0,-5.0,11.0,-6.0,-7.0,-6.0,-2.0,1.0,1650848861235142.0
-6.0,2.0,10.0,10.0,0.0,-8.0,-3.0,-3.0,1650848861235142.0
17.0,-4.0,-2.0,1.0,8.0,7.0,-1.0,-1.0,1650848861251100.0
2.0,-1.0,-2.0,-2.0,-3.0,5.0,5.0,2.0,1650848861251100.0
-3.0,1.0,5.0,-1.0,3.0,-2.0,-2.0,0.0,1650848861252038.0
-4.0,0.0,-6.0,-9.0,-6.0,-1.0,-2.0,1.0,1650848861252038.0
-2.0,-2.0,2.0,3.0,-3.0,-7.0,-4.0,0.0,1650848861266828.0
8.0,2.0,-1.0,-5.0,-6.0,-1.0,0.0,-1.0,1650848861266828.0
-5.0,-2.0,-1.0,1.0,1.0,-14.0,-4.0,-5.0,1650848861272842.0
-3.0,-5.0,-16.0,-6.0,3.0,16.0,-2.0,2.0,1650848861272842.0
5.0,4.0,0.0,2.0,4.0,11.0,4.0,1.0,1650848861302983.0
-3.0,-5.0,-5.0,-5.0,-9.0,-8.0,-1.0,-4.0,1650848861302983.0
7.0,4.0,2.0,8.0,5.0,6.0,2.0,1.0,1650848861309966.0
-4.0,-1.0,6.0,-5.0,-12.0,-29.0,-5.0,-2.0,1650848861309966.0
2.0,-1.0,-18.0,-8.0,2.0,27.0,4.0,-1.0,1650848861334531.0
3.0,-1.0,8.0,8.0,3.0,0.0,-2.0,2.0,1650848861334531.0
-9.0,-5.0,0.0,-2.0,1.0,-6.0,-5.0,-2.0,1650848861336001.0
18.0,2.0,-8.0,1.0,2.0,2.0,0.0,-1.0,1650848861336001.0
-9.0,1.0,4.0,-1.0,0.0,-5.0,-4.0,-2.0,1650848861356917.0
7.0,-1.0,6.0,2.0,-4.0,-5.0,-1.0,0.0,1650848861356917.0
-1.0,3.0,-16.0,-4.0,8.0,11.0,2.0,3.0,1650848861357915.0
1.0,-6.0,8.0,3.0,2.0,1.0,1.0,-1.0,1650848861357915.0
5.0,-1.0,-4.0,-4.0,-5.0,-6.0,0.0,0.0,1650848861378878.0
-5.0,-5.0,-4.0,0.0,-6.0,-5.0,-5.0,-4.0,1650848861378878.0
0.0,-1.0,-8.0,-3.0,-4.0,-5.0,-3.0,-1.0,1650848861385907.0
-10.0,-2.0,-5.0,-4.0,-1.0,-3.0,2.0,1.0,1650848861385907.0
3.0,-1.0,7.0,7.0,3.0,15.0,2.0,1.0,1650848861409807.0
-3.0,0.0,-7.0,-6.0,7.0,-6.0,0.0,0.0,1650848861409807.0
4.0,2.0,12.0,1.0,-4.0,9.0,2.0,0.0,1650848861410786.0
-3.0,-5.0,-1.0,0.0,2.0,1.0,2.0,3.0,1650848861410786.0
0.0,-1.0,-20.0,-11.0,-2.0,-15.0,-4.0,0.0,1650848861431926.0
1.0,2.0,20.0,9.0,-1.0,-6.0,-4.0,-2.0,1650848861431926.0
0.0,-2.0,-6.0,-4.0,-1.0,14.0,1.0,-1.0,1650848861432876.0
-6.0,1.0,-5.0,-5.0,-4.0,-5.0,2.0,0.0,1650848861432876.0
5.0,4.0,8.0,1.0,-1.0,-2.0,0.0,1.0,1650848861453725.0
1.0,3.0,-1.0,-4.0,3.0,-9.0,-3.0,0.0,1650848861453725.0
-1.0,-3.0,-10.0,1.0,1.0,17.0,8.0,3.0,1650848861460708.0
-3.0,-9.0,15.0,1.0,-4.0,3.0,-1.0,-2.0,1650848861460708.0
1.0,22.0,12.0,9.0,4.0,-3.0,1.0,-3.0,1650848861485306.0
1.0,-3.0,-17.0,-6.0,1.0,6.0,2.0,1.0,1650848861485306.0
-2.0,1.0,9.0,2.0,4.0,-7.0,-3.0,-1.0,1650848861486855.0
-1.0,-5.0,-16.0,-7.0,-3.0,3.0,-2.0,1.0,1650848861486855.0
-3.0,-5.0,6.0,1.0,-10.0,-14.0,-5.0,-2.0,1650848861506985.0
1.0,1.0,-7.0,-2.0,5.0,5.0,-2.0,-1.0,1650848861506985.0
0.0,0.0,-4.0,-2.0,1.0,8.0,5.0,0.0,1650848861507984.0
-1.0,4.0,9.0,9.0,5.0,4.0,1.0,1.0,1650848861507984.0
0.0,2.0,0.0,-3.0,3.0,-1.0,-2.0,-1.0,1650848861512970.0
-2.0,-6.0,-5.0,-1.0,-8.0,-6.0,-1.0,-2.0,1650848861512970.0
2.0,1.0,-1.0,-4.0,-4.0,-8.0,-3.0,-2.0,1650848861513966.0
-1.0,0.0,-5.0,7.0,-1.0,-1.0,-1.0,-1.0,1650848861513966.0
0.0,-4.0,5.0,3.0,-2.0,-3.0,-2.0,-2.0,1650848861520975.0
2.0,-5.0,-6.0,-8.0,1.0,7.0,2.0,0.0,1650848861520975.0
-2.0,1.0,6.0,0.0,-6.0,-15.0,-3.0,-1.0,1650848861521946.0
-4.0,5.0,-3.0,0.0,-3.0,7.0,0.0,-1.0,1650848861521946.0
1.0,-3.0,1.0,1.0,2.0,5.0,2.0,1.0,1650848861528926.0
0.0,2.0,-3.0,0.0,4.0,-3.0,2.0,0.0,1650848861528926.0
-1.0,1.0,2.0,1.0,1.0,-1.0,6.0,2.0,1650848861530922.0
-2.0,0.0,3.0,-6.0,5.0,11.0,1.0,-2.0,1650848861530922.0
0.0,-6.0,-14.0,-3.0,0.0,-3.0,-2.0,-3.0,1650848861535939.0
-2.0,1.0,8.0,9.0,1.0,2.0,-1.0,0.0,1650848861535939.0
-1.0,5.0,3.0,0.0,-3.0,-10.0,-3.0,0.0,1650848861536906.0
-1.0,-6.0,-5.0,-5.0,-5.0,-4.0,-1.0,1.0,1650848861536906.0
0.0,3.0,-6.0,-1.0,-2.0,4.0,0.0,1.0,1650848861550868.0
1.0,-1.0,4.0,0.0,0.0,0.0,0.0,0.0,1650848861550868.0
-1.0,-2.0,-9.0,-11.0,-1.0,5.0,-3.0,-3.0,1650848861551865.0
-3.0,0.0,-7.0,1.0,-2.0,-4.0,0.0,0.0,1650848861551865.0
0.0,-1.0,12.0,9.0,4.0,5.0,2.0,2.0,1650848861566802.0
-4.0,0.0,1.0,-1.0,-6.0,-3.0,-1.0,-3.0,1650848861566802.0
0.0,-4.0,6.0,0.0,-7.0,-25.0,-5.0,-2.0,1650848861572813.0
1.0,2.0,-3.0,2.0,3.0,26.0,-3.0,-2.0,1650848861572813.0
0.0,-9.0,-8.0,-6.0,1.0,-22.0,3.0,0.0,1650848861587867.0
2.0,-1.0,1.0,1.0,-3.0,15.0,1.0,0.0,1650848861587867.0
-1.0,-2.0,12.0,8.0,1.0,2.0,0.0,-1.0,1650848861594876.0
-1.0,4.0,-7.0,-9.0,-8.0,-17.0,-5.0,1.0,1650848861594876.0
1.0,-8.0,2.0,5.0,1.0,3.0,-1.0,-1.0,1650848861611831.0
-2.0,1.0,1.0,-3.0,-1.0,-1.0,-2.0,-3.0,1650848861611831.0
0.0,-2.0,-7.0,-1.0,-3.0,-13.0,-3.0,-1.0,1650848861612810.0
-2.0,-1.0,-6.0,-4.0,-6.0,2.0,0.0,-1.0,1650848861612810.0
0.0,1.0,10.0,-7.0,-1.0,7.0,-2.0,-1.0,1650848861626764.0
2.0,-5.0,-5.0,-2.0,8.0,-1.0,3.0,1.0,1650848861626764.0
1.0,8.0,-4.0,4.0,-3.0,7.0,0.0,2.0,1650848861632822.0
0.0,-2.0,13.0,-1.0,2.0,-8.0,0.0,-1.0,1650848861632822.0
-1.0,0.0,-5.0,1.0,-1.0,-2.0,0.0,0.0,1650848861647781.0
-2.0,0.0,-10.0,1.0,1.0,-5.0,-5.0,0.0,1650848861647781.0
-1.0,-4.0,5.0,-2.0,-7.0,-1.0,0.0,-1.0,1650848861654791.0
0.0,-1.0,-4.0,5.0,10.0,-1.0,0.0,-1.0,1650848861654791.0
4.0,8.0,7.0,8.0,15.0,35.0,13.0,5.0,1650848861670720.0
-2.0,-6.0,-4.0,-6.0,-14.0,-9.0,-1.0,-3.0,1650848861670720.0
1.0,-1.0,0.0,-1.0,7.0,2.0,-1.0,-1.0,1650848861671717.0
-1.0,-2.0,-5.0,-2.0,-6.0,-22.0,-5.0,-2.0,1650848861671717.0
-2.0,-3.0,-1.0,-1.0,-7.0,-7.0,-6.0,-2.0,1650848861686687.0
-1.0,4.0,-1.0,-5.0,-1.0,1.0,-2.0,-1.0,1650848861686687.0
-1.0,-1.0,-2.0,4.0,0.0,5.0,1.0,0.0,1650848861692688.0
-1.0,-1.0,5.0,2.0,6.0,1.0,-1.0,-3.0,1650848861692688.0
0.0,-4.0,-4.0,-4.0,-5.0,6.0,0.0,-1.0,1650848861707621.0
2.0,0.0,-2.0,-4.0,2.0,5.0,3.0,1.0,1650848861707621.0
-1.0,-4.0,6.0,-2.0,1.0,-3.0,-4.0,-1.0,1650848861715599.0
-2.0,4.0,-6.0,2.0,-4.0,-6.0,-1.0,-3.0,1650848861715599.0
-1.0,-1.0,8.0,5.0,-2.0,-3.0,-3.0,-2.0,1650848861730559.0
-1.0,0.0,-10.0,-4.0,-16.0,-15.0,-3.0,0.0,1650848861730559.0
1.0,-2.0,-4.0,-3.0,16.0,10.0,0.0,1.0,1650848861738070.0
1.0,-1.0,0.0,2.0,7.0,36.0,8.0,0.0,1650848861738070.0
0.0,3.0,3.0,-3.0,-1.0,-11.0,-2.0,-3.0,1650848861747026.0
0.0,-2.0,-10.0,1.0,-2.0,-6.0,-2.0,-1.0,1650848861747026.0
1.0,-2.0,7.0,-4.0,-6.0,-8.0,-1.0,-2.0,1650848861753010.0
-2.0,1.0,1.0,6.0,-8.0,-6.0,0.0,0.0,1650848861753010.0
-1.0,3.0,4.0,4.0,7.0,-5.0,-1.0,0.0,1650848861767969.0
-1.0,-4.0,2.0,1.0,7.0,13.0,1.0,1.0,1650848861767969.0
-1.0,-1.0,-7.0,-3.0,-2.0,-1.0,0.0,-2.0,1650848861774953.0
-1.0,-3.0,-3.0,-6.0,-4.0,-5.0,-2.0,1.0,1650848861774953.0
0.0,1.0,-19.0,-7.0,-10.0,-5.0,-2.0,-1.0,1650848861790826.0
0.0,3.0,25.0,11.0,10.0,9.0,2.0,-2.0,1650848861790826.0
0.0,-2.0,-1.0,7.0,3.0,5.0,1.0,-1.0,1650848861791821.0
1.0,-2.0,5.0,0.0,-13.0,-17.0,-1.0,-1.0,1650848861791821.0
-2.0,-6.0,-14.0,-8.0,2.0,10.0,0.0,-1.0,1650848861806781.0
-1.0,0.0,-2.0,-1.0,7.0,11.0,1.0,1.0,1650848861806781.0
0.0,3.0,-1.0,-3.0,1.0,-1.0,-1.0,0.0,1650848861812769.0
0.0,-2.0,2.0,-4.0,-2.0,-4.0,-1.0,-1.0,1650848861812769.0
-2.0,-1.0,5.0,5.0,-7.0,-16.0,-3.0,-1.0,1650848861827744.0
-1.0,0.0,-5.0,-3.0,-1.0,-5.0,0.0,1.0,1650848861827744.0
-3.0,-3.0,2.0,2.0,-2.0,-6.0,0.0,-1.0,1650848861834725.0
0.0,1.0,0.0,-2.0,4.0,16.0,0.0,0.0,1650848861834725.0
1.0,2.0,4.0,7.0,-3.0,4.0,1.0,-1.0,1650848861850717.0
0.0,-2.0,-4.0,-1.0,4.0,4.0,2.0,-1.0,1650848861850717.0
-2.0,-2.0,-6.0,-3.0,11.0,5.0,0.0,0.0,1650848861857697.0
1.0,4.0,-4.0,-6.0,-5.0,-15.0,-5.0,-2.0,1650848861857697.0
0.0,-2.0,3.0,4.0,-15.0,-9.0,-4.0,0.0,1650848861866690.0
3.0,3.0,4.0,1.0,11.0,7.0,1.0,3.0,1650848861866690.0
-1.0,-2.0,-4.0,-2.0,-3.0,-1.0,1.0,0.0,1650848861872673.0
-1.0,-3.0,-9.0,2.0,0.0,-3.0,0.0,-1.0,1650848861872673.0
0.0,-2.0,3.0,-6.0,-3.0,-11.0,-3.0,-4.0,1650848861887907.0
0.0,-3.0,-4.0,-1.0,-8.0,1.0,-2.0,-1.0,1650848861887907.0
0.0,1.0,4.0,1.0,8.0,12.0,3.0,-1.0,1650848861895703.0
-1.0,0.0,2.0,-3.0,-1.0,-10.0,1.0,0.0,1650848861895703.0
0.0,-2.0,-6.0,2.0,8.0,22.0,7.0,1.0,1650848861910733.0
0.0,5.0,11.0,2.0,-10.0,-16.0,-4.0,0.0,1650848861910733.0
1.0,-2.0,-10.0,-2.0,1.0,-1.0,-1.0,0.0,1650848861917717.0
0.0,-4.0,5.0,3.0,6.0,5.0,2.0,0.0,1650848861917717.0
-3.0,-1.0,1.0,-4.0,-1.0,-14.0,-4.0,-3.0,1650848861926828.0
-3.0,-4.0,-8.0,-2.0,-4.0,-6.0,-4.0,-2.0,1650848861926828.0
-3.0,-2.0,-8.0,-6.0,-9.0,-7.0,-1.0,-1.0,1650848861932881.0
2.0,-1.0,15.0,1.0,-3.0,22.0,2.0,0.0,1650848861932881.0
-1.0,3.0,-6.0,10.0,20.0,-4.0,1.0,1.0,1650848861947842.0
-1.0,2.0,-4.0,-4.0,-7.0,-6.0,-4.0,-3.0,1650848861947842.0
0.0,-3.0,3.0,1.0,-1.0,14.0,1.0,-1.0,1650848861954937.0
-1.0,-3.0,-12.0,-8.0,-5.0,-16.0,-2.0,-1.0,1650848861954937.0
-2.0,-4.0,-4.0,-1.0,-3.0,-2.0,-3.0,1.0,1650848861970610.0
-1.0,-2.0,6.0,-1.0,-6.0,-7.0,-1.0,2.0,1650848861970610.0
0.0,1.0,-4.0,5.0,8.0,-1.0,-1.0,-2.0,1650848861977663.0
-2.0,1.0,4.0,0.0,-9.0,4.0,3.0,-1.0,1650848861977663.0
0.0,-2.0,11.0,1.0,8.0,2.0,-1.0,-2.0,1650848861986568.0
-1.0,-3.0,-12.0,0.0,1.0,-7.0,-3.0,-1.0,1650848861986568.0
0.0,-1.0,4.0,0.0,-6.0,-1.0,2.0,1.0,1650848862000598.0
-2.0,1.0,-5.0,-2.0,6.0,2.0,-3.0,1.0,1650848862000598.0
0.0,-1.0,0.0,0.0,-7.0,-4.0,-1.0,-1.0,1650848862007580.0
0.0,-4.0,-1.0,1.0,0.0,-6.0,-3.0,-1.0,1650848862007580.0
1.0,9.0,4.0,-1.0,-5.0,4.0,0.0,-1.0,1650848862015684.0
0.0,1.0,1.0,-1.0,6.0,3.0,1.0,0.0,1650848862015684.0
-1.0,-1.0,2.0,-2.0,2.0,-4.0,-2.0,-1.0,1650848862030772.0
0.0,-1.0,-4.0,-1.0,-8.0,-7.0,1.0,-1.0,1650848862030772.0
0.0,3.0,6.0,1.0,6.0,15.0,0.0,2.0,1650848862037793.0
0.0,1.0,-3.0,3.0,4.0,-5.0,-2.0,-3.0,1650848862037793.0
-3.0,-1.0,-5.0,-2.0,-1.0,14.0,-2.0,0.0,1650848862053880.0
0.0,-2.0,6.0,1.0,-7.0,2.0,0.0,-1.0,1650848862053880.0
-1.0,2.0,-2.0,-2.0,7.0,-3.0,1.0,-2.0,1650848862053880.0
-2.0,-2.0,-8.0,1.0,-3.0,-8.0,-1.0,-1.0,1650848862053880.0
0.0,-2.0,-6.0,-5.0,-2.0,-2.0,-1.0,0.0,1650848862067715.0
-2.0,-1.0,8.0,-3.0,-1.0,-2.0,-1.0,-1.0,1650848862067715.0
-3.0,-5.0,-1.0,0.0,-14.0,-10.0,0.0,-1.0,1650848862075762.0
0.0,-1.0,7.0,5.0,12.0,9.0,0.0,3.0,1650848862075762.0
2.0,-1.0,-4.0,-5.0,-12.0,-6.0,-1.0,-1.0,1650848862090804.0
-2.0,-5.0,-4.0,-2.0,15.0,13.0,3.0,0.0,1650848862090804.0
2.0,7.0,-7.0,1.0,-1.0,-1.0,-1.0,2.0,1650848862097834.0
-1.0,-14.0,5.0,-6.0,-13.0,-13.0,-2.0,-1.0,1650848862097834.0
0.0,27.0,-2.0,4.0,5.0,11.0,0.0,1.0,1650848862113781.0
1.0,-14.0,-1.0,4.0,10.0,-1.0,2.0,1.0,1650848862113781.0
-1.0,0.0,2.0,3.0,1.0,-12.0,-6.0,0.0,1650848862113781.0
0.0,-5.0,3.0,-5.0,6.0,30.0,7.0,1.0,1650848862113781.0
-2.0,2.0,-1.0,-3.0,-8.0,-15.0,-5.0,-1.0,1650848862127941.0
0.0,7.0,-5.0,-4.0,5.0,14.0,2.0,0.0,1650848862127941.0
0.0,-10.0,-1.0,-3.0,-14.0,-34.0,-5.0,-3.0,1650848862134920.0
2.0,1.0,-5.0,0.0,-2.0,18.0,3.0,0.0,1650848862134920.0
0.0,-9.0,8.0,-1.0,7.0,4.0,1.0,-1.0,1650848862158933.0
-1.0,8.0,-4.0,0.0,-3.0,-2.0,-3.0,-2.0,1650848862158933.0
-1.0,-12.0,-3.0,-3.0,-6.0,2.0,-1.0,-1.0,1650848862158933.0
-1.0,18.0,7.0,4.0,1.0,-9.0,-2.0,-1.0,1650848862158933.0
-2.0,-7.0,-1.0,2.0,-3.0,3.0,-1.0,-1.0,1650848862173939.0
-1.0,-2.0,-7.0,-3.0,-2.0,-3.0,0.0,-2.0,1650848862173939.0
0.0,3.0,5.0,-7.0,-4.0,-6.0,-3.0,0.0,1650848862173939.0
-3.0,-5.0,-10.0,-3.0,-13.0,4.0,-3.0,-1.0,1650848862173939.0
1.0,-1.0,6.0,2.0,13.0,-1.0,4.0,2.0,1650848862188054.0
-2.0,-7.0,-1.0,-7.0,-2.0,-4.0,1.0,-2.0,1650848862188054.0
2.0,8.0,3.0,8.0,9.0,22.0,5.0,0.0,1650848862194969.0
-1.0,-1.0,-2.0,-4.0,6.0,-8.0,0.0,-1.0,1650848862194969.0
-1.0,-9.0,-3.0,-3.0,-14.0,-15.0,-5.0,-3.0,1650848862210644.0
1.0,-1.0,3.0,5.0,-5.0,-10.0,-5.0,-2.0,1650848862210644.0
3.0,17.0,0.0,3.0,0.0,17.0,0.0,3.0,1650848862217597.0
1.0,-8.0,-1.0,-7.0,14.0,-1.0,3.0,1.0,1650848862217597.0
-3.0,18.0,15.0,5.0,-6.0,-4.0,-1.0,-2.0,1650848862233719.0
0.0,-6.0,-8.0,-5.0,-4.0,-1.0,-1.0,-3.0,1650848862233719.0
-4.0,-3.0,3.0,-2.0,-4.0,-7.0,-4.0,-5.0,1650848862233719.0
-4.0,-7.0,-15.0,-5.0,-8.0,-9.0,-6.0,-1.0,1650848862233719.0
-2.0,-12.0,-7.0,-3.0,1.0,8.0,4.0,-3.0,1650848862247708.0
0.0,7.0,3.0,-4.0,-5.0,-11.0,4.0,8.0,1650848862247708.0
0.0,1.0,-2.0,5.0,3.0,18.0,1.0,0.0,1650848862255733.0
3.0,2.0,8.0,10.0,11.0,2.0,2.0,1.0,1650848862255733.0
0.0,-4.0,-4.0,-2.0,5.0,4.0,-1.0,-2.0,1650848862270691.0
-2.0,2.0,-1.0,-2.0,-2.0,-1.0,-5.0,-4.0,1650848862270691.0
-1.0,-10.0,-5.0,-4.0,-3.0,-13.0,-2.0,0.0,1650848862277629.0
-1.0,5.0,6.0,2.0,1.0,6.0,0.0,-1.0,1650848862277629.0
1.0,-6.0,0.0,1.0,-8.0,-5.0,1.0,1.0,1650848862293764.0
0.0,3.0,4.0,3.0,1.0,-7.0,-3.0,-1.0,1650848862293764.0
0.0,-4.0,1.0,3.0,-2.0,19.0,10.0,4.0,1650848862293764.0
-3.0,4.0,0.0,2.0,7.0,-8.0,-2.0,-2.0,1650848862293764.0
1.0,5.0,6.0,-4.0,-4.0,0.0,-2.0,1.0,1650848862307899.0
-1.0,1.0,-1.0,-1.0,-4.0,-3.0,-1.0,-1.0,1650848862307899.0
-3.0,-10.0,-4.0,-7.0,-3.0,-8.0,-3.0,-1.0,1650848862314880.0
-1.0,-13.0,-10.0,5.0,-13.0,-6.0,-1.0,-4.0,1650848862314880.0
3.0,31.0,8.0,-1.0,6.0,13.0,2.0,3.0,1650848862329871.0
-2.0,-9.0,2.0,2.0,7.0,5.0,0.0,-1.0,1650848862329871.0
-1.0,-1.0,-2.0,-6.0,2.0,-1.0,0.0,-2.0,1650848862337891.0
-2.0,-9.0,-4.0,-4.0,-9.0,-22.0,-6.0,-1.0,1650848862337891.0
-3.0,-12.0,-11.0,0.0,-3.0,9.0,-3.0,-2.0,1650848862353843.0
4.0,26.0,8.0,0.0,-5.0,0.0,4.0,1.0,1650848862353843.0
-4.0,-21.0,0.0,1.0,8.0,-13.0,-4.0,-3.0,1650848862353843.0
3.0,11.0,8.0,3.0,5.0,20.0,1.0,2.0,1650848862353843.0
