EMG_s0,EMG_s1,EMG_s2,EMG_s3,EMG_s4,EMG_s5,EMG_s6,EMG_s7,timestamp
9.0,-3.0,-4.0,-19.0,-9.0,2.0,3.0,-1.0,1650819928646947.0
-10.0,-1.0,3.0,14.0,8.0,9.0,2.0,0.0,1650819928646947.0
-3.0,1.0,7.0,20.0,10.0,1.0,-3.0,1.0,1650819928648902.0
2.0,-3.0,-4.0,-18.0,-6.0,-3.0,-1.0,-1.0,1650819928648902.0
5.0,1.0,-3.0,1.0,-3.0,-4.0,0.0,-1.0,1650819928649872.0
-1.0,4.0,7.0,15.0,-2.0,-6.0,-3.0,-1.0,1650819928649872.0
3.0,-2.0,-9.0,-19.0,-5.0,0.0,2.0,0.0,1650819928650878.0
1.0,-3.0,-3.0,-3.0,8.0,8.0,1.0,0.0,1650819928650878.0
-7.0,2.0,7.0,17.0,2.0,2.0,-3.0,-1.0,1650819928652867.0
1.0,0.0,-3.0,-12.0,-7.0,-6.0,-3.0,-1.0,1650819928652867.0
2.0,-2.0,-3.0,-14.0,-9.0,-5.0,-1.0,0.0,1650819928667825.0
-2.0,3.0,3.0,7.0,2.0,6.0,1.0,2.0,1650819928667825.0
-6.0,1.0,-3.0,4.0,4.0,2.0,-2.0,0.0,1650819928674898.0
4.0,-2.0,-1.0,-11.0,-5.0,2.0,1.0,0.0,1650819928674898.0
-2.0,-2.0,3.0,2.0,4.0,0.0,2.0,-1.0,1650819928681910.0
-1.0,1.0,3.0,10.0,3.0,-3.0,-1.0,-1.0,1650819928681910.0
-1.0,-3.0,-1.0,-9.0,-6.0,-3.0,-2.0,-1.0,1650819928697874.0
2.0,1.0,-3.0,-8.0,-9.0,-6.0,-2.0,-1.0,1650819928697874.0
-3.0,0.0,-1.0,7.0,2.0,3.0,0.0,0.0,1650819928711876.0
6.0,1.0,0.0,-2.0,4.0,3.0,1.0,0.0,1650819928711876.0
-11.0,-3.0,0.0,-7.0,0.0,-1.0,0.0,-1.0,1650819928721635.0
2.0,-3.0,-1.0,-1.0,-1.0,-1.0,-1.0,-2.0,1650819928721635.0
2.0,-2.0,-4.0,-19.0,-7.0,-4.0,-1.0,-1.0,1650819928760518.0
2.0,-1.0,-5.0,-19.0,-10.0,-4.0,1.0,-2.0,1650819928760518.0
-5.0,3.0,10.0,29.0,11.0,3.0,-1.0,1.0,1650819928760518.0
0.0,-1.0,-4.0,-1.0,-1.0,-2.0,0.0,-2.0,1650819928760518.0
3.0,-3.0,-3.0,-11.0,-6.0,-1.0,2.0,0.0,1650819928761452.0
-2.0,1.0,1.0,9.0,5.0,8.0,2.0,-1.0,1650819928761452.0
-1.0,0.0,1.0,1.0,2.0,-4.0,0.0,1.0,1650819928764446.0
2.0,-4.0,-3.0,-16.0,-5.0,2.0,0.0,1.0,1650819928764446.0
-4.0,-1.0,-1.0,7.0,2.0,-2.0,-2.0,0.0,1650819928773421.0
3.0,3.0,3.0,14.0,6.0,3.0,-1.0,0.0,1650819928773421.0
2.0,-2.0,-5.0,-18.0,-6.0,5.0,2.0,-2.0,1650819928779402.0
-4.0,-1.0,-4.0,-3.0,-7.0,-6.0,-1.0,1.0,1650819928779402.0
-2.0,0.0,6.0,17.0,4.0,-2.0,0.0,-1.0,1650819928788382.0
-2.0,0.0,-2.0,-6.0,-5.0,-4.0,-3.0,-2.0,1650819928788382.0
1.0,-5.0,-2.0,-12.0,-8.0,-6.0,-1.0,-2.0,1650819928802448.0
-4.0,1.0,1.0,6.0,3.0,-2.0,-2.0,-1.0,1650819928802448.0
-1.0,0.0,0.0,2.0,6.0,6.0,1.0,0.0,1650819928810513.0
0.0,0.0,0.0,-4.0,1.0,2.0,2.0,0.0,1650819928810513.0
0.0,2.0,-3.0,-2.0,0.0,1.0,1.0,-1.0,1650819928833304.0
-1.0,0.0,0.0,5.0,-1.0,-5.0,-2.0,-1.0,1650819928833304.0
6.0,-1.0,2.0,-3.0,0.0,-1.0,1.0,1.0,1650819928834305.0
-8.0,-4.0,1.0,0.0,-1.0,5.0,2.0,3.0,1650819928834305.0
-2.0,-1.0,-4.0,1.0,4.0,1.0,0.0,1.0,1650819928848014.0
1.0,1.0,-2.0,-3.0,-1.0,-1.0,-1.0,0.0,1650819928848014.0
0.0,2.0,-2.0,-4.0,-6.0,-9.0,-1.0,-2.0,1650819928850012.0
2.0,-1.0,0.0,3.0,1.0,0.0,-2.0,0.0,1650819928850012.0
-1.0,1.0,3.0,-1.0,3.0,9.0,1.0,1.0,1650819928870893.0
0.0,-2.0,-1.0,-2.0,-2.0,-3.0,1.0,-3.0,1650819928870893.0
-1.0,0.0,-1.0,1.0,2.0,0.0,-2.0,-1.0,1650819928871860.0
-1.0,0.0,2.0,4.0,-3.0,-6.0,0.0,-2.0,1650819928871860.0
0.0,-1.0,-3.0,-5.0,-9.0,-6.0,-1.0,0.0,1650819928892481.0
-5.0,0.0,1.0,1.0,3.0,7.0,-1.0,-2.0,1650819928892481.0
6.0,-3.0,-3.0,-2.0,-4.0,-3.0,-1.0,2.0,1650819928894476.0
2.0,0.0,-2.0,-4.0,1.0,-7.0,-4.0,-1.0,1650819928894476.0
-3.0,-1.0,2.0,2.0,1.0,1.0,1.0,0.0,1650819928907795.0
5.0,2.0,2.0,5.0,6.0,8.0,4.0,1.0,1650819928907795.0
-6.0,-1.0,0.0,1.0,-1.0,1.0,-1.0,-1.0,1650819928909816.0
0.0,-2.0,-4.0,-7.0,-4.0,-4.0,-1.0,-1.0,1650819928909816.0
1.0,2.0,-1.0,2.0,-4.0,-5.0,-4.0,-2.0,1650819928930826.0
-2.0,0.0,-1.0,-4.0,-1.0,-1.0,-1.0,1.0,1650819928930826.0
-1.0,0.0,-2.0,-1.0,2.0,6.0,0.0,0.0,1650819928931742.0
2.0,0.0,-2.0,1.0,5.0,-2.0,-2.0,0.0,1650819928931742.0
-2.0,-2.0,0.0,3.0,-8.0,-6.0,-3.0,-3.0,1650819928952890.0
4.0,-3.0,-2.0,-4.0,-2.0,-2.0,-3.0,-1.0,1650819928952890.0
-9.0,-1.0,-1.0,0.0,-3.0,0.0,1.0,-1.0,1650819928954849.0
-2.0,-1.0,-1.0,-1.0,3.0,8.0,2.0,0.0,1650819928954849.0
1.0,1.0,3.0,-1.0,4.0,3.0,1.0,1.0,1650819928967705.0
0.0,0.0,0.0,-3.0,-3.0,-7.0,-2.0,0.0,1650819928967705.0
1.0,1.0,-1.0,0.0,-5.0,-2.0,-2.0,0.0,1650819928973758.0
-2.0,-2.0,-1.0,-1.0,-5.0,-3.0,-1.0,0.0,1650819928973758.0
-2.0,-1.0,-2.0,-1.0,2.0,-2.0,0.0,0.0,1650819928990723.0
0.0,-1.0,2.0,4.0,7.0,7.0,1.0,1.0,1650819928990723.0
-3.0,-1.0,-3.0,-2.0,1.0,4.0,1.0,-1.0,1650819928991678.0
0.0,-3.0,0.0,0.0,-1.0,0.0,3.0,1.0,1650819928991678.0
0.0,-3.0,-4.0,-4.0,-4.0,-4.0,-3.0,-2.0,1650819929012877.0
-2.0,0.0,3.0,1.0,-5.0,-10.0,-3.0,-2.0,1650819929012877.0
1.0,1.0,2.0,0.0,-2.0,-3.0,-2.0,-2.0,1650819929014905.0
-2.0,1.0,3.0,4.0,3.0,8.0,0.0,0.0,1650819929014905.0
1.0,1.0,-1.0,-3.0,0.0,-1.0,-2.0,-1.0,1650819929027656.0
2.0,-1.0,-2.0,2.0,-1.0,-2.0,0.0,-1.0,1650819929027656.0
-3.0,-4.0,-4.0,-3.0,6.0,3.0,0.0,1.0,1650819929033642.0
-2.0,-1.0,4.0,5.0,-2.0,0.0,-1.0,-1.0,1650819929033642.0
6.0,2.0,1.0,-1.0,2.0,6.0,2.0,1.0,1650819929050852.0
-1.0,-1.0,-1.0,-3.0,-5.0,2.0,1.0,0.0,1650819929050852.0
0.0,1.0,-4.0,-1.0,-5.0,-4.0,-1.0,-1.0,1650819929051850.0
-1.0,0.0,-5.0,-6.0,-2.0,-9.0,-3.0,0.0,1650819929051850.0
-3.0,-2.0,-2.0,1.0,-4.0,-2.0,0.0,-2.0,1650819929072873.0
-5.0,0.0,0.0,-1.0,-1.0,2.0,0.0,-2.0,1650819929072873.0
11.0,-1.0,1.0,2.0,4.0,3.0,-1.0,-1.0,1650819929074801.0
-3.0,-1.0,-3.0,-4.0,7.0,2.0,-1.0,-3.0,1650819929074801.0
-1.0,-4.0,-2.0,0.0,-4.0,-1.0,-1.0,0.0,1650819929087680.0
-2.0,-1.0,-2.0,2.0,-5.0,-3.0,0.0,1.0,1650819929087680.0
-4.0,-1.0,4.0,0.0,1.0,1.0,0.0,-1.0,1650819929093781.0
1.0,-1.0,-1.0,0.0,1.0,0.0,0.0,0.0,1650819929093781.0
0.0,-1.0,-3.0,-2.0,2.0,-2.0,1.0,0.0,1650819929109963.0
-2.0,1.0,0.0,0.0,0.0,0.0,0.0,-1.0,1650819929109963.0
-3.0,-3.0,-2.0,-3.0,-6.0,-5.0,-1.0,-1.0,1650819929111903.0
2.0,0.0,-3.0,-5.0,-2.0,2.0,-1.0,-3.0,1650819929111903.0
-3.0,-1.0,-1.0,2.0,5.0,5.0,2.0,1.0,1650819929133296.0
3.0,-1.0,0.0,-1.0,0.0,-3.0,-1.0,0.0,1650819929133296.0
-1.0,0.0,6.0,4.0,7.0,6.0,1.0,2.0,1650819929133944.0
1.0,0.0,-2.0,-1.0,-6.0,-2.0,-2.0,-1.0,1650819929133944.0
0.0,-1.0,-1.0,-3.0,-9.0,-10.0,-4.0,-1.0,1650819929147101.0
-2.0,-1.0,-2.0,-4.0,-1.0,-3.0,-1.0,-2.0,1650819929147101.0
-1.0,2.0,-2.0,-3.0,2.0,1.0,1.0,0.0,1650819929154151.0
-3.0,-1.0,1.0,2.0,-1.0,-2.0,-1.0,-2.0,1650819929154151.0
-2.0,-1.0,-1.0,1.0,2.0,2.0,1.0,-1.0,1650819929170273.0
1.0,2.0,-2.0,-1.0,-2.0,1.0,0.0,-1.0,1650819929170273.0
2.0,2.0,1.0,3.0,-1.0,-3.0,-1.0,1.0,1650819929172228.0
-4.0,0.0,-3.0,-6.0,-2.0,1.0,2.0,1.0,1650819929172228.0
2.0,-2.0,-4.0,-2.0,-1.0,1.0,-1.0,-2.0,1650819929192485.0
-1.0,-1.0,-1.0,-2.0,0.0,-4.0,-2.0,-1.0,1650819929192485.0
-3.0,-1.0,1.0,-1.0,-4.0,-6.0,-2.0,-2.0,1650819929208296.0
1.0,-1.0,2.0,2.0,1.0,-2.0,-1.0,-1.0,1650819929208296.0
-1.0,0.0,3.0,2.0,5.0,7.0,2.0,0.0,1650819929208792.0
-2.0,-1.0,-1.0,3.0,6.0,11.0,2.0,1.0,1650819929208792.0
-1.0,-1.0,-2.0,-1.0,-4.0,0.0,1.0,-1.0,1650819929213781.0
2.0,2.0,0.0,-2.0,-6.0,-9.0,-2.0,-1.0,1650819929213781.0
-3.0,-4.0,-3.0,-1.0,-2.0,-8.0,-4.0,-1.0,1650819929230895.0
-1.0,-1.0,-4.0,-2.0,-1.0,-1.0,0.0,1.0,1650819929230895.0
2.0,-1.0,0.0,-3.0,0.0,-3.0,0.0,0.0,1650819929231879.0
3.0,0.0,2.0,4.0,5.0,1.0,1.0,1.0,1650819929231879.0
0.0,0.0,2.0,4.0,-1.0,-1.0,-1.0,-2.0,1650819929252913.0
-1.0,-2.0,-1.0,-5.0,-4.0,0.0,-1.0,1.0,1650819929252913.0
-3.0,-1.0,-4.0,-4.0,2.0,1.0,-2.0,-2.0,1650819929254847.0
11.0,-1.0,-1.0,-1.0,0.0,2.0,-1.0,2.0,1650819929254847.0
-2.0,-1.0,-2.0,-4.0,-2.0,-1.0,0.0,-2.0,1650819929267645.0
-1.0,-1.0,2.0,2.0,-3.0,-4.0,-1.0,0.0,1650819929267645.0
0.0,-3.0,-3.0,0.0,-4.0,0.0,-2.0,-1.0,1650819929274497.0
-5.0,-2.0,-1.0,-1.0,4.0,4.0,1.0,-1.0,1650819929274497.0
-1.0,1.0,1.0,1.0,-2.0,0.0,-1.0,0.0,1650819929290873.0
3.0,-1.0,-2.0,-2.0,0.0,0.0,1.0,0.0,1650819929290873.0
-3.0,0.0,1.0,0.0,5.0,0.0,-1.0,-1.0,1650819929291867.0
-2.0,1.0,-3.0,-5.0,-4.0,1.0,1.0,-2.0,1650819929291867.0
0.0,-2.0,3.0,1.0,-2.0,1.0,1.0,-1.0,1650819929313271.0
-3.0,2.0,4.0,9.0,6.0,6.0,0.0,-1.0,1650819929313271.0
5.0,-1.0,-3.0,-1.0,2.0,1.0,0.0,-3.0,1650819929314898.0
-3.0,-2.0,-2.0,-1.0,-5.0,-3.0,-1.0,-1.0,1650819929314898.0
0.0,4.0,-2.0,-5.0,-2.0,-5.0,-2.0,0.0,1650819929326932.0
-1.0,-2.0,-6.0,-11.0,-9.0,-8.0,-2.0,-2.0,1650819929326932.0
-2.0,-1.0,1.0,0.0,-2.0,-7.0,-2.0,-2.0,1650819929335855.0
3.0,0.0,1.0,2.0,2.0,3.0,0.0,-1.0,1650819929335855.0
-10.0,-2.0,-1.0,2.0,1.0,3.0,0.0,-1.0,1650819929350855.0
0.0,-1.0,2.0,0.0,6.0,1.0,-1.0,1.0,1650819929350855.0
-2.0,0.0,-3.0,-2.0,-6.0,-4.0,-2.0,0.0,1650819929351853.0
6.0,-1.0,5.0,6.0,-4.0,-2.0,-1.0,1.0,1650819929351853.0
1.0,0.0,-5.0,-6.0,-2.0,2.0,-1.0,-2.0,1650819929373359.0
-2.0,-3.0,1.0,3.0,-1.0,-3.0,-2.0,-1.0,1650819929373359.0
1.0,0.0,0.0,3.0,3.0,5.0,1.0,1.0,1650819929374359.0
-3.0,-3.0,-1.0,0.0,11.0,10.0,4.0,-1.0,1650819929374359.0
3.0,0.0,-3.0,-4.0,-4.0,-3.0,-1.0,1.0,1650819929386945.0
2.0,0.0,-1.0,-2.0,-1.0,1.0,0.0,0.0,1650819929386945.0
-1.0,1.0,2.0,1.0,-8.0,-7.0,-2.0,-1.0,1650819929402852.0
-3.0,-2.0,-5.0,-4.0,-7.0,-14.0,-4.0,-2.0,1650819929402852.0
-1.0,0.0,0.0,4.0,2.0,0.0,-1.0,1.0,1650819929410848.0
-1.0,2.0,1.0,1.0,10.0,12.0,2.0,-1.0,1650819929410848.0
0.0,-1.0,1.0,-3.0,4.0,5.0,1.0,2.0,1650819929411827.0
-3.0,0.0,0.0,-3.0,-4.0,-5.0,-2.0,-1.0,1650819929411827.0
2.0,2.0,0.0,1.0,-4.0,-8.0,0.0,0.0,1650819929432912.0
-6.0,-2.0,-5.0,-5.0,-4.0,-5.0,-1.0,2.0,1650819929432912.0
1.0,-3.0,-1.0,0.0,0.0,5.0,0.0,-1.0,1650819929434870.0
-2.0,0.0,-1.0,1.0,-4.0,0.0,-1.0,-1.0,1650819929434870.0
0.0,-4.0,-3.0,-4.0,-1.0,-6.0,-2.0,-3.0,1650819929446877.0
3.0,-3.0,0.0,1.0,-1.0,1.0,1.0,-2.0,1650819929446877.0
-3.0,-2.0,-4.0,-2.0,-1.0,-2.0,0.0,-3.0,1650819929455963.0
-4.0,-2.0,0.0,-3.0,-5.0,-5.0,-4.0,0.0,1650819929455963.0
-1.0,1.0,5.0,7.0,2.0,8.0,3.0,0.0,1650819929478057.0
11.0,0.0,-3.0,-2.0,4.0,6.0,2.0,3.0,1650819929478057.0
-2.0,2.0,2.0,4.0,3.0,5.0,0.0,0.0,1650819929479061.0
-1.0,0.0,1.0,-1.0,-4.0,-3.0,-1.0,-2.0,1650819929479061.0
-2.0,-3.0,-4.0,-6.0,-7.0,-7.0,-1.0,0.0,1650819929493358.0
-3.0,0.0,1.0,1.0,-6.0,-10.0,-3.0,-2.0,1650819929493358.0
-1.0,-3.0,-3.0,-1.0,-4.0,-2.0,0.0,-1.0,1650819929494359.0
-1.0,0.0,-1.0,-2.0,1.0,-2.0,1.0,1.0,1650819929494359.0
-1.0,2.0,3.0,2.0,12.0,13.0,2.0,0.0,1650819929506950.0
-1.0,0.0,-1.0,0.0,3.0,7.0,3.0,-1.0,1650819929506950.0
1.0,-1.0,-3.0,-5.0,-3.0,-4.0,0.0,0.0,1650819929515873.0
-2.0,-1.0,-8.0,-4.0,-3.0,-4.0,-3.0,-2.0,1650819929515873.0
-1.0,-1.0,4.0,4.0,-5.0,-7.0,-2.0,-2.0,1650819929530989.0
0.0,-3.0,0.0,-2.0,-7.0,-7.0,-3.0,-2.0,1650819929530989.0
0.0,1.0,2.0,3.0,6.0,6.0,2.0,0.0,1650819929531920.0
4.0,1.0,2.0,3.0,11.0,9.0,2.0,0.0,1650819929531920.0
0.0,-2.0,-5.0,-9.0,-1.0,-2.0,-1.0,2.0,1650819929552793.0
1.0,1.0,4.0,3.0,-9.0,-11.0,-4.0,-3.0,1650819929552793.0
0.0,-2.0,-3.0,-3.0,-7.0,-5.0,-2.0,-1.0,1650819929554814.0
-3.0,0.0,-2.0,0.0,5.0,8.0,1.0,1.0,1650819929554814.0
4.0,-1.0,2.0,3.0,8.0,8.0,3.0,2.0,1650819929566944.0
-3.0,1.0,1.0,0.0,2.0,5.0,0.0,-1.0,1650819929566944.0
-7.0,2.0,1.0,1.0,-5.0,-8.0,-2.0,-2.0,1650819929575922.0
9.0,-2.0,-3.0,-7.0,0.0,-2.0,0.0,-1.0,1650819929575922.0
0.0,-1.0,-3.0,-2.0,-9.0,-5.0,-2.0,-1.0,1650819929590895.0
-3.0,0.0,-1.0,1.0,-4.0,-5.0,-1.0,0.0,1650819929590895.0
-1.0,1.0,-3.0,-3.0,-1.0,-5.0,-1.0,-1.0,1650819929591871.0
-4.0,-1.0,3.0,2.0,-1.0,1.0,-1.0,-1.0,1650819929591871.0
-1.0,-2.0,0.0,0.0,0.0,5.0,1.0,-1.0,1650819929613334.0
0.0,-1.0,-1.0,-1.0,3.0,1.0,-2.0,0.0,1650819929613334.0
3.0,-1.0,-1.0,-2.0,2.0,0.0,-1.0,0.0,1650819929614335.0
-4.0,0.0,0.0,1.0,-5.0,-3.0,-1.0,0.0,1650819929614335.0
1.0,2.0,-2.0,0.0,-2.0,-4.0,-2.0,-1.0,1650819929626935.0
-1.0,2.0,-3.0,-6.0,-1.0,3.0,2.0,-2.0,1650819929626935.0
-1.0,-2.0,6.0,7.0,1.0,7.0,2.0,0.0,1650819929634957.0
-1.0,1.0,3.0,7.0,8.0,-1.0,0.0,0.0,1650819929634957.0
0.0,0.0,-2.0,-2.0,-3.0,-4.0,-3.0,0.0,1650819929650163.0
-1.0,-1.0,-4.0,-5.0,-4.0,-4.0,-2.0,-2.0,1650819929650163.0
0.0,0.0,-3.0,-5.0,-6.0,-5.0,-2.0,-3.0,1650819929652091.0
-3.0,-2.0,0.0,-1.0,-9.0,-6.0,-1.0,0.0,1650819929652091.0
1.0,-2.0,-3.0,-3.0,4.0,0.0,1.0,-1.0,1650819929673262.0
-1.0,1.0,4.0,5.0,10.0,5.0,0.0,0.0,1650819929673262.0
5.0,1.0,-1.0,0.0,2.0,4.0,2.0,-1.0,1650819929674193.0
-11.0,0.0,-2.0,-2.0,1.0,6.0,2.0,-1.0,1650819929674193.0
-1.0,0.0,1.0,-1.0,-2.0,-2.0,1.0,-1.0,1650819929686161.0
1.0,-1.0,-4.0,-4.0,-7.0,-6.0,-3.0,0.0,1650819929686161.0
-5.0,0.0,2.0,1.0,5.0,0.0,-3.0,0.0,1650819929695305.0
12.0,-1.0,-1.0,-3.0,-1.0,2.0,0.0,1.0,1650819929695305.0
1.0,0.0,-1.0,0.0,-2.0,-2.0,-1.0,-1.0,1650819929710811.0
-2.0,-2.0,2.0,4.0,1.0,1.0,3.0,1.0,1650819929710811.0
0.0,-1.0,-5.0,-9.0,-2.0,-1.0,-2.0,-1.0,1650819929711808.0
-2.0,-2.0,2.0,2.0,-4.0,-7.0,-2.0,-2.0,1650819929711808.0
-3.0,-1.0,-1.0,-2.0,-4.0,-1.0,-1.0,-2.0,1650819929731851.0
3.0,0.0,1.0,2.0,-1.0,-1.0,1.0,0.0,1650819929731851.0
-1.0,-1.0,-1.0,2.0,4.0,1.0,1.0,-1.0,1650819929740760.0
-1.0,0.0,-2.0,-1.0,6.0,12.0,0.0,1.0,1650819929740760.0
-1.0,1.0,1.0,-2.0,-2.0,-3.0,-2.0,0.0,1650819929754869.0
-1.0,-1.0,-1.0,-3.0,-15.0,-9.0,-4.0,-3.0,1650819929754869.0
-2.0,-2.0,-6.0,0.0,2.0,0.0,1.0,1.0,1650819929756866.0
-1.0,0.0,9.0,8.0,9.0,3.0,0.0,-1.0,1650819929756866.0
0.0,-3.0,0.0,-4.0,2.0,2.0,-1.0,0.0,1650819929778246.0
0.0,0.0,-1.0,-2.0,-1.0,-2.0,-1.0,1.0,1650819929778246.0
-1.0,0.0,-2.0,-3.0,-8.0,-8.0,-1.0,-2.0,1650819929779819.0
0.0,-1.0,-2.0,-3.0,-4.0,0.0,1.0,-1.0,1650819929779819.0
-2.0,2.0,1.0,3.0,1.0,4.0,-1.0,0.0,1650819929792757.0
-1.0,1.0,-1.0,3.0,4.0,-2.0,1.0,1.0,1650819929792757.0
1.0,1.0,-1.0,0.0,1.0,6.0,4.0,1.0,1650819929798808.0
0.0,-1.0,-4.0,-4.0,2.0,0.0,-3.0,-2.0,1650819929798808.0
-2.0,1.0,-4.0,-2.0,0.0,-5.0,-2.0,-1.0,1650819929815674.0
-1.0,-3.0,4.0,2.0,-3.0,-2.0,-2.0,-2.0,1650819929815674.0
0.0,-3.0,-1.0,-3.0,-7.0,-3.0,-3.0,-3.0,1650819929816674.0
1.0,1.0,-3.0,-1.0,1.0,0.0,1.0,0.0,1650819929816674.0
-3.0,0.0,2.0,4.0,5.0,4.0,-1.0,-1.0,1650819929837862.0
2.0,0.0,-5.0,-8.0,-1.0,-3.0,-1.0,1.0,1650819929837862.0
0.0,-1.0,3.0,3.0,-2.0,-2.0,-2.0,0.0,1650819929839867.0
3.0,0.0,1.0,4.0,-6.0,-3.0,-1.0,-1.0,1650819929839867.0
-1.0,-1.0,1.0,1.0,-1.0,-3.0,0.0,-1.0,1650819929851922.0
-3.0,0.0,-2.0,-1.0,4.0,7.0,1.0,0.0,1650819929851922.0
1.0,2.0,2.0,6.0,0.0,1.0,0.0,0.0,1650819929860844.0
-4.0,-1.0,-2.0,-5.0,-4.0,-5.0,-2.0,-1.0,1650819929860844.0
-1.0,-2.0,-3.0,-4.0,-2.0,0.0,2.0,1.0,1650819929875671.0
0.0,-1.0,0.0,2.0,1.0,2.0,-1.0,0.0,1650819929875671.0
-2.0,-2.0,-2.0,-5.0,-3.0,-8.0,-4.0,-1.0,1650819929876702.0
-2.0,-2.0,0.0,-2.0,-7.0,-7.0,-4.0,0.0,1650819929876702.0
-6.0,-2.0,2.0,5.0,2.0,7.0,1.0,-1.0,1650819929897833.0
5.0,1.0,-1.0,3.0,8.0,10.0,4.0,1.0,1650819929897833.0
1.0,2.0,2.0,0.0,7.0,6.0,4.0,4.0,1650819929899788.0
0.0,0.0,-4.0,-6.0,-5.0,-5.0,1.0,-1.0,1650819929899788.0
-2.0,0.0,-1.0,1.0,-11.0,-13.0,-4.0,-3.0,1650819929911913.0
-3.0,-2.0,-2.0,-1.0,3.0,2.0,-2.0,-3.0,1650819929911913.0
1.0,-2.0,3.0,1.0,4.0,5.0,0.0,0.0,1650819929920858.0
-3.0,0.0,-4.0,-4.0,-5.0,-7.0,-1.0,-2.0,1650819929920858.0
3.0,1.0,-2.0,-3.0,-4.0,-3.0,-1.0,0.0,1650819929935610.0
-1.0,-1.0,-3.0,-4.0,-7.0,-6.0,-1.0,-2.0,1650819929935610.0
-1.0,-1.0,1.0,1.0,-2.0,0.0,1.0,0.0,1650819929936610.0
1.0,2.0,4.0,9.0,14.0,10.0,3.0,1.0,1650819929936610.0
0.0,1.0,2.0,0.0,4.0,6.0,0.0,0.0,1650819929958019.0
-1.0,-3.0,-4.0,-3.0,-4.0,-5.0,-1.0,0.0,1650819929958019.0
-1.0,-1.0,-3.0,-2.0,-6.0,-6.0,-1.0,-2.0,1650819929959957.0
-1.0,-1.0,-1.0,-1.0,-3.0,-2.0,0.0,-1.0,1650819929959957.0
2.0,2.0,-1.0,-3.0,5.0,2.0,1.0,-1.0,1650819929971924.0
-3.0,-2.0,2.0,3.0,2.0,2.0,1.0,-1.0,1650819929971924.0
-2.0,0.0,1.0,2.0,0.0,2.0,-1.0,0.0,1650819929981049.0
4.0,-1.0,-2.0,-6.0,-8.0,-8.0,-2.0,-1.0,1650819929981049.0
-10.0,-3.0,-2.0,0.0,0.0,-1.0,0.0,-1.0,1650819929995040.0
1.0,-1.0,-1.0,0.0,2.0,5.0,-1.0,0.0,1650819929995040.0
0.0,1.0,0.0,-2.0,-4.0,-4.0,0.0,-1.0,1650819929996971.0
-5.0,-2.0,-1.0,-1.0,-6.0,-3.0,-2.0,-2.0,1650819929996971.0
10.0,-1.0,-1.0,0.0,4.0,4.0,1.0,0.0,1650819930018246.0
-2.0,1.0,1.0,0.0,0.0,0.0,1.0,-1.0,1650819930018246.0
-3.0,-2.0,1.0,0.0,0.0,-2.0,-1.0,0.0,1650819930019851.0
1.0,2.0,5.0,5.0,6.0,4.0,1.0,0.0,1650819930019851.0
0.0,-2.0,-3.0,-7.0,-5.0,-6.0,-2.0,0.0,1650819930031857.0
-1.0,0.0,-4.0,-7.0,0.0,1.0,1.0,0.0,1650819930031857.0
1.0,-1.0,3.0,6.0,-3.0,-2.0,-1.0,-1.0,1650819930040767.0
-3.0,-2.0,-3.0,-1.0,-5.0,-4.0,-1.0,0.0,1650819930040767.0
-1.0,-2.0,-2.0,-4.0,-3.0,2.0,0.0,1.0,1650819930054868.0
1.0,1.0,2.0,2.0,3.0,-1.0,0.0,0.0,1650819930054868.0
-3.0,1.0,-5.0,-1.0,2.0,9.0,0.0,0.0,1650819930056872.0
2.0,0.0,4.0,5.0,9.0,8.0,2.0,0.0,1650819930056872.0
2.0,0.0,1.0,1.0,-2.0,-6.0,-1.0,-1.0,1650819930078070.0
-1.0,0.0,-1.0,0.0,-10.0,-6.0,-3.0,-3.0,1650819930078070.0
-1.0,-3.0,-5.0,-5.0,-4.0,-10.0,-4.0,-2.0,1650819930079001.0
-2.0,-1.0,-4.0,-7.0,-6.0,-2.0,0.0,0.0,1650819930079001.0
0.0,0.0,4.0,6.0,0.0,2.0,1.0,0.0,1650819930092021.0
-2.0,-3.0,-3.0,-1.0,5.0,4.0,-1.0,0.0,1650819930092021.0
2.0,1.0,1.0,-1.0,6.0,1.0,0.0,-2.0,1650819930101066.0
-1.0,-2.0,-5.0,-6.0,1.0,1.0,0.0,0.0,1650819930101066.0
-3.0,-1.0,-3.0,1.0,-2.0,-2.0,1.0,-1.0,1650819930114871.0
-2.0,0.0,2.0,2.0,-6.0,-5.0,-2.0,-1.0,1650819930114871.0
-2.0,0.0,-5.0,-6.0,-5.0,-3.0,-2.0,-3.0,1650819930116872.0
-5.0,-2.0,0.0,0.0,0.0,-5.0,-4.0,-1.0,1650819930116872.0
4.0,0.0,-1.0,1.0,2.0,-2.0,0.0,1.0,1650819930138271.0
2.0,-1.0,0.0,-2.0,2.0,7.0,3.0,3.0,1650819930138271.0
5.0,3.0,5.0,3.0,6.0,13.0,4.0,1.0,1650819930139820.0
-5.0,0.0,-1.0,-2.0,-1.0,-1.0,-3.0,1.0,1650819930139820.0
-2.0,-1.0,-2.0,-5.0,-8.0,-9.0,-4.0,-4.0,1650819930151824.0
0.0,-1.0,-1.0,3.0,-4.0,-9.0,0.0,1.0,1650819930151824.0
1.0,-1.0,-2.0,4.0,9.0,6.0,-1.0,1.0,1650819930160735.0
4.0,1.0,0.0,-1.0,-1.0,6.0,1.0,0.0,1650819930160735.0
-2.0,-3.0,0.0,-6.0,-2.0,0.0,0.0,0.0,1650819930174883.0
0.0,-2.0,-4.0,-1.0,-2.0,-7.0,-2.0,-2.0,1650819930174883.0
-6.0,0.0,-4.0,-6.0,-11.0,-13.0,-2.0,1.0,1650819930176867.0
1.0,-2.0,-2.0,1.0,-2.0,2.0,-1.0,1.0,1650819930176867.0
-1.0,0.0,-1.0,4.0,15.0,10.0,4.0,0.0,1650819930197954.0
0.0,0.0,-1.0,1.0,2.0,2.0,0.0,-1.0,1650819930197954.0
-1.0,-1.0,3.0,2.0,-5.0,-6.0,1.0,0.0,1650819930198955.0
0.0,-2.0,-2.0,-5.0,-8.0,-8.0,0.0,0.0,1650819930198955.0
-1.0,2.0,1.0,3.0,2.0,5.0,0.0,-1.0,1650819930211977.0
-1.0,-2.0,-8.0,-6.0,-4.0,-2.0,-1.0,0.0,1650819930211977.0
0.0,-2.0,1.0,-1.0,10.0,2.0,1.0,-1.0,1650819930220895.0
1.0,0.0,1.0,4.0,1.0,4.0,-1.0,-1.0,1650819930220895.0
-3.0,0.0,-3.0,-3.0,-4.0,-4.0,-2.0,-1.0,1650819930234870.0
1.0,2.0,5.0,1.0,5.0,4.0,-1.0,0.0,1650819930234870.0
0.0,1.0,0.0,2.0,-1.0,-3.0,-1.0,-3.0,1650819930236868.0
-1.0,-2.0,-2.0,1.0,-3.0,-5.0,0.0,-2.0,1650819930236868.0
1.0,-2.0,0.0,-2.0,-4.0,-1.0,-1.0,1.0,1650819930258051.0
-3.0,-1.0,1.0,0.0,5.0,3.0,-1.0,-1.0,1650819930258051.0
0.0,1.0,0.0,1.0,-3.0,-4.0,-1.0,2.0,1650819930259010.0
-2.0,0.0,-2.0,-2.0,-1.0,4.0,1.0,0.0,1650819930259010.0
2.0,2.0,-2.0,-2.0,3.0,10.0,2.0,2.0,1650819930280867.0
1.0,1.0,3.0,2.0,-5.0,-6.0,-1.0,0.0,1650819930280867.0
2.0,-2.0,1.0,4.0,1.0,-2.0,-4.0,-2.0,1650819930281865.0
-8.0,-2.0,-1.0,-4.0,-1.0,0.0,-1.0,0.0,1650819930281865.0
2.0,-1.0,-6.0,-3.0,-3.0,-9.0,-2.0,0.0,1650819930294890.0
-1.0,-1.0,-1.0,-1.0,2.0,2.0,-1.0,-1.0,1650819930294890.0
-1.0,-4.0,-7.0,-7.0,-7.0,-3.0,-2.0,-1.0,1650819930296888.0
4.0,1.0,5.0,4.0,2.0,0.0,0.0,-2.0,1650819930296888.0
-1.0,-1.0,1.0,2.0,1.0,1.0,1.0,-2.0,1650819930318299.0
-2.0,-2.0,1.0,0.0,-1.0,-3.0,-3.0,-2.0,1650819930318299.0
-1.0,-1.0,1.0,-2.0,-1.0,7.0,2.0,1.0,1650819930319819.0
3.0,0.0,1.0,3.0,5.0,1.0,3.0,2.0,1650819930319819.0
-1.0,-1.0,-1.0,-3.0,3.0,4.0,0.0,-2.0,1650819930340873.0
3.0,0.0,-3.0,-3.0,-7.0,-5.0,-2.0,-4.0,1650819930340873.0
-2.0,1.0,-2.0,-5.0,-7.0,-5.0,-1.0,1.0,1650819930341875.0
1.0,-5.0,0.0,4.0,-1.0,-1.0,0.0,1.0,1650819930341875.0
0.0,-3.0,1.0,1.0,3.0,0.0,-1.0,0.0,1650819930354871.0
-4.0,3.0,-3.0,-5.0,2.0,4.0,2.0,0.0,1650819930354871.0
-2.0,-5.0,-5.0,-1.0,-2.0,0.0,1.0,2.0,1650819930356868.0
0.0,1.0,6.0,1.0,-2.0,-9.0,-2.0,1.0,1650819930356868.0
0.0,-2.0,-7.0,-4.0,-3.0,-2.0,-4.0,-2.0,1650819930377999.0
-3.0,-1.0,1.0,0.0,-4.0,-3.0,-3.0,-1.0,1650819930377999.0
2.0,1.0,2.0,3.0,4.0,5.0,1.0,-1.0,1650819930379026.0
0.0,0.0,-2.0,0.0,6.0,6.0,4.0,-1.0,1650819930379026.0
0.0,-2.0,4.0,6.0,-1.0,-2.0,-1.0,0.0,1650819930400157.0
-3.0,-2.0,-3.0,-2.0,-3.0,-3.0,-1.0,0.0,1650819930400157.0
1.0,-1.0,-3.0,-3.0,-1.0,-3.0,0.0,1.0,1650819930402087.0
-1.0,0.0,-5.0,-12.0,-2.0,5.0,1.0,1.0,1650819930402087.0
-4.0,0.0,8.0,13.0,1.0,-1.0,-1.0,-3.0,1650819930415227.0
-2.0,0.0,-2.0,0.0,1.0,1.0,0.0,1.0,1650819930415227.0
0.0,-2.0,-1.0,-1.0,1.0,-3.0,-2.0,-2.0,1650819930421256.0
0.0,0.0,-5.0,-4.0,-2.0,1.0,0.0,-2.0,1650819930421256.0
-2.0,-2.0,-1.0,-1.0,-3.0,-3.0,0.0,-1.0,1650819930438338.0
9.0,-1.0,2.0,3.0,-2.0,2.0,5.0,13.0,1650819930438338.0
1.0,-2.0,1.0,0.0,1.0,2.0,0.0,-3.0,1650819930439339.0
-2.0,-3.0,-4.0,-6.0,0.0,-3.0,-1.0,-6.0,1650819930439339.0
-1.0,7.0,3.0,3.0,-4.0,-3.0,0.0,-4.0,1650819930460539.0
-2.0,4.0,0.0,4.0,1.0,0.0,-18.0,-28.0,1650819930460539.0
0.0,-3.0,-1.0,4.0,3.0,5.0,8.0,7.0,1650819930461498.0
7.0,0.0,-1.0,-5.0,-3.0,1.0,24.0,41.0,1650819930461498.0
-6.0,-10.0,-3.0,-11.0,-4.0,-4.0,-10.0,-2.0,1650819930474620.0
-3.0,-17.0,-1.0,-1.0,-2.0,-8.0,1.0,-12.0,1650819930474620.0
-7.0,-2.0,-3.0,-1.0,-1.0,2.0,0.0,-12.0,1650819930481601.0
-1.0,4.0,0.0,-3.0,-5.0,-3.0,-12.0,-12.0,1650819930481601.0
3.0,-6.0,-2.0,-3.0,-4.0,-4.0,-1.0,5.0,1650819930498066.0
11.0,14.0,2.0,3.0,3.0,1.0,-3.0,5.0,1650819930498066.0
5.0,21.0,3.0,1.0,4.0,-1.0,-17.0,-13.0,1650819930499066.0
0.0,1.0,7.0,13.0,5.0,7.0,-11.0,-15.0,1650819930499066.0
-18.0,-20.0,-3.0,5.0,4.0,8.0,36.0,2.0,1650819930520873.0
-21.0,-16.0,-12.0,-12.0,-2.0,-4.0,-5.0,11.0,1650819930520873.0
12.0,-4.0,2.0,-1.0,-9.0,-3.0,7.0,9.0,1650819930521873.0
1.0,23.0,-2.0,-1.0,-2.0,-8.0,11.0,-16.0,1650819930521873.0
2.0,5.0,-2.0,-10.0,-6.0,-1.0,2.0,51.0,1650819930534892.0
-2.0,-8.0,-1.0,-8.0,-4.0,1.0,-4.0,-5.0,1650819930534892.0
2.0,-2.0,3.0,-2.0,-3.0,-8.0,-24.0,-11.0,1650819930541930.0
18.0,28.0,4.0,10.0,4.0,-3.0,-28.0,-16.0,1650819930541930.0
2.0,-13.0,3.0,10.0,6.0,-1.0,-15.0,-32.0,1650819930558398.0
-20.0,3.0,0.0,3.0,-1.0,3.0,27.0,-3.0,1650819930558398.0
-10.0,4.0,-4.0,-6.0,0.0,6.0,18.0,26.0,1650819930559399.0
-4.0,-14.0,-4.0,-4.0,-3.0,-4.0,-11.0,-21.0,1650819930559399.0
9.0,7.0,-3.0,-3.0,-3.0,-2.0,-2.0,13.0,1650819930580560.0
23.0,2.0,7.0,7.0,6.0,4.0,-26.0,-27.0,1650819930580560.0
-12.0,14.0,8.0,6.0,0.0,-1.0,3.0,4.0,1650819930582513.0
6.0,-20.0,-12.0,-10.0,-3.0,2.0,30.0,42.0,1650819930582513.0
-1.0,15.0,-3.0,-6.0,-7.0,-8.0,-12.0,-15.0,1650819930594871.0
15.0,1.0,-1.0,2.0,-3.0,-2.0,4.0,21.0,1650819930594871.0
-6.0,2.0,0.0,0.0,-1.0,0.0,-3.0,-36.0,1650819930601921.0
-5.0,-9.0,6.0,5.0,5.0,4.0,-1.0,4.0,1650819930601921.0
-1.0,-15.0,-6.0,-1.0,7.0,6.0,-4.0,-10.0,1650819930618270.0
0.0,8.0,1.0,0.0,5.0,4.0,7.0,16.0,1650819930618270.0
1.0,-17.0,-9.0,-9.0,-6.0,-7.0,10.0,12.0,1650819930619791.0
-10.0,-5.0,-2.0,0.0,-7.0,-7.0,-10.0,4.0,1650819930619791.0
9.0,14.0,2.0,1.0,-1.0,1.0,-7.0,-19.0,1650819930640974.0
-7.0,11.0,1.0,3.0,5.0,5.0,12.0,19.0,1650819930640974.0
-4.0,-31.0,-1.0,3.0,4.0,4.0,-6.0,0.0,1650819930641905.0
-6.0,-15.0,-7.0,-6.0,-5.0,-5.0,-5.0,-10.0,1650819930641905.0
7.0,22.0,4.0,-3.0,-6.0,-4.0,-2.0,2.0,1650819930654878.0
9.0,16.0,-3.0,-5.0,-6.0,-5.0,-4.0,-5.0,1650819930654878.0
-17.0,-14.0,-1.0,6.0,0.0,1.0,2.0,5.0,1650819930661919.0
-4.0,-29.0,14.0,3.0,11.0,12.0,5.0,16.0,1650819930661919.0
-2.0,2.0,0.0,0.0,2.0,0.0,-2.0,-12.0,1650819930678295.0
-3.0,-3.0,1.0,1.0,-6.0,-4.0,0.0,2.0,1650819930678295.0
16.0,15.0,0.0,-2.0,1.0,-3.0,4.0,51.0,1650819930679831.0
-8.0,9.0,1.0,-1.0,-3.0,1.0,-7.0,-75.0,1650819930679831.0
-4.0,2.0,3.0,3.0,0.0,3.0,5.0,5.0,1650819930700871.0
-2.0,-1.0,-5.0,-7.0,-5.0,-3.0,0.0,-8.0,1650819930700871.0
-1.0,0.0,-13.0,-5.0,-4.0,-2.0,-2.0,-5.0,1650819930701860.0
1.0,1.0,-1.0,5.0,2.0,-8.0,0.0,25.0,1650819930701860.0
5.0,-8.0,2.0,3.0,-2.0,0.0,2.0,2.0,1650819930714872.0
-2.0,7.0,12.0,3.0,8.0,7.0,1.0,-2.0,1650819930714872.0
-8.0,-8.0,-16.0,-10.0,1.0,3.0,-4.0,-18.0,1650819930721857.0
0.0,-15.0,10.0,-2.0,-7.0,-2.0,-1.0,17.0,1650819930721857.0
-6.0,-7.0,3.0,9.0,-2.0,-7.0,-1.0,-15.0,1650819930745086.0
11.0,-1.0,16.0,8.0,-2.0,-5.0,0.0,3.0,1650819930745086.0
1.0,8.0,10.0,0.0,4.0,7.0,-3.0,-13.0,1650819930747042.0
-1.0,1.0,-24.0,-10.0,3.0,3.0,0.0,3.0,1650819930747042.0
-1.0,-4.0,-3.0,-3.0,-2.0,5.0,5.0,40.0,1650819930760811.0
-1.0,-2.0,2.0,-1.0,8.0,7.0,4.0,-2.0,1650819930760811.0
-4.0,4.0,9.0,5.0,-4.0,-5.0,-7.0,-53.0,1650819930761773.0
5.0,0.0,-11.0,-13.0,-10.0,-10.0,-5.0,10.0,1650819930761773.0
0.0,3.0,-2.0,-1.0,-2.0,-6.0,-3.0,11.0,1650819930773811.0
-7.0,-7.0,-4.0,2.0,-6.0,-5.0,-4.0,-2.0,1650819930773811.0
0.0,-2.0,3.0,-3.0,3.0,-1.0,0.0,4.0,1650819930790847.0
-2.0,3.0,5.0,7.0,6.0,7.0,7.0,20.0,1650819930790847.0
4.0,-2.0,1.0,0.0,6.0,7.0,1.0,-7.0,1650819930798270.0
7.0,0.0,-2.0,2.0,-2.0,-1.0,4.0,38.0,1650819930798270.0
2.0,2.0,-9.0,-10.0,-10.0,-8.0,-3.0,-49.0,1650819930799817.0
-12.0,4.0,4.0,5.0,-8.0,-7.0,-3.0,-1.0,1650819930799817.0
-13.0,-11.0,3.0,6.0,5.0,1.0,-2.0,-3.0,1650819930820894.0
-2.0,-2.0,-10.0,-11.0,1.0,5.0,0.0,-7.0,1650819930820894.0
18.0,16.0,8.0,16.0,13.0,15.0,7.0,41.0,1650819930821857.0
8.0,-5.0,-2.0,2.0,13.0,6.0,6.0,5.0,1650819930821857.0
-12.0,-5.0,-15.0,-12.0,-10.0,-7.0,-9.0,-67.0,1650819930833908.0
-8.0,-8.0,0.0,-5.0,-16.0,-14.0,-8.0,-16.0,1650819930833908.0
10.0,11.0,-36.0,-16.0,-15.0,-15.0,-5.0,21.0,1650819930842889.0
-3.0,9.0,11.0,7.0,0.0,-5.0,-3.0,-7.0,1650819930842889.0
8.0,-5.0,-10.0,-3.0,6.0,8.0,7.0,30.0,1650819930857995.0
-1.0,0.0,9.0,8.0,8.0,5.0,1.0,21.0,1650819930857995.0
-7.0,-10.0,19.0,15.0,7.0,8.0,0.0,-46.0,1650819930859023.0
25.0,11.0,2.0,-3.0,2.0,3.0,0.0,9.0,1650819930859023.0
-32.0,-3.0,-8.0,-7.0,-6.0,-2.0,1.0,5.0,1650819930880874.0
-17.0,-9.0,-25.0,-17.0,-9.0,-7.0,-5.0,-14.0,1650819930880874.0
-2.0,-4.0,7.0,2.0,-6.0,-6.0,-4.0,28.0,1650819930881853.0
5.0,1.0,-2.0,3.0,-6.0,-8.0,-4.0,-8.0,1650819930881853.0
11.0,5.0,16.0,5.0,8.0,5.0,4.0,16.0,1650819930893941.0
-1.0,-4.0,2.0,3.0,6.0,9.0,0.0,-28.0,1650819930893941.0
-1.0,-4.0,-13.0,-11.0,6.0,4.0,3.0,18.0,1650819930902918.0
-14.0,-10.0,-3.0,4.0,-6.0,-8.0,-5.0,-15.0,1650819930902918.0
4.0,9.0,-3.0,-8.0,-6.0,-7.0,-6.0,5.0,1650819930917976.0
2.0,-1.0,4.0,4.0,-1.0,3.0,0.0,13.0,1650819930917976.0
0.0,-8.0,16.0,17.0,5.0,4.0,5.0,8.0,1650819930919003.0
-11.0,12.0,-14.0,-19.0,2.0,1.0,0.0,-19.0,1650819930919003.0
8.0,-6.0,-28.0,-12.0,-12.0,-8.0,-3.0,-2.0,1650819930939290.0
-6.0,1.0,1.0,0.0,0.0,-5.0,-4.0,-13.0,1650819930939290.0
7.0,-2.0,-2.0,-4.0,-4.0,-1.0,-1.0,-13.0,1650819930948342.0
-2.0,10.0,5.0,11.0,8.0,9.0,2.0,-1.0,1650819930948342.0
28.0,7.0,12.0,1.0,3.0,-3.0,2.0,17.0,1650819930954525.0
-29.0,-1.0,0.0,-5.0,-5.0,-2.0,2.0,-10.0,1650819930954525.0
-5.0,0.0,-5.0,-4.0,-10.0,-8.0,-3.0,-27.0,1650819930963457.0
-9.0,-2.0,-3.0,-1.0,0.0,2.0,0.0,1.0,1650819930963457.0
3.0,-4.0,5.0,4.0,2.0,5.0,2.0,-1.0,1650819930977680.0
13.0,-2.0,7.0,14.0,13.0,8.0,4.0,7.0,1650819930977680.0
2.0,-4.0,4.0,1.0,4.0,4.0,7.0,29.0,1650819930979678.0
-7.0,3.0,-4.0,-12.0,-2.0,4.0,-5.0,-27.0,1650819930979678.0
-12.0,-8.0,2.0,1.0,-3.0,-1.0,-2.0,-11.0,1650819931000877.0
10.0,-6.0,-6.0,-6.0,-8.0,-11.0,-3.0,2.0,1650819931000877.0
-10.0,-5.0,-9.0,-7.0,-11.0,-16.0,-5.0,-2.0,1650819931001871.0
8.0,6.0,14.0,11.0,1.0,5.0,2.0,12.0,1650819931001871.0
1.0,5.0,11.0,7.0,13.0,13.0,4.0,2.0,1650819931014024.0
1.0,-3.0,-22.0,-10.0,1.0,4.0,0.0,-7.0,1650819931014024.0
4.0,0.0,13.0,-2.0,-4.0,-5.0,-2.0,7.0,1650819931022933.0
1.0,-3.0,-4.0,4.0,4.0,-5.0,-1.0,5.0,1650819931022933.0
-3.0,2.0,1.0,4.0,-2.0,-4.0,0.0,-7.0,1650819931038082.0
3.0,1.0,2.0,0.0,5.0,6.0,0.0,5.0,1650819931038082.0
0.0,-1.0,-4.0,1.0,2.0,3.0,0.0,4.0,1650819931039093.0
0.0,-12.0,0.0,-1.0,-3.0,1.0,-1.0,5.0,1650819931039093.0
-6.0,4.0,8.0,1.0,-2.0,-4.0,-1.0,-7.0,1650819931060300.0
5.0,-2.0,-3.0,0.0,-5.0,-4.0,1.0,1.0,1650819931060300.0
-1.0,3.0,2.0,0.0,-2.0,-4.0,-2.0,2.0,1650819931067736.0
-2.0,-5.0,-4.0,-3.0,-7.0,-4.0,-2.0,-1.0,1650819931067736.0
0.0,-7.0,-11.0,-3.0,-5.0,-4.0,-1.0,1.0,1650819931074496.0
2.0,4.0,10.0,12.0,13.0,10.0,0.0,3.0,1650819931074496.0
-1.0,2.0,4.0,-1.0,6.0,10.0,3.0,2.0,1650819931082744.0
0.0,-3.0,-3.0,-7.0,-9.0,-7.0,1.0,4.0,1650819931082744.0
-3.0,-2.0,-7.0,-4.0,-4.0,-7.0,-2.0,-2.0,1650819931097851.0
3.0,3.0,1.0,-2.0,1.0,-2.0,-2.0,0.0,1650819931097851.0
-1.0,-3.0,-1.0,-4.0,1.0,4.0,0.0,0.0,1650819931099862.0
2.0,-1.0,-4.0,-5.0,-3.0,-3.0,-1.0,0.0,1650819931099862.0
0.0,7.0,14.0,7.0,2.0,2.0,3.0,1.0,1650819931120873.0
-3.0,-5.0,-1.0,4.0,-3.0,-1.0,-2.0,-5.0,1650819931120873.0
-1.0,-1.0,-10.0,-2.0,3.0,0.0,-1.0,1.0,1650819931121868.0
0.0,1.0,5.0,3.0,-2.0,-1.0,1.0,3.0,1650819931121868.0
-1.0,2.0,0.0,-7.0,-4.0,-7.0,-3.0,-1.0,1650819931133902.0
-2.0,0.0,2.0,-5.0,-5.0,-9.0,-1.0,1.0,1650819931133902.0
-1.0,-3.0,12.0,13.0,7.0,9.0,0.0,-1.0,1650819931142811.0
-1.0,-1.0,-26.0,-22.0,0.0,-2.0,-4.0,0.0,1650819931142811.0
0.0,0.0,0.0,5.0,5.0,3.0,1.0,-2.0,1650819931157928.0
1.0,2.0,4.0,1.0,-2.0,-1.0,0.0,-1.0,1650819931157928.0
-1.0,-2.0,-6.0,0.0,-13.0,-10.0,-3.0,0.0,1650819931159884.0
-2.0,3.0,9.0,9.0,1.0,-2.0,1.0,2.0,1650819931159884.0
-1.0,-2.0,1.0,2.0,8.0,13.0,0.0,-1.0,1650819931180855.0
2.0,4.0,0.0,-4.0,1.0,-1.0,0.0,0.0,1650819931180855.0
1.0,2.0,2.0,-5.0,0.0,-2.0,0.0,0.0,1650819931181867.0
-2.0,-5.0,-3.0,-3.0,-5.0,-1.0,-1.0,0.0,1650819931181867.0
0.0,-2.0,-6.0,0.0,-3.0,-6.0,-2.0,0.0,1650819931193887.0
-1.0,1.0,12.0,9.0,0.0,3.0,1.0,3.0,1650819931193887.0
1.0,0.0,-9.0,-8.0,3.0,0.0,0.0,0.0,1650819931202798.0
-3.0,-4.0,-9.0,-7.0,-5.0,-2.0,-3.0,-2.0,1650819931202798.0
-1.0,5.0,9.0,7.0,0.0,-1.0,-2.0,-3.0,1650819931217744.0
0.0,-8.0,-13.0,-10.0,-4.0,0.0,2.0,-2.0,1650819931217744.0
-1.0,-3.0,8.0,9.0,2.0,2.0,2.0,1.0,1650819931219767.0
4.0,3.0,11.0,9.0,4.0,2.0,1.0,1.0,1650819931219767.0
-3.0,-1.0,3.0,-1.0,-1.0,1.0,0.0,-1.0,1650819931240855.0
2.0,0.0,-9.0,-12.0,3.0,6.0,1.0,1.0,1650819931240855.0
-2.0,-2.0,-14.0,-11.0,-1.0,-1.0,0.0,0.0,1650819931241834.0
-3.0,-2.0,10.0,18.0,-6.0,-6.0,-4.0,-5.0,1650819931241834.0
0.0,0.0,4.0,-2.0,-9.0,-5.0,-1.0,-2.0,1650819931262864.0
-1.0,2.0,4.0,10.0,0.0,-2.0,-1.0,2.0,1650819931262864.0
2.0,5.0,10.0,1.0,12.0,11.0,3.0,2.0,1650819931264901.0
3.0,-6.0,-2.0,-12.0,-1.0,0.0,-1.0,-3.0,1650819931264901.0
-10.0,-9.0,-34.0,-25.0,-15.0,-13.0,-5.0,-3.0,1650819931278270.0
0.0,3.0,5.0,8.0,1.0,-1.0,-1.0,0.0,1650819931278270.0
2.0,0.0,-2.0,0.0,0.0,1.0,1.0,0.0,1650819931279823.0
2.0,2.0,9.0,7.0,3.0,4.0,1.0,0.0,1650819931279823.0
2.0,2.0,8.0,5.0,5.0,3.0,0.0,0.0,1650819931300662.0
0.0,-2.0,-7.0,-11.0,-8.0,-7.0,0.0,-1.0,1650819931300662.0
-5.0,0.0,9.0,8.0,-4.0,-7.0,-3.0,-3.0,1650819931302617.0
-4.0,1.0,-1.0,0.0,6.0,9.0,5.0,1.0,1650819931302617.0
10.0,-4.0,-9.0,-6.0,-5.0,-3.0,-1.0,-2.0,1650819931322772.0
-2.0,0.0,-1.0,-2.0,3.0,1.0,-1.0,-1.0,1650819931322772.0
0.0,-2.0,2.0,6.0,-7.0,-6.0,-4.0,0.0,1650819931324793.0
-2.0,3.0,9.0,6.0,0.0,0.0,-2.0,-1.0,1650819931324793.0
-1.0,-3.0,-19.0,-13.0,7.0,5.0,3.0,0.0,1650819931338270.0
0.0,-3.0,1.0,6.0,-6.0,-5.0,-1.0,-2.0,1650819931338270.0
4.0,3.0,5.0,-3.0,-3.0,-6.0,-1.0,-1.0,1650819931339822.0
-2.0,2.0,0.0,0.0,5.0,7.0,0.0,0.0,1650819931339822.0
1.0,4.0,9.0,2.0,5.0,5.0,1.0,1.0,1650819931360135.0
-4.0,-12.0,-10.0,-5.0,-5.0,-8.0,-1.0,-2.0,1650819931360135.0
7.0,4.0,4.0,3.0,-4.0,-5.0,-2.0,-1.0,1650819931362095.0
0.0,-4.0,-24.0,-21.0,-7.0,-2.0,-2.0,0.0,1650819931362095.0
-2.0,0.0,3.0,4.0,4.0,-1.0,-1.0,-1.0,1650819931383329.0
-2.0,2.0,8.0,7.0,-2.0,-2.0,-3.0,-1.0,1650819931383329.0
-5.0,-7.0,-11.0,-9.0,-2.0,-1.0,-1.0,-1.0,1650819931384330.0
1.0,2.0,9.0,11.0,4.0,2.0,3.0,0.0,1650819931384330.0
1.0,-2.0,-7.0,-4.0,0.0,3.0,-1.0,0.0,1650819931397654.0
1.0,4.0,0.0,-2.0,1.0,-2.0,0.0,-1.0,1650819931397654.0
-1.0,2.0,3.0,-7.0,-7.0,-6.0,-1.0,-1.0,1650819931403705.0
3.0,-1.0,-2.0,5.0,1.0,-5.0,-3.0,-1.0,1650819931403705.0
-2.0,-4.0,-4.0,4.0,-1.0,2.0,1.0,0.0,1650819931420856.0
-2.0,2.0,3.0,1.0,-1.0,6.0,1.0,0.0,1650819931420856.0
-1.0,-7.0,-12.0,0.0,2.0,1.0,0.0,-2.0,1650819931421856.0
-2.0,1.0,6.0,-3.0,1.0,-3.0,-1.0,0.0,1650819931421856.0
0.0,4.0,0.0,-6.0,-3.0,-1.0,-2.0,-1.0,1650819931443327.0
4.0,-2.0,9.0,12.0,-3.0,-4.0,-4.0,-2.0,1650819931443327.0
-11.0,-2.0,-3.0,3.0,0.0,1.0,1.0,1.0,1650819931444326.0
2.0,-1.0,-8.0,-6.0,1.0,-3.0,1.0,0.0,1650819931444326.0
0.0,0.0,12.0,8.0,6.0,4.0,2.0,2.0,1650819931457620.0
-1.0,3.0,-7.0,-11.0,-1.0,3.0,0.0,1.0,1650819931457620.0
1.0,-3.0,0.0,0.0,-3.0,-3.0,-1.0,-2.0,1650819931471520.0
2.0,2.0,0.0,-2.0,-5.0,-6.0,-1.0,-1.0,1650819931471520.0
-2.0,-2.0,-3.0,-5.0,-2.0,-3.0,-1.0,0.0,1650819931480583.0
1.0,0.0,4.0,4.0,4.0,0.0,0.0,-1.0,1650819931480583.0
1.0,0.0,-4.0,-5.0,3.0,5.0,2.0,1.0,1650819931481539.0
-9.0,1.0,9.0,0.0,-6.0,-2.0,-2.0,-2.0,1650819931481539.0
11.0,-2.0,-5.0,5.0,-5.0,-5.0,-2.0,-2.0,1650819931502753.0
-5.0,-3.0,-3.0,-3.0,-2.0,-7.0,-2.0,-1.0,1650819931502753.0
-1.0,6.0,6.0,4.0,4.0,6.0,-1.0,0.0,1650819931504708.0
-1.0,-11.0,-27.0,-13.0,3.0,7.0,2.0,0.0,1650819931504708.0
-5.0,3.0,20.0,12.0,0.0,-4.0,-2.0,-1.0,1650819931517677.0
0.0,1.0,7.0,-1.0,-3.0,-3.0,-1.0,-2.0,1650819931517677.0
2.0,-3.0,-10.0,-7.0,-2.0,-2.0,-1.0,0.0,1650819931523775.0
-1.0,2.0,2.0,7.0,-2.0,-1.0,-2.0,-1.0,1650819931523775.0
4.0,2.0,-1.0,-12.0,0.0,1.0,0.0,1.0,1650819931539742.0
-3.0,-3.0,-6.0,2.0,0.0,2.0,0.0,2.0,1650819931539742.0
-2.0,2.0,15.0,11.0,7.0,6.0,2.0,-1.0,1650819931547721.0
1.0,-1.0,1.0,4.0,-2.0,-1.0,1.0,2.0,1650819931547721.0
-3.0,-1.0,-5.0,-5.0,-5.0,-6.0,-2.0,-2.0,1650819931562713.0
1.0,-1.0,2.0,1.0,1.0,-2.0,-2.0,0.0,1650819931562713.0
-1.0,2.0,1.0,-3.0,-2.0,2.0,-1.0,0.0,1650819931564663.0
0.0,-7.0,-11.0,-8.0,4.0,3.0,-1.0,0.0,1650819931564663.0
-1.0,-1.0,-2.0,6.0,-2.0,-3.0,0.0,-1.0,1650819931577595.0
0.0,1.0,1.0,-4.0,2.0,4.0,1.0,1.0,1650819931577595.0
3.0,-3.0,-1.0,1.0,-5.0,-5.0,-3.0,0.0,1650819931583935.0
1.0,6.0,6.0,-6.0,-3.0,-5.0,-2.0,1.0,1650819931583935.0
-5.0,-6.0,2.0,8.0,3.0,7.0,0.0,1.0,1650819931600118.0
1.0,-3.0,-9.0,-8.0,0.0,0.0,2.0,0.0,1650819931600118.0
-1.0,-1.0,-3.0,-4.0,-1.0,0.0,0.0,-2.0,1650819931602049.0
2.0,5.0,8.0,8.0,-3.0,-3.0,-2.0,-2.0,1650819931602049.0
-3.0,-7.0,1.0,4.0,1.0,-5.0,-1.0,0.0,1650819931623131.0
-4.0,-2.0,-6.0,-11.0,6.0,8.0,0.0,0.0,1650819931623131.0
5.0,1.0,-2.0,-3.0,-1.0,3.0,-1.0,1.0,1650819931623966.0
-1.0,-5.0,3.0,7.0,-3.0,-6.0,-2.0,-1.0,1650819931623966.0
-1.0,4.0,6.0,2.0,-7.0,-2.0,-2.0,-3.0,1650819931637597.0
3.0,1.0,-8.0,-6.0,0.0,2.0,0.0,-1.0,1650819931637597.0
-8.0,-4.0,-8.0,-11.0,1.0,0.0,-1.0,-2.0,1650819931644087.0
3.0,3.0,11.0,7.0,-2.0,-6.0,-1.0,-1.0,1650819931644087.0
0.0,0.0,-4.0,-4.0,1.0,3.0,0.0,1.0,1650819931660211.0
0.0,0.0,-3.0,1.0,4.0,8.0,2.0,1.0,1650819931660211.0
0.0,2.0,-6.0,-3.0,0.0,3.0,1.0,-1.0,1650819931662169.0
-3.0,-4.0,4.0,-3.0,-4.0,-6.0,-1.0,-2.0,1650819931662169.0
-4.0,0.0,3.0,0.0,-9.0,-10.0,-3.0,-3.0,1650819931683333.0
1.0,0.0,0.0,0.0,2.0,-1.0,-1.0,0.0,1650819931683333.0
1.0,0.0,-5.0,-7.0,5.0,2.0,2.0,1.0,1650819931684333.0
-1.0,2.0,10.0,13.0,2.0,6.0,1.0,1.0,1650819931684333.0
-3.0,-4.0,-11.0,-8.0,0.0,1.0,1.0,-1.0,1650819931697519.0
-1.0,-1.0,-2.0,-1.0,-11.0,-9.0,-4.0,-3.0,1650819931697519.0
2.0,5.0,9.0,8.0,-2.0,-6.0,-2.0,-1.0,1650819931704463.0
-3.0,-5.0,-6.0,-6.0,8.0,9.0,3.0,0.0,1650819931704463.0
1.0,3.0,0.0,6.0,4.0,3.0,1.0,0.0,1650819931720871.0
-1.0,-1.0,0.0,-2.0,-6.0,-5.0,0.0,0.0,1650819931720871.0
-1.0,-2.0,-2.0,-2.0,-8.0,-9.0,-3.0,-2.0,1650819931721854.0
-1.0,0.0,-8.0,-9.0,-6.0,-9.0,-4.0,-3.0,1650819931721854.0
1.0,-1.0,9.0,5.0,-3.0,-1.0,-3.0,-1.0,1650819931743030.0
4.0,0.0,8.0,9.0,5.0,9.0,4.0,-1.0,1650819931743030.0
-7.0,-1.0,-7.0,-6.0,12.0,14.0,4.0,1.0,1650819931749086.0
0.0,-1.0,-1.0,0.0,3.0,6.0,3.0,1.0,1650819931749086.0
-6.0,0.0,-3.0,0.0,-5.0,-6.0,-1.0,-3.0,1650819931755999.0
8.0,3.0,3.0,-3.0,-9.0,-13.0,-5.0,0.0,1650819931755999.0
0.0,-4.0,-14.0,-5.0,-13.0,-15.0,-6.0,-2.0,1650819931764979.0
-2.0,-1.0,-4.0,1.0,5.0,10.0,1.0,0.0,1650819931764979.0
1.0,4.0,3.0,0.0,12.0,7.0,1.0,1.0,1650819931780836.0
-7.0,-3.0,1.0,1.0,-3.0,-2.0,-2.0,-1.0,1650819931780836.0
0.0,0.0,1.0,-4.0,-2.0,-1.0,0.0,1.0,1650819931781808.0
-2.0,-1.0,-6.0,-3.0,-10.0,-9.0,-4.0,-3.0,1650819931781808.0
0.0,-3.0,-5.0,-1.0,2.0,3.0,0.0,0.0,1650819931802908.0
-3.0,-1.0,-1.0,0.0,6.0,11.0,2.0,-1.0,1650819931802908.0
3.0,-4.0,3.0,3.0,6.0,-1.0,0.0,-2.0,1650819931804864.0
0.0,0.0,-3.0,-1.0,-5.0,-6.0,-1.0,-2.0,1650819931804864.0
1.0,-2.0,1.0,-7.0,-5.0,-4.0,-1.0,0.0,1650819931816871.0
-2.0,2.0,-1.0,-2.0,-4.0,-5.0,-3.0,0.0,1650819931816871.0
0.0,-2.0,1.0,3.0,-3.0,0.0,0.0,1.0,1650819931825883.0
0.0,3.0,5.0,8.0,4.0,4.0,-1.0,1.0,1650819931825883.0
4.0,-2.0,-2.0,-5.0,1.0,2.0,3.0,0.0,1650819931839928.0
-9.0,0.0,-5.0,-1.0,4.0,5.0,1.0,-2.0,1650819931839928.0
0.0,0.0,-1.0,-3.0,-6.0,-9.0,-2.0,-1.0,1650819931841861.0
0.0,-3.0,-11.0,-11.0,-3.0,-3.0,-2.0,-1.0,1650819931841861.0
3.0,1.0,2.0,2.0,1.0,4.0,1.0,2.0,1650819931862832.0
-2.0,-1.0,0.0,1.0,-2.0,-2.0,0.0,0.0,1650819931862832.0
6.0,1.0,7.0,5.0,-1.0,1.0,-1.0,1.0,1650819931864857.0
-1.0,1.0,1.0,-4.0,2.0,-2.0,-1.0,1.0,1650819931864857.0
-3.0,-3.0,-8.0,-6.0,-6.0,-6.0,-3.0,-3.0,1650819931876863.0
1.0,0.0,3.0,0.0,-2.0,-6.0,-2.0,0.0,1650819931876863.0
-4.0,-1.0,-4.0,-2.0,1.0,-2.0,-3.0,-1.0,1650819931885187.0
4.0,-1.0,4.0,6.0,0.0,5.0,1.0,-2.0,1650819931885187.0
-1.0,1.0,6.0,5.0,8.0,10.0,4.0,3.0,1650819931900344.0
2.0,0.0,-5.0,-1.0,6.0,2.0,1.0,-1.0,1650819931900344.0
-2.0,-2.0,1.0,-1.0,-6.0,-6.0,0.0,-2.0,1650819931902300.0
-2.0,1.0,0.0,-1.0,-1.0,0.0,-1.0,0.0,1650819931902300.0
-2.0,-3.0,-3.0,0.0,0.0,1.0,0.0,-2.0,1650819931922529.0
-1.0,-1.0,-1.0,-1.0,-5.0,-5.0,-2.0,0.0,1650819931922529.0
-1.0,0.0,4.0,5.0,1.0,2.0,0.0,1.0,1650819931924458.0
-1.0,-3.0,-8.0,-6.0,2.0,3.0,-1.0,-2.0,1650819931924458.0
-3.0,3.0,1.0,-2.0,-7.0,-4.0,0.0,-1.0,1650819931936636.0
0.0,-4.0,1.0,2.0,-4.0,-5.0,-2.0,-1.0,1650819931936636.0
-1.0,-2.0,-1.0,4.0,6.0,3.0,0.0,-2.0,1650819931945869.0
-1.0,2.0,2.0,-2.0,-1.0,-1.0,0.0,3.0,1650819931945869.0
1.0,1.0,-2.0,-4.0,-5.0,-4.0,0.0,-2.0,1650819931960871.0
2.0,0.0,-5.0,1.0,8.0,4.0,-1.0,1.0,1650819931960871.0
0.0,1.0,0.0,-3.0,-7.0,-3.0,0.0,1.0,1650819931961548.0
1.0,-2.0,1.0,2.0,0.0,-3.0,-2.0,-1.0,1650819931961548.0
-2.0,-2.0,-2.0,-1.0,-1.0,-5.0,-3.0,0.0,1650819931983245.0
-1.0,1.0,2.0,2.0,-1.0,2.0,1.0,-1.0,1650819931983245.0
2.0,-1.0,-4.0,-2.0,2.0,4.0,4.0,2.0,1650819931984864.0
-1.0,-2.0,8.0,4.0,8.0,6.0,3.0,1.0,1650819931984864.0
0.0,2.0,-10.0,-4.0,-2.0,-10.0,-2.0,-1.0,1650819931996899.0
1.0,-3.0,-4.0,-4.0,-5.0,0.0,-3.0,-1.0,1650819931996899.0
-2.0,-3.0,1.0,2.0,-2.0,3.0,-3.0,-3.0,1650819932005925.0
0.0,1.0,-1.0,-2.0,-6.0,-7.0,-2.0,-1.0,1650819932005925.0
-2.0,-2.0,4.0,3.0,3.0,-2.0,-3.0,-1.0,1650819932019963.0
-1.0,-2.0,-4.0,-7.0,0.0,0.0,-1.0,-1.0,1650819932019963.0
-1.0,2.0,1.0,2.0,1.0,3.0,0.0,-1.0,1650819932026923.0
-1.0,1.0,1.0,0.0,-1.0,1.0,-1.0,1.0,1650819932026923.0
-1.0,0.0,4.0,4.0,5.0,6.0,1.0,0.0,1650819932042934.0
2.0,1.0,-7.0,-11.0,-3.0,-3.0,0.0,-2.0,1650819932042934.0
-3.0,0.0,5.0,7.0,3.0,1.0,-2.0,-1.0,1650819932044883.0
0.0,-1.0,-2.0,-5.0,-8.0,-9.0,-2.0,-2.0,1650819932044883.0
-1.0,-2.0,-1.0,-3.0,-8.0,-6.0,-3.0,-1.0,1650819932057004.0
-2.0,-1.0,5.0,8.0,2.0,7.0,1.0,-1.0,1650819932057004.0
0.0,2.0,1.0,-2.0,-2.0,2.0,1.0,0.0,1650819932065073.0
-1.0,-3.0,-3.0,-1.0,10.0,0.0,2.0,1.0,1650819932065073.0
-1.0,0.0,0.0,-2.0,3.0,6.0,1.0,-1.0,1650819932080228.0
-3.0,0.0,7.0,10.0,1.0,3.0,2.0,0.0,1650819932080228.0
4.0,-2.0,-4.0,-5.0,-4.0,-4.0,-2.0,-1.0,1650819932082158.0
-1.0,1.0,-2.0,1.0,-9.0,-7.0,-2.0,-1.0,1650819932082158.0
0.0,0.0,-2.0,-3.0,-3.0,-7.0,-3.0,0.0,1650819932103327.0
-1.0,-2.0,-16.0,-14.0,-1.0,-2.0,-2.0,-2.0,1650819932103327.0
-3.0,-2.0,4.0,0.0,0.0,1.0,-1.0,-1.0,1650819932104273.0
2.0,0.0,-1.0,3.0,-1.0,-1.0,-1.0,-2.0,1650819932104273.0
-2.0,-3.0,1.0,2.0,1.0,0.0,-1.0,-1.0,1650819932116920.0
1.0,0.0,3.0,0.0,3.0,0.0,2.0,-1.0,1650819932116920.0
1.0,0.0,-2.0,-1.0,-5.0,-4.0,-1.0,2.0,1650819932125723.0
-2.0,-4.0,-6.0,-4.0,0.0,1.0,-1.0,0.0,1650819932125723.0
1.0,2.0,2.0,1.0,2.0,7.0,0.0,-1.0,1650819932140875.0
0.0,0.0,4.0,5.0,-3.0,-4.0,1.0,1.0,1650819932140875.0
-2.0,-1.0,-5.0,-2.0,7.0,6.0,-1.0,-1.0,1650819932141858.0
-1.0,3.0,3.0,3.0,-1.0,4.0,0.0,-2.0,1650819932141858.0
0.0,0.0,0.0,0.0,-7.0,-1.0,1.0,0.0,1650819932162615.0
0.0,-2.0,-3.0,3.0,-3.0,-8.0,-2.0,-1.0,1650819932162615.0
-3.0,-1.0,-3.0,-5.0,-6.0,-7.0,-1.0,-1.0,1650819932164545.0
1.0,0.0,-2.0,-8.0,-5.0,-5.0,-1.0,0.0,1650819932164545.0
0.0,1.0,-2.0,1.0,4.0,2.0,-1.0,-2.0,1650819932184869.0
2.0,0.0,4.0,4.0,1.0,2.0,-1.0,2.0,1650819932184869.0
0.0,0.0,-1.0,-1.0,4.0,3.0,0.0,1.0,1650819932186866.0
1.0,0.0,0.0,3.0,3.0,3.0,1.0,-2.0,1650819932186866.0
-2.0,-3.0,-4.0,-2.0,1.0,-1.0,1.0,0.0,1650819932199951.0
-2.0,-2.0,-2.0,-5.0,-6.0,-3.0,0.0,-1.0,1650819932199951.0
0.0,-1.0,-2.0,-1.0,-2.0,-3.0,-1.0,-1.0,1650819932201927.0
0.0,0.0,-2.0,-6.0,3.0,2.0,0.0,2.0,1650819932201927.0
0.0,-1.0,6.0,9.0,1.0,0.0,0.0,0.0,1650819932223339.0
0.0,-1.0,0.0,-3.0,3.0,5.0,1.0,0.0,1650819932223339.0
-1.0,-4.0,-7.0,-5.0,-8.0,-3.0,0.0,0.0,1650819932224339.0
0.0,0.0,2.0,1.0,4.0,-2.0,0.0,0.0,1650819932224339.0
0.0,-2.0,-7.0,-6.0,-1.0,0.0,-1.0,-2.0,1650819932253304.0
-1.0,1.0,5.0,4.0,-1.0,0.0,-3.0,-1.0,1650819932253304.0
0.0,0.0,0.0,2.0,-6.0,-5.0,-1.0,0.0,1650819932254305.0
-1.0,-2.0,-2.0,-2.0,-9.0,-1.0,-1.0,-1.0,1650819932254305.0
0.0,-2.0,-1.0,2.0,10.0,7.0,3.0,0.0,1650819932260315.0
3.0,0.0,-1.0,3.0,4.0,4.0,-1.0,1.0,1650819932260315.0
1.0,1.0,1.0,-2.0,-1.0,-1.0,-2.0,0.0,1650819932262309.0
-3.0,-2.0,0.0,-1.0,-5.0,-11.0,-3.0,-2.0,1650819932262309.0
1.0,1.0,0.0,-3.0,-4.0,-4.0,-2.0,-2.0,1650819932282563.0
-3.0,-1.0,-6.0,-7.0,-7.0,-2.0,-1.0,-1.0,1650819932282563.0
1.0,1.0,6.0,6.0,9.0,5.0,1.0,2.0,1650819932284550.0
1.0,0.0,1.0,4.0,7.0,9.0,0.0,0.0,1650819932284550.0
-3.0,-1.0,1.0,-2.0,-4.0,-5.0,-2.0,-1.0,1650819932305663.0
-2.0,0.0,-2.0,-5.0,-7.0,-9.0,-1.0,-2.0,1650819932305663.0
0.0,-1.0,1.0,3.0,3.0,2.0,-1.0,-2.0,1650819932306677.0
-2.0,1.0,-1.0,0.0,3.0,3.0,0.0,1.0,1650819932306677.0
-1.0,-5.0,-9.0,-8.0,-2.0,-3.0,-2.0,-1.0,1650819932319694.0
0.0,0.0,2.0,1.0,-3.0,0.0,-1.0,0.0,1650819932319694.0
0.0,1.0,3.0,0.0,-3.0,2.0,2.0,1.0,1650819932326676.0
-1.0,-3.0,-4.0,4.0,2.0,2.0,0.0,0.0,1650819932326676.0
-1.0,-2.0,0.0,-3.0,-4.0,-3.0,-1.0,0.0,1650819932342809.0
-1.0,-4.0,-2.0,0.0,0.0,-5.0,-3.0,-2.0,1650819932342809.0
-1.0,1.0,-1.0,-1.0,-2.0,-9.0,-3.0,-3.0,1650819932344759.0
-5.0,1.0,1.0,-2.0,-4.0,-1.0,-1.0,0.0,1650819932344759.0
-3.0,-2.0,2.0,3.0,1.0,6.0,2.0,0.0,1650819932365691.0
1.0,-4.0,-2.0,1.0,2.0,4.0,1.0,1.0,1650819932365691.0
-1.0,0.0,0.0,-3.0,-5.0,-6.0,-3.0,-2.0,1650819932366685.0
2.0,5.0,-1.0,-5.0,-7.0,-8.0,-3.0,-4.0,1650819932366685.0
1.0,3.0,1.0,5.0,-2.0,-2.0,0.0,4.0,1650819932379826.0
-2.0,-8.0,0.0,4.0,15.0,14.0,3.0,1.0,1650819932379826.0
-1.0,-3.0,-2.0,-2.0,4.0,5.0,1.0,-1.0,1650819932386896.0
-3.0,-2.0,1.0,-1.0,-6.0,-4.0,-2.0,-1.0,1650819932386896.0
-2.0,2.0,2.0,0.0,-7.0,-9.0,-5.0,-3.0,1650819932403270.0
0.0,4.0,-4.0,-7.0,-6.0,-7.0,0.0,-1.0,1650819932403270.0
-3.0,-1.0,0.0,3.0,-1.0,1.0,0.0,0.0,1650819932403935.0
0.0,-4.0,2.0,7.0,8.0,8.0,1.0,1.0,1650819932403935.0
1.0,8.0,0.0,-2.0,-1.0,4.0,0.0,0.0,1650819932425802.0
4.0,4.0,1.0,0.0,-1.0,-4.0,0.0,3.0,1650819932425802.0
-2.0,5.0,-2.0,-5.0,-3.0,-7.0,-3.0,-3.0,1650819932426800.0
-12.0,-33.0,-8.0,-4.0,-6.0,-3.0,-1.0,-3.0,1650819932426800.0
-3.0,-1.0,-2.0,-4.0,-1.0,2.0,0.0,-5.0,1650819932439831.0
8.0,15.0,5.0,5.0,4.0,1.0,0.0,-6.0,1650819932439831.0
-1.0,4.0,2.0,2.0,2.0,2.0,1.0,6.0,1650819932446812.0
2.0,10.0,0.0,-2.0,2.0,1.0,2.0,-1.0,1650819932446812.0
-3.0,-23.0,-6.0,-6.0,1.0,2.0,0.0,1.0,1650819932463328.0
-5.0,-7.0,1.0,2.0,-5.0,-2.0,-1.0,2.0,1650819932463328.0
10.0,7.0,1.0,6.0,6.0,2.0,2.0,0.0,1650819932464328.0
9.0,8.0,0.0,-2.0,-3.0,0.0,0.0,9.0,1650819932464328.0
-6.0,0.0,0.0,2.0,-2.0,-4.0,-2.0,-15.0,1650819932484868.0
-8.0,5.0,-1.0,-1.0,-4.0,-3.0,-3.0,-4.0,1650819932484868.0
-3.0,-12.0,-5.0,-7.0,-8.0,-2.0,-2.0,1.0,1650819932486872.0
5.0,3.0,8.0,8.0,5.0,1.0,-3.0,3.0,1650819932486872.0
5.0,0.0,3.0,10.0,3.0,0.0,-2.0,-1.0,1650819932500103.0
-2.0,-3.0,0.0,-2.0,7.0,-1.0,-10.0,10.0,1650819932500103.0
9.0,10.0,-1.0,1.0,1.0,3.0,13.0,-20.0,1650819932507018.0
-13.0,0.0,-6.0,-7.0,-6.0,-2.0,10.0,9.0,1650819932507018.0
-11.0,-29.0,-5.0,-7.0,-3.0,-3.0,-12.0,-6.0,1650819932522931.0
4.0,0.0,-4.0,-2.0,-4.0,-3.0,18.0,29.0,1650819932522931.0
-2.0,2.0,3.0,2.0,-1.0,-3.0,-6.0,8.0,1650819932528916.0
7.0,0.0,-4.0,-2.0,-1.0,-2.0,4.0,-7.0,1650819932528916.0
9.0,15.0,0.0,2.0,1.0,3.0,-4.0,-1.0,1650819932544913.0
-11.0,-10.0,-1.0,5.0,1.0,1.0,-15.0,-25.0,1650819932544913.0
-1.0,3.0,-1.0,-2.0,0.0,-2.0,5.0,6.0,1650819932546849.0
3.0,-2.0,1.0,-1.0,-1.0,-4.0,-21.0,-21.0,1650819932546849.0
-6.0,6.0,-4.0,0.0,1.0,0.0,3.0,4.0,1650819932559926.0
22.0,10.0,4.0,3.0,1.0,7.0,41.0,50.0,1650819932559926.0
-10.0,-7.0,-2.0,-5.0,-2.0,3.0,25.0,3.0,1650819932566954.0
-2.0,1.0,-3.0,-7.0,-3.0,-4.0,-26.0,-23.0,1650819932566954.0
1.0,5.0,0.0,2.0,-3.0,-6.0,-12.0,-10.0,1650819932583781.0
-5.0,-7.0,-5.0,0.0,-3.0,-2.0,-12.0,-26.0,1650819932583781.0
-10.0,-16.0,-3.0,2.0,9.0,7.0,-1.0,9.0,1650819932584783.0
1.0,7.0,2.0,3.0,0.0,-4.0,8.0,6.0,1650819932584783.0
2.0,8.0,5.0,-1.0,1.0,3.0,-5.0,-4.0,1650819932605801.0
-2.0,2.0,-8.0,0.0,3.0,3.0,-4.0,-21.0,1650819932605801.0
1.0,2.0,4.0,2.0,-2.0,-3.0,-4.0,8.0,1650819932606800.0
-5.0,-8.0,-4.0,2.0,1.0,1.0,18.0,32.0,1650819932606800.0
6.0,9.0,5.0,-2.0,-6.0,-2.0,17.0,24.0,1650819932619832.0
-9.0,0.0,-2.0,-7.0,-9.0,-6.0,-4.0,-3.0,1650819932619832.0
9.0,-5.0,-4.0,-1.0,-1.0,-3.0,-17.0,-14.0,1650819932626813.0
0.0,6.0,4.0,6.0,7.0,2.0,-15.0,-39.0,1650819932626813.0
7.0,0.0,-2.0,-3.0,-1.0,1.0,14.0,35.0,1650819932643307.0
-8.0,-3.0,2.0,-1.0,3.0,7.0,15.0,19.0,1650819932643307.0
-2.0,2.0,-2.0,0.0,-3.0,-5.0,-9.0,12.0,1650819932644320.0
-8.0,-10.0,-7.0,-6.0,-3.0,2.0,0.0,-30.0,1650819932644320.0
1.0,-2.0,1.0,1.0,1.0,-1.0,-3.0,-20.0,1650819932665671.0
-2.0,-2.0,-2.0,-2.0,0.0,-4.0,-14.0,-10.0,1650819932665671.0
13.0,1.0,3.0,3.0,1.0,1.0,3.0,29.0,1650819932666670.0
-9.0,-1.0,-1.0,-4.0,0.0,1.0,1.0,-45.0,1650819932666670.0
-1.0,-1.0,0.0,2.0,1.0,-1.0,-2.0,9.0,1650819932678706.0
-2.0,0.0,-7.0,-7.0,-8.0,-2.0,-5.0,-8.0,1650819932678706.0
-4.0,4.0,3.0,0.0,0.0,-2.0,-2.0,-4.0,1650819932687647.0
0.0,-10.0,-2.0,2.0,8.0,6.0,7.0,26.0,1650819932687647.0
2.0,4.0,-1.0,-4.0,-2.0,-3.0,0.0,5.0,1650819932703269.0
3.0,3.0,5.0,-4.0,-11.0,-12.0,-6.0,-8.0,1650819932703269.0
-2.0,1.0,-2.0,1.0,-5.0,-1.0,-2.0,-9.0,1650819932703970.0
1.0,8.0,6.0,6.0,18.0,17.0,9.0,20.0,1650819932703970.0
-4.0,-17.0,0.0,1.0,9.0,7.0,0.0,-4.0,1650819932732955.0
-8.0,-19.0,-1.0,2.0,3.0,-1.0,2.0,24.0,1650819932732955.0
-5.0,-6.0,-15.0,-16.0,-18.0,-16.0,-18.0,-67.0,1650819932734882.0
16.0,13.0,8.0,0.0,-17.0,-16.0,-1.0,19.0,1650819932734882.0
2.0,10.0,0.0,3.0,2.0,6.0,2.0,-1.0,1650819932738901.0
0.0,27.0,-15.0,-4.0,2.0,5.0,-2.0,-16.0,1650819932738901.0
8.0,-3.0,-9.0,-3.0,7.0,7.0,4.0,35.0,1650819932747849.0
-15.0,-3.0,-9.0,-10.0,-8.0,-3.0,-3.0,-23.0,1650819932747849.0
5.0,6.0,-5.0,-2.0,-1.0,-4.0,-3.0,-15.0,1650819932763347.0
-3.0,-4.0,12.0,6.0,2.0,-2.0,-2.0,-2.0,1650819932763347.0
-5.0,-1.0,3.0,1.0,1.0,3.0,0.0,-3.0,1650819932764347.0
1.0,-10.0,13.0,6.0,0.0,1.0,2.0,20.0,1650819932764347.0
-1.0,1.0,-6.0,0.0,2.0,-1.0,2.0,11.0,1650819932793353.0
4.0,12.0,-28.0,-11.0,-4.0,-6.0,-7.0,-12.0,1650819932793353.0
-1.0,3.0,12.0,1.0,2.0,4.0,4.0,12.0,1650819932794366.0
0.0,-4.0,1.0,2.0,-3.0,-1.0,2.0,11.0,1650819932794366.0
-12.0,0.0,16.0,9.0,0.0,-2.0,-4.0,-6.0,1650819932799340.0
23.0,1.0,6.0,-1.0,2.0,2.0,3.0,-1.0,1650819932799340.0
-9.0,-1.0,-8.0,-4.0,-10.0,-6.0,-3.0,-12.0,1650819932807684.0
1.0,5.0,-9.0,-1.0,6.0,0.0,-1.0,12.0,1650819932807684.0
4.0,4.0,9.0,2.0,8.0,14.0,5.0,11.0,1650819932823304.0
-4.0,-1.0,5.0,-2.0,-3.0,0.0,-4.0,-11.0,1650819932823304.0
-6.0,8.0,0.0,8.0,-1.0,-4.0,-2.0,-15.0,1650819932824305.0
-1.0,13.0,8.0,-5.0,-13.0,-13.0,-5.0,-4.0,1650819932824305.0
19.0,7.0,-5.0,-6.0,-7.0,-6.0,0.0,1.0,1650819932845507.0
-34.0,-35.0,12.0,12.0,9.0,9.0,3.0,-5.0,1650819932845507.0
-19.0,-77.0,-5.0,0.0,11.0,5.0,-2.0,-6.0,1650819932846465.0
18.0,12.0,-6.0,1.0,9.0,9.0,9.0,39.0,1650819932846465.0
-4.0,9.0,-1.0,-4.0,-3.0,-3.0,-1.0,0.0,1650819932859469.0
14.0,24.0,6.0,-6.0,-8.0,-7.0,-4.0,-20.0,1650819932859469.0
3.0,21.0,-4.0,-8.0,-8.0,-5.0,-2.0,12.0,1650819932868413.0
-15.0,-14.0,5.0,13.0,-1.0,-8.0,-1.0,-5.0,1650819932868413.0
-5.0,-2.0,-2.0,12.0,3.0,-7.0,-1.0,-7.0,1650819932883371.0
10.0,0.0,10.0,10.0,11.0,18.0,7.0,17.0,1650819932883371.0
-2.0,-3.0,-3.0,-11.0,3.0,10.0,5.0,16.0,1650819932884369.0
6.0,-5.0,1.0,4.0,11.0,8.0,2.0,-12.0,1650819932884369.0
0.0,-5.0,-15.0,-17.0,-19.0,-12.0,-3.0,6.0,1650819932905539.0
-7.0,-10.0,-15.0,-8.0,-9.0,-15.0,-6.0,7.0,1650819932905539.0
2.0,4.0,10.0,9.0,2.0,2.0,-6.0,-15.0,1650819932906536.0
2.0,2.0,5.0,8.0,5.0,10.0,4.0,5.0,1650819932906536.0
-4.0,-17.0,-9.0,-10.0,-1.0,2.0,-1.0,-4.0,1650819932919502.0
-5.0,1.0,5.0,0.0,-4.0,-6.0,-2.0,3.0,1650819932919502.0
7.0,18.0,4.0,6.0,1.0,-5.0,-1.0,-5.0,1650819932928491.0
-3.0,-3.0,1.0,1.0,-6.0,-1.0,2.0,38.0,1650819932928491.0
-4.0,3.0,3.0,-2.0,1.0,5.0,-3.0,-63.0,1650819932942962.0
-4.0,-4.0,5.0,1.0,8.0,2.0,-2.0,-21.0,1650819932942962.0
1.0,7.0,-2.0,-2.0,-5.0,-2.0,1.0,-1.0,1650819932943933.0
-8.0,-10.0,1.0,-10.0,-14.0,-9.0,-4.0,6.0,1650819932943933.0
-2.0,-5.0,0.0,3.0,2.0,-5.0,-2.0,-12.0,1650819932965097.0
9.0,4.0,-1.0,6.0,4.0,13.0,1.0,9.0,1650819932965097.0
-7.0,0.0,5.0,2.0,4.0,4.0,3.0,-3.0,1650819932967038.0
-3.0,1.0,-14.0,-16.0,0.0,-4.0,-3.0,-16.0,1650819932967038.0
-4.0,-8.0,-13.0,-11.0,-13.0,-6.0,0.0,15.0,1650819932978867.0
2.0,3.0,8.0,9.0,-4.0,-4.0,-3.0,-8.0,1650819932978867.0
1.0,6.0,-6.0,3.0,9.0,10.0,3.0,4.0,1650819932987846.0
8.0,17.0,-8.0,3.0,10.0,13.0,2.0,6.0,1650819932987846.0
4.0,0.0,5.0,-4.0,-4.0,-6.0,2.0,30.0,1650819933003803.0
-25.0,-16.0,-4.0,-12.0,-14.0,-15.0,-12.0,-42.0,1650819933003803.0
23.0,10.0,-1.0,2.0,-6.0,-7.0,0.0,0.0,1650819933008856.0
-18.0,-2.0,-3.0,3.0,4.0,7.0,4.0,1.0,1650819933008856.0
0.0,12.0,6.0,3.0,8.0,1.0,-4.0,11.0,1650819933025885.0
5.0,-6.0,-10.0,-11.0,-6.0,0.0,5.0,8.0,1650819933025885.0
-6.0,-1.0,4.0,3.0,-5.0,-9.0,-4.0,0.0,1650819933026883.0
1.0,-5.0,-2.0,-9.0,-7.0,-6.0,-5.0,-28.0,1650819933026883.0
5.0,-2.0,-14.0,-9.0,-2.0,3.0,3.0,22.0,1650819933038874.0
-3.0,-10.0,2.0,9.0,3.0,2.0,2.0,18.0,1650819933038874.0
-3.0,11.0,10.0,2.0,3.0,0.0,-3.0,-10.0,1650819933047681.0
3.0,4.0,3.0,1.0,-3.0,-2.0,0.0,16.0,1650819933047681.0
-9.0,-12.0,1.0,4.0,-2.0,-3.0,-4.0,-31.0,1650819933062710.0
14.0,-17.0,-17.0,-16.0,-1.0,0.0,-2.0,8.0,1650819933062710.0
-9.0,-11.0,-5.0,-1.0,5.0,7.0,4.0,-5.0,1650819933064668.0
2.0,9.0,11.0,5.0,-6.0,-7.0,-2.0,10.0,1650819933064668.0
4.0,4.0,7.0,7.0,5.0,5.0,2.0,-8.0,1650819933085818.0
-1.0,10.0,1.0,4.0,10.0,4.0,-4.0,-13.0,1650819933085818.0
21.0,-4.0,-2.0,-4.0,-6.0,-1.0,0.0,4.0,1650819933087823.0
-33.0,-10.0,-3.0,-5.0,-3.0,1.0,1.0,3.0,1650819933087823.0
-3.0,4.0,4.0,3.0,-2.0,-2.0,-2.0,-2.0,1650819933108272.0
3.0,0.0,2.0,0.0,-3.0,-4.0,3.0,16.0,1650819933108272.0
-3.0,-4.0,-7.0,-8.0,-6.0,-5.0,-4.0,-2.0,1650819933109835.0
16.0,6.0,-1.0,2.0,4.0,2.0,3.0,18.0,1650819933109835.0
0.0,0.0,4.0,0.0,2.0,2.0,-2.0,-17.0,1650819933122964.0
-7.0,1.0,0.0,-3.0,-1.0,-2.0,0.0,6.0,1650819933122964.0
-10.0,-28.0,4.0,6.0,-2.0,-1.0,0.0,18.0,1650819933123961.0
10.0,5.0,3.0,-4.0,-6.0,-10.0,-7.0,-41.0,1650819933123961.0
-7.0,-8.0,11.0,11.0,11.0,8.0,7.0,26.0,1650819933144954.0
15.0,18.0,13.0,-2.0,2.0,8.0,3.0,26.0,1650819933144954.0
-4.0,-1.0,-1.0,6.0,3.0,2.0,-1.0,-33.0,1650819933146952.0
7.0,-12.0,-13.0,-13.0,-8.0,-5.0,-3.0,26.0,1650819933146952.0
-4.0,-7.0,-15.0,-10.0,-4.0,-3.0,-3.0,-4.0,1650819933168043.0
-6.0,-1.0,2.0,5.0,-5.0,-5.0,-3.0,-10.0,1650819933168043.0
-5.0,3.0,9.0,5.0,4.0,3.0,1.0,17.0,1650819933169066.0
-8.0,-5.0,-1.0,-1.0,5.0,6.0,3.0,-21.0,1650819933169066.0
9.0,6.0,-9.0,-9.0,-3.0,-3.0,0.0,23.0,1650819933183071.0
-4.0,1.0,-6.0,-2.0,-1.0,0.0,3.0,-16.0,1650819933183071.0
-4.0,-2.0,-10.0,-9.0,-5.0,1.0,0.0,2.0,1650819933184030.0
14.0,-1.0,-1.0,7.0,6.0,4.0,-1.0,1.0,1650819933184030.0
-34.0,3.0,7.0,8.0,-3.0,-2.0,5.0,14.0,1650819933204914.0
16.0,4.0,-3.0,-7.0,-5.0,-5.0,-4.0,-23.0,1650819933204914.0
-4.0,10.0,5.0,2.0,6.0,4.0,-1.0,6.0,1650819933206843.0
-17.0,-21.0,-19.0,-14.0,-6.0,-3.0,-6.0,-40.0,1650819933206843.0
10.0,4.0,24.0,22.0,3.0,0.0,-2.0,15.0,1650819933227854.0
-3.0,-2.0,0.0,2.0,-4.0,-6.0,0.0,8.0,1650819933227854.0
-2.0,13.0,-8.0,-6.0,4.0,-2.0,2.0,-2.0,1650819933229781.0
3.0,-9.0,5.0,1.0,7.0,4.0,2.0,17.0,1650819933229781.0
-1.0,2.0,-6.0,-7.0,-5.0,-2.0,-3.0,-37.0,1650819933242746.0
-3.0,-3.0,4.0,5.0,1.0,5.0,2.0,-13.0,1650819933242746.0
1.0,-2.0,-19.0,-10.0,-1.0,-4.0,-2.0,-12.0,1650819933248796.0
5.0,4.0,3.0,7.0,3.0,2.0,2.0,27.0,1650819933248796.0
-1.0,-4.0,-8.0,0.0,8.0,7.0,2.0,2.0,1650819933264899.0
2.0,-4.0,-7.0,-14.0,-7.0,-5.0,-5.0,-17.0,1650819933264899.0
2.0,-10.0,-6.0,-5.0,-10.0,-10.0,-3.0,33.0,1650819933266865.0
0.0,5.0,20.0,13.0,-3.0,-8.0,-3.0,-39.0,1650819933266865.0
4.0,0.0,5.0,7.0,-3.0,1.0,0.0,-9.0,1650819933287880.0
-3.0,-1.0,-11.0,-3.0,7.0,5.0,2.0,23.0,1650819933287880.0
17.0,1.0,-2.0,-4.0,7.0,11.0,1.0,-6.0,1650819933289837.0
-11.0,5.0,1.0,-1.0,-2.0,0.0,-1.0,-9.0,1650819933289837.0
-3.0,1.0,3.0,0.0,-4.0,-5.0,-1.0,7.0,1650819933301843.0
9.0,-7.0,-6.0,-5.0,-5.0,-14.0,-2.0,39.0,1650819933301843.0
11.0,4.0,13.0,12.0,-4.0,2.0,-1.0,-5.0,1650819933308824.0
9.0,3.0,-3.0,-1.0,13.0,9.0,4.0,9.0,1650819933308824.0
2.0,-2.0,-7.0,-11.0,-6.0,2.0,4.0,26.0,1650819933325801.0
-8.0,-6.0,-2.0,5.0,-1.0,-5.0,-2.0,-8.0,1650819933325801.0
-9.0,4.0,3.0,6.0,-3.0,-6.0,-1.0,11.0,1650819933326803.0
-4.0,5.0,6.0,-1.0,-9.0,-5.0,-5.0,-23.0,1650819933326803.0
-5.0,-22.0,-22.0,-13.0,-6.0,0.0,-2.0,-15.0,1650819933348108.0
-2.0,4.0,15.0,18.0,4.0,-1.0,0.0,16.0,1650819933348108.0
-6.0,0.0,2.0,0.0,0.0,-3.0,-1.0,-20.0,1650819933349116.0
4.0,-1.0,-1.0,-9.0,-5.0,-4.0,1.0,14.0,1650819933349116.0
4.0,7.0,-13.0,-11.0,-3.0,-6.0,-7.0,-26.0,1650819933362160.0
-9.0,-2.0,-6.0,12.0,7.0,6.0,2.0,1.0,1650819933362160.0
-3.0,-1.0,6.0,4.0,2.0,5.0,2.0,-8.0,1650819933369207.0
6.0,1.0,-1.0,1.0,0.0,2.0,0.0,20.0,1650819933369207.0
1.0,2.0,-4.0,-13.0,-6.0,-3.0,-6.0,-19.0,1650819933385437.0
-4.0,8.0,-2.0,-7.0,3.0,0.0,1.0,-1.0,1650819933385437.0
0.0,-9.0,-10.0,-11.0,-4.0,-3.0,-1.0,24.0,1650819933387360.0
12.0,1.0,-7.0,1.0,-4.0,0.0,1.0,9.0,1650819933387360.0
6.0,-8.0,17.0,10.0,3.0,5.0,4.0,-5.0,1650819933414873.0
0.0,-3.0,-3.0,-8.0,-5.0,-2.0,1.0,13.0,1650819933414873.0
-7.0,5.0,17.0,8.0,0.0,-4.0,-3.0,-12.0,1650819933422919.0
-10.0,-12.0,-23.0,-9.0,-2.0,-6.0,-2.0,-1.0,1650819933422919.0
27.0,9.0,6.0,11.0,4.0,3.0,2.0,7.0,1650819933423878.0
-5.0,0.0,11.0,0.0,-2.0,3.0,1.0,-15.0,1650819933423878.0
-3.0,-4.0,-15.0,-10.0,-6.0,-4.0,2.0,8.0,1650819933428868.0
-2.0,18.0,6.0,12.0,7.0,4.0,-1.0,-7.0,1650819933428868.0
-10.0,-16.0,-19.0,-9.0,2.0,3.0,3.0,3.0,1650819933444928.0
0.0,6.0,10.0,-6.0,-7.0,-5.0,-2.0,7.0,1650819933444928.0
-3.0,1.0,4.0,11.0,-2.0,0.0,-2.0,-13.0,1650819933446856.0
-9.0,-1.0,-14.0,-17.0,-4.0,-2.0,-1.0,-7.0,1650819933446856.0
0.0,2.0,9.0,12.0,5.0,-6.0,0.0,30.0,1650819933467804.0
-6.0,6.0,0.0,3.0,2.0,4.0,-3.0,-28.0,1650819933467804.0
3.0,-8.0,-11.0,-14.0,2.0,5.0,1.0,12.0,1650819933469830.0
4.0,5.0,11.0,8.0,2.0,0.0,-4.0,-20.0,1650819933469830.0
-24.0,0.0,9.0,5.0,0.0,-1.0,-2.0,-36.0,1650819933481920.0
2.0,-1.0,3.0,1.0,0.0,1.0,3.0,17.0,1650819933481920.0
8.0,3.0,1.0,-2.0,-7.0,-7.0,-2.0,-19.0,1650819933488902.0
0.0,-10.0,-16.0,-6.0,-4.0,-4.0,0.0,13.0,1650819933488902.0
1.0,2.0,0.0,-6.0,-1.0,0.0,1.0,10.0,1650819933504961.0
-3.0,-2.0,-6.0,-7.0,-2.0,-2.0,-4.0,-11.0,1650819933504961.0
0.0,7.0,17.0,17.0,12.0,13.0,1.0,0.0,1650819933506932.0
1.0,-4.0,0.0,-8.0,0.0,1.0,1.0,1.0,1650819933506932.0
0.0,2.0,3.0,-3.0,-3.0,-2.0,-1.0,0.0,1650819933528075.0
-2.0,-5.0,4.0,4.0,0.0,-1.0,-2.0,-1.0,1650819933528075.0
0.0,0.0,0.0,3.0,1.0,-6.0,-3.0,5.0,1650819933529032.0
-1.0,-9.0,-1.0,-5.0,-17.0,-11.0,0.0,-9.0,1650819933529032.0
-5.0,-10.0,-10.0,-6.0,7.0,8.0,-1.0,11.0,1650819933542037.0
0.0,-4.0,-12.0,-2.0,7.0,5.0,1.0,1.0,1650819933542037.0
0.0,3.0,13.0,6.0,1.0,3.0,0.0,-4.0,1650819933549021.0
-3.0,-7.0,2.0,0.0,-2.0,-3.0,1.0,0.0,1650819933549021.0
2.0,3.0,-4.0,-2.0,-9.0,-6.0,-3.0,-4.0,1650819933565616.0
3.0,-2.0,1.0,1.0,-5.0,-7.0,-3.0,-7.0,1650819933565616.0
-2.0,-1.0,-6.0,-6.0,3.0,-2.0,1.0,5.0,1650819933567167.0
-4.0,-3.0,13.0,16.0,4.0,3.0,-2.0,-3.0,1650819933567167.0
7.0,1.0,0.0,0.0,2.0,5.0,4.0,13.0,1650819933588302.0
-1.0,-1.0,-20.0,-19.0,-7.0,1.0,0.0,-4.0,1650819933588302.0
-5.0,-6.0,-6.0,-10.0,-7.0,-6.0,-1.0,-3.0,1650819933589305.0
-4.0,3.0,2.0,5.0,3.0,-1.0,-3.0,-4.0,1650819933589305.0
0.0,1.0,1.0,7.0,-4.0,-8.0,-1.0,-5.0,1650819933601337.0
-1.0,-3.0,11.0,9.0,8.0,1.0,0.0,-1.0,1650819933601337.0
0.0,0.0,4.0,1.0,-4.0,3.0,2.0,14.0,1650819933610425.0
-3.0,-1.0,-3.0,-1.0,11.0,14.0,0.0,-24.0,1650819933610425.0
3.0,5.0,4.0,0.0,2.0,-1.0,0.0,3.0,1650819933625652.0
0.0,1.0,-3.0,-3.0,-9.0,-4.0,-1.0,3.0,1650819933625652.0
-4.0,0.0,-5.0,0.0,2.0,-5.0,-3.0,-4.0,1650819933626649.0
1.0,1.0,2.0,-2.0,-10.0,-3.0,-2.0,9.0,1650819933626649.0
-1.0,2.0,-2.0,-1.0,1.0,-2.0,0.0,-3.0,1650819933647651.0
-1.0,-3.0,0.0,6.0,0.0,0.0,-3.0,-4.0,1650819933647651.0
1.0,-2.0,-4.0,-4.0,-7.0,-5.0,1.0,10.0,1650819933647651.0
-1.0,1.0,-2.0,-2.0,-1.0,-2.0,0.0,-12.0,1650819933647651.0
-1.0,4.0,4.0,2.0,3.0,1.0,-2.0,-4.0,1650819933670074.0
1.0,-1.0,0.0,3.0,3.0,4.0,4.0,6.0,1650819933670074.0
0.0,-1.0,-1.0,-4.0,-1.0,0.0,0.0,-4.0,1650819933671013.0
3.0,-3.0,-5.0,-4.0,0.0,2.0,0.0,10.0,1650819933671013.0
-3.0,-1.0,-1.0,-3.0,-5.0,-7.0,-5.0,-6.0,1650819933684975.0
-3.0,0.0,3.0,-3.0,-7.0,-10.0,-3.0,-4.0,1650819933684975.0
-1.0,1.0,-1.0,-1.0,1.0,-1.0,-1.0,-6.0,1650819933692016.0
-2.0,1.0,4.0,7.0,15.0,17.0,5.0,6.0,1650819933692016.0
0.0,-3.0,-4.0,-7.0,-3.0,7.0,0.0,-1.0,1650819933707126.0
1.0,3.0,0.0,1.0,7.0,8.0,2.0,5.0,1650819933707126.0
0.0,-1.0,-5.0,-7.0,-12.0,-14.0,-4.0,-5.0,1650819933708060.0
0.0,2.0,-1.0,-2.0,-12.0,-17.0,-6.0,3.0,1650819933708060.0
-2.0,-1.0,0.0,2.0,3.0,3.0,1.0,-2.0,1650819933730260.0
0.0,-5.0,-2.0,1.0,4.0,5.0,1.0,-2.0,1650819933730260.0
-2.0,0.0,2.0,0.0,3.0,-2.0,-2.0,-4.0,1650819933731192.0
2.0,-2.0,-8.0,-7.0,-15.0,-10.0,-2.0,4.0,1650819933731192.0
-1.0,-2.0,-1.0,1.0,0.0,3.0,0.0,-1.0,1650819933744863.0
1.0,-1.0,-4.0,3.0,13.0,12.0,1.0,0.0,1650819933744863.0
0.0,2.0,2.0,-1.0,7.0,3.0,1.0,-1.0,1650819933745794.0
0.0,0.0,1.0,-7.0,-9.0,-6.0,-1.0,3.0,1650819933745794.0
-1.0,-1.0,2.0,0.0,-5.0,-1.0,0.0,1.0,1650819933766916.0
1.0,2.0,4.0,3.0,3.0,3.0,3.0,0.0,1650819933766916.0
-2.0,-1.0,-4.0,-8.0,0.0,3.0,-1.0,-2.0,1650819933767847.0
-4.0,0.0,6.0,10.0,-2.0,-6.0,-1.0,3.0,1650819933767847.0
5.0,0.0,5.0,2.0,-6.0,-10.0,-4.0,-2.0,1650819933789878.0
-3.0,-3.0,-12.0,-8.0,-5.0,-1.0,-1.0,0.0,1650819933789878.0
-1.0,0.0,-7.0,-8.0,0.0,4.0,1.0,-3.0,1650819933790838.0
-3.0,-1.0,-10.0,-6.0,2.0,2.0,-1.0,1.0,1650819933790838.0
-1.0,-3.0,-6.0,-3.0,-7.0,-7.0,-2.0,0.0,1650819933804868.0
2.0,1.0,12.0,10.0,-1.0,0.0,-2.0,1.0,1650819933804868.0
-1.0,-1.0,1.0,5.0,7.0,7.0,-1.0,-1.0,1650819933805809.0
1.0,3.0,-1.0,-1.0,4.0,6.0,2.0,1.0,1650819933805809.0
-1.0,-1.0,-5.0,-3.0,0.0,-4.0,0.0,1.0,1650819933827290.0
0.0,-1.0,-2.0,-1.0,-7.0,-7.0,-1.0,-2.0,1650819933827290.0
1.0,3.0,-2.0,-1.0,-6.0,-2.0,1.0,0.0,1650819933828001.0
1.0,1.0,5.0,3.0,13.0,12.0,2.0,-1.0,1650819933828001.0
-1.0,1.0,0.0,-1.0,4.0,-1.0,-2.0,0.0,1650819933850072.0
-3.0,0.0,-1.0,-2.0,-9.0,-16.0,-5.0,-3.0,1650819933850072.0
0.0,-3.0,-2.0,-3.0,-5.0,1.0,-3.0,-1.0,1650819933850072.0
1.0,-3.0,-8.0,-13.0,-7.0,-2.0,-1.0,0.0,1650819933850072.0
-2.0,-3.0,-3.0,3.0,6.0,2.0,1.0,1.0,1650819933865135.0
1.0,5.0,8.0,4.0,4.0,7.0,3.0,2.0,1650819933865135.0
1.0,-5.0,-5.0,-2.0,0.0,0.0,0.0,-1.0,1650819933865135.0
-1.0,-5.0,0.0,6.0,0.0,-7.0,-2.0,-1.0,1650819933865135.0
-1.0,-1.0,-3.0,-4.0,-9.0,-3.0,-1.0,-1.0,1650819933887457.0
0.0,0.0,-8.0,-12.0,5.0,2.0,0.0,-2.0,1650819933887457.0
-1.0,2.0,8.0,8.0,-1.0,2.0,1.0,-1.0,1650819933888388.0
-1.0,0.0,0.0,-1.0,-1.0,-2.0,0.0,-2.0,1650819933888388.0
-1.0,-1.0,8.0,3.0,2.0,2.0,0.0,0.0,1650819933909480.0
-3.0,0.0,4.0,0.0,-6.0,0.0,-1.0,0.0,1650819933909480.0
5.0,2.0,0.0,4.0,5.0,4.0,2.0,0.0,1650819933910425.0
-3.0,-2.0,0.0,-3.0,-3.0,-4.0,-4.0,-2.0,1650819933910425.0
1.0,1.0,-4.0,-3.0,-4.0,-7.0,-2.0,-2.0,1650819933924441.0
-2.0,0.0,-3.0,-4.0,7.0,8.0,2.0,1.0,1650819933924441.0
-2.0,4.0,0.0,5.0,3.0,2.0,0.0,0.0,1650819933925372.0
1.0,-4.0,6.0,0.0,-7.0,-6.0,0.0,1.0,1650819933925372.0
-2.0,-2.0,-4.0,4.0,-3.0,-1.0,-1.0,-3.0,1650819933947670.0
2.0,1.0,0.0,3.0,4.0,3.0,1.0,1.0,1650819933947670.0
2.0,-5.0,1.0,-5.0,-3.0,-3.0,-2.0,1.0,1650819933947670.0
0.0,0.0,-1.0,0.0,-6.0,-7.0,-1.0,0.0,1650819933947670.0
-1.0,-1.0,2.0,1.0,4.0,1.0,-2.0,1.0,1650819933969927.0
-2.0,-2.0,-1.0,-1.0,-1.0,3.0,-1.0,0.0,1650819933969927.0
3.0,-1.0,2.0,0.0,2.0,0.0,1.0,0.0,1650819933970859.0
-2.0,-3.0,-2.0,-7.0,0.0,-1.0,2.0,0.0,1650819933970859.0
-4.0,-9.0,-4.0,-3.0,-1.0,-2.0,-2.0,-2.0,1650819933985039.0
3.0,-1.0,0.0,2.0,0.0,1.0,-1.0,-2.0,1650819933985039.0
-2.0,1.0,6.0,3.0,-3.0,-2.0,-2.0,0.0,1650819933985039.0
1.0,4.0,4.0,6.0,2.0,2.0,1.0,1.0,1650819933985039.0
-2.0,-5.0,-7.0,-8.0,6.0,6.0,1.0,1.0,1650819934007569.0
-1.0,-2.0,-9.0,-6.0,-8.0,-9.0,-2.0,-1.0,1650819934007569.0
-4.0,-6.0,-8.0,-6.0,1.0,-2.0,0.0,0.0,1650819934008027.0
1.0,7.0,16.0,12.0,2.0,3.0,0.0,1.0,1650819934008027.0
2.0,5.0,6.0,0.0,-2.0,-1.0,1.0,0.0,1650819934029923.0
-1.0,-2.0,-8.0,-4.0,0.0,-1.0,-3.0,-2.0,1650819934029923.0
0.0,-2.0,1.0,3.0,-1.0,3.0,0.0,-1.0,1650819934030888.0
0.0,-3.0,-3.0,-2.0,0.0,-1.0,-2.0,0.0,1650819934030888.0
1.0,1.0,6.0,4.0,4.0,3.0,1.0,0.0,1650819934044884.0
-2.0,1.0,2.0,-1.0,-9.0,-10.0,-2.0,-1.0,1650819934044884.0
-1.0,2.0,-7.0,-7.0,3.0,0.0,-4.0,0.0,1650819934045830.0
0.0,-3.0,-6.0,-4.0,1.0,3.0,-2.0,-1.0,1650819934045830.0
0.0,3.0,7.0,5.0,-7.0,-4.0,0.0,0.0,1650819934067636.0
1.0,-3.0,-3.0,0.0,1.0,-2.0,0.0,0.0,1650819934067636.0
-2.0,1.0,-2.0,-6.0,4.0,5.0,2.0,2.0,1650819934067636.0
-2.0,-5.0,-4.0,7.0,-2.0,2.0,1.0,-1.0,1650819934067636.0
0.0,2.0,-9.0,-8.0,-4.0,-1.0,0.0,-1.0,1650819934089881.0
-2.0,-1.0,6.0,5.0,1.0,-1.0,0.0,-1.0,1650819934089881.0
0.0,0.0,-3.0,-2.0,-2.0,-5.0,-2.0,-1.0,1650819934090841.0
1.0,-1.0,-7.0,-9.0,0.0,-1.0,-2.0,1.0,1650819934090841.0
-4.0,3.0,10.0,1.0,-1.0,6.0,0.0,-1.0,1650819934104871.0
-1.0,-4.0,-1.0,1.0,-7.0,-6.0,-3.0,0.0,1650819934104871.0
-2.0,4.0,0.0,4.0,4.0,-5.0,-2.0,-1.0,1650819934104871.0
-4.0,-4.0,-5.0,-9.0,1.0,5.0,0.0,-1.0,1650819934104871.0
6.0,-5.0,-14.0,0.0,-1.0,-2.0,2.0,-2.0,1650819934126907.0
-1.0,2.0,7.0,4.0,0.0,0.0,0.0,-2.0,1650819934126907.0
0.0,1.0,5.0,5.0,-3.0,2.0,0.0,-2.0,1650819934127838.0
-1.0,2.0,-7.0,-10.0,1.0,0.0,-2.0,0.0,1650819934127838.0
-3.0,-6.0,1.0,4.0,2.0,-4.0,-2.0,0.0,1650819934150070.0
1.0,2.0,0.0,-4.0,1.0,-1.0,-1.0,0.0,1650819934150070.0
-2.0,-3.0,-5.0,2.0,-13.0,-9.0,-3.0,0.0,1650819934150070.0
2.0,2.0,6.0,5.0,5.0,4.0,2.0,-1.0,1650819934150070.0
-2.0,5.0,3.0,1.0,8.0,9.0,1.0,0.0,1650819934164116.0
2.0,2.0,17.0,13.0,2.0,0.0,1.0,0.0,1650819934164116.0
1.0,1.0,-15.0,-18.0,-3.0,-1.0,0.0,0.0,1650819934172146.0
2.0,-1.0,3.0,5.0,-5.0,-5.0,-3.0,-3.0,1650819934172146.0
-10.0,-3.0,-6.0,0.0,-7.0,-4.0,0.0,-1.0,1650819934194862.0
-2.0,-2.0,0.0,-3.0,-2.0,-3.0,-1.0,0.0,1650819934194862.0
0.0,0.0,6.0,5.0,4.0,4.0,0.0,1.0,1650819934195861.0
1.0,2.0,5.0,5.0,1.0,1.0,-2.0,0.0,1650819934195861.0
2.0,3.0,-14.0,-16.0,0.0,-3.0,-2.0,-1.0,1650819934209927.0
1.0,-3.0,3.0,10.0,3.0,8.0,2.0,-2.0,1650819934209927.0
0.0,-1.0,5.0,2.0,-1.0,0.0,1.0,0.0,1650819934210883.0
-3.0,-5.0,-10.0,-8.0,-2.0,-7.0,1.0,-2.0,1650819934210883.0
1.0,3.0,5.0,1.0,0.0,2.0,0.0,-2.0,1650819934224930.0
-1.0,-1.0,-8.0,-10.0,-6.0,-1.0,-3.0,-1.0,1650819934224930.0
-5.0,-11.0,-7.0,0.0,1.0,-4.0,-2.0,-3.0,1650819934225911.0
5.0,4.0,6.0,0.0,-2.0,-4.0,0.0,0.0,1650819934225911.0
-1.0,-2.0,-7.0,-5.0,-1.0,-1.0,-2.0,-1.0,1650819934247017.0
-1.0,-1.0,-8.0,-2.0,4.0,8.0,0.0,-1.0,1650819934247017.0
-1.0,1.0,2.0,1.0,4.0,4.0,3.0,-2.0,1650819934247948.0
-2.0,-2.0,-7.0,-9.0,-4.0,-4.0,-1.0,-1.0,1650819934247948.0
-6.0,0.0,4.0,4.0,-3.0,-10.0,-3.0,-1.0,1650819934269863.0
6.0,3.0,2.0,-5.0,-2.0,-1.0,-1.0,3.0,1650819934269863.0
4.0,-2.0,1.0,6.0,-5.0,-4.0,-2.0,-1.0,1650819934270866.0
-13.0,-7.0,1.0,3.0,6.0,7.0,1.0,1.0,1650819934270866.0
2.0,-3.0,-15.0,-8.0,3.0,5.0,1.0,1.0,1650819934284928.0
-3.0,2.0,-7.0,-9.0,-1.0,-3.0,-2.0,0.0,1650819934284928.0
0.0,1.0,3.0,3.0,-1.0,-5.0,-1.0,0.0,1650819934284928.0
3.0,1.0,1.0,3.0,-2.0,-3.0,0.0,0.0,1650819934284928.0
1.0,0.0,10.0,1.0,-6.0,1.0,0.0,0.0,1650819934307629.0
-5.0,-2.0,-7.0,-4.0,2.0,4.0,0.0,-2.0,1650819934307629.0
1.0,-1.0,-1.0,1.0,-3.0,0.0,1.0,-1.0,1650819934307629.0
-1.0,-1.0,-1.0,-3.0,1.0,2.0,0.0,0.0,1650819934307629.0
0.0,0.0,7.0,9.0,2.0,-3.0,0.0,-2.0,1650819934329858.0
0.0,0.0,-2.0,-3.0,-6.0,-8.0,-3.0,0.0,1650819934329858.0
-2.0,4.0,-5.0,-9.0,-4.0,-5.0,-3.0,-2.0,1650819934330855.0
0.0,-7.0,-2.0,4.0,-3.0,0.0,-2.0,-1.0,1650819934330855.0
0.0,-5.0,3.0,9.0,-2.0,0.0,1.0,-1.0,1650819934344987.0
-2.0,3.0,6.0,3.0,11.0,5.0,1.0,-2.0,1650819934344987.0
-1.0,0.0,0.0,1.0,0.0,4.0,0.0,0.0,1650819934344987.0
1.0,1.0,0.0,-2.0,-5.0,-8.0,0.0,1.0,1650819934344987.0
0.0,3.0,-8.0,-6.0,-4.0,-5.0,-2.0,0.0,1650819934366843.0
0.0,-3.0,2.0,9.0,-2.0,0.0,-1.0,-1.0,1650819934366843.0
0.0,1.0,-1.0,-2.0,1.0,-1.0,1.0,1.0,1650819934367775.0
3.0,3.0,3.0,1.0,11.0,12.0,3.0,1.0,1650819934367775.0
0.0,3.0,2.0,0.0,-1.0,0.0,1.0,1.0,1650819934397761.0
-3.0,-7.0,-3.0,-5.0,-9.0,-9.0,-3.0,-1.0,1650819934397761.0
-2.0,-4.0,-7.0,-8.0,-5.0,-8.0,-5.0,-3.0,1650819934398721.0
-2.0,-1.0,2.0,4.0,-3.0,-1.0,-1.0,-3.0,1650819934398721.0
2.0,3.0,6.0,2.0,7.0,11.0,4.0,1.0,1650819934404703.0
0.0,-2.0,-11.0,-10.0,-2.0,-2.0,1.0,0.0,1650819934404703.0
-2.0,-3.0,-2.0,3.0,-6.0,-8.0,-3.0,-2.0,1650819934405684.0
-2.0,6.0,2.0,-5.0,-2.0,-4.0,-4.0,-2.0,1650819934405684.0
8.0,-3.0,14.0,17.0,-1.0,3.0,0.0,-1.0,1650819934427767.0
-2.0,-6.0,-16.0,-18.0,5.0,9.0,2.0,0.0,1650819934427767.0
0.0,7.0,11.0,16.0,3.0,3.0,0.0,0.0,1650819934428698.0
-1.0,-3.0,-6.0,-8.0,-9.0,-10.0,-2.0,-1.0,1650819934428698.0
-4.0,0.0,0.0,-2.0,-3.0,-8.0,-2.0,-2.0,1650819934449941.0
-2.0,-1.0,2.0,3.0,2.0,1.0,2.0,0.0,1650819934449941.0
-1.0,3.0,4.0,2.0,2.0,6.0,2.0,-1.0,1650819934450889.0
0.0,-1.0,-2.0,1.0,5.0,3.0,0.0,1.0,1650819934450889.0
-1.0,0.0,-4.0,-5.0,-4.0,-5.0,-3.0,-1.0,1650819934464892.0
-1.0,-2.0,1.0,3.0,-6.0,-7.0,-2.0,-2.0,1650819934464892.0
-1.0,-1.0,0.0,-5.0,1.0,6.0,1.0,1.0,1650819934472653.0
1.0,1.0,-4.0,-1.0,1.0,8.0,0.0,-1.0,1650819934472653.0
-3.0,-3.0,-3.0,4.0,6.0,-4.0,-1.0,-1.0,1650819934487022.0
2.0,1.0,-3.0,-8.0,-3.0,-2.0,-2.0,1.0,1650819934487022.0
0.0,-1.0,6.0,7.0,-1.0,-5.0,2.0,0.0,1650819934487954.0
4.0,1.0,-1.0,1.0,-5.0,-3.0,-1.0,-1.0,1650819934487954.0
-3.0,2.0,-3.0,-7.0,0.0,2.0,0.0,3.0,1650819934509879.0
0.0,-2.0,9.0,10.0,2.0,1.0,1.0,-2.0,1650819934509879.0
0.0,-2.0,-9.0,-7.0,-2.0,-1.0,-1.0,-1.0,1650819934510809.0
-1.0,0.0,0.0,1.0,-4.0,-6.0,-1.0,0.0,1650819934510809.0
-1.0,-2.0,2.0,-6.0,-2.0,-1.0,-1.0,-1.0,1650819934533966.0
0.0,4.0,4.0,4.0,0.0,0.0,0.0,0.0,1650819934533966.0
-2.0,-4.0,-4.0,-2.0,3.0,2.0,-3.0,-1.0,1650819934534897.0
4.0,2.0,-1.0,-3.0,-1.0,-1.0,1.0,1.0,1650819934534897.0
1.0,1.0,1.0,3.0,1.0,-1.0,0.0,-1.0,1650819934547013.0
-2.0,0.0,1.0,0.0,6.0,6.0,1.0,0.0,1650819934547013.0
0.0,-1.0,2.0,-3.0,1.0,-3.0,-1.0,0.0,1650819934548013.0
-5.0,-5.0,-10.0,-6.0,-2.0,-1.0,-2.0,-1.0,1650819934548013.0
3.0,-1.0,4.0,3.0,1.0,1.0,0.0,1.0,1650819934569928.0
-1.0,-3.0,-2.0,2.0,0.0,1.0,1.0,0.0,1650819934569928.0
-2.0,0.0,-1.0,-3.0,-2.0,-7.0,-4.0,-2.0,1650819934570858.0
1.0,-1.0,1.0,3.0,2.0,-1.0,-1.0,0.0,1650819934570858.0
-4.0,-1.0,-11.0,-9.0,-6.0,-1.0,0.0,-2.0,1650819934584888.0
1.0,5.0,10.0,12.0,3.0,2.0,0.0,-2.0,1650819934584888.0
1.0,0.0,-2.0,-3.0,-1.0,-2.0,-1.0,0.0,1650819934585819.0
-5.0,-3.0,8.0,10.0,-1.0,-2.0,-2.0,-2.0,1650819934585819.0
1.0,1.0,6.0,-3.0,1.0,0.0,-1.0,-1.0,1650819934607044.0
0.0,-3.0,-11.0,-5.0,-1.0,0.0,-5.0,-2.0,1650819934607044.0
0.0,4.0,4.0,6.0,5.0,3.0,1.0,1.0,1650819934607989.0
0.0,-2.0,-8.0,-12.0,-6.0,-4.0,-2.0,1.0,1650819934607989.0
-1.0,1.0,1.0,0.0,-5.0,-5.0,-2.0,-1.0,1650819934630110.0
-1.0,1.0,9.0,6.0,-5.0,-3.0,-1.0,1.0,1650819934630110.0
0.0,-3.0,1.0,2.0,2.0,5.0,1.0,0.0,1650819934630110.0
1.0,0.0,-1.0,-1.0,6.0,8.0,3.0,3.0,1650819934630110.0
-1.0,-3.0,-4.0,0.0,9.0,2.0,1.0,1.0,1650819934644420.0
-1.0,0.0,-1.0,0.0,-4.0,-4.0,-1.0,-2.0,1650819934644420.0
-2.0,-2.0,-8.0,-8.0,-3.0,-1.0,0.0,-3.0,1650819934652656.0
0.0,2.0,9.0,6.0,6.0,8.0,1.0,-3.0,1650819934652656.0
0.0,0.0,-8.0,0.0,-8.0,-6.0,-2.0,-3.0,1650819934675659.0
0.0,-2.0,1.0,0.0,0.0,-4.0,-1.0,1.0,1650819934675659.0
2.0,1.0,2.0,-1.0,-2.0,-2.0,0.0,-1.0,1650819934676658.0
-1.0,-1.0,-4.0,-1.0,-1.0,-3.0,0.0,-1.0,1650819934676658.0
-1.0,2.0,-2.0,-3.0,-1.0,2.0,-1.0,0.0,1650819934689691.0
-2.0,1.0,-4.0,-6.0,-6.0,-4.0,-2.0,-1.0,1650819934689691.0
-2.0,-2.0,0.0,1.0,0.0,-1.0,0.0,-1.0,1650819934690622.0
0.0,-1.0,1.0,0.0,4.0,0.0,-2.0,0.0,1650819934690622.0
2.0,0.0,2.0,-2.0,-2.0,4.0,2.0,0.0,1650819934703653.0
-1.0,1.0,-2.0,4.0,0.0,-3.0,-1.0,-1.0,1650819934703653.0
0.0,-2.0,3.0,3.0,3.0,4.0,-1.0,-2.0,1650819934712574.0
0.0,-2.0,-3.0,1.0,-3.0,-4.0,-1.0,-1.0,1650819934712574.0
0.0,-2.0,-5.0,-11.0,-3.0,-3.0,-5.0,-2.0,1650819934726823.0
1.0,5.0,5.0,3.0,-1.0,-1.0,-1.0,0.0,1650819934726823.0
-3.0,-13.0,-6.0,4.0,1.0,0.0,0.0,-2.0,1650819934727756.0
0.0,-1.0,-6.0,-7.0,2.0,6.0,0.0,-1.0,1650819934727756.0
-2.0,-1.0,2.0,3.0,-2.0,0.0,2.0,0.0,1650819934749869.0
2.0,0.0,1.0,0.0,-3.0,-5.0,-3.0,-1.0,1650819934749869.0
-1.0,0.0,-5.0,-5.0,-8.0,-6.0,-1.0,0.0,1650819934750827.0
1.0,3.0,8.0,6.0,-2.0,-3.0,-2.0,-1.0,1650819934750827.0
-3.0,-6.0,-11.0,-4.0,7.0,12.0,0.0,0.0,1650819934764451.0
0.0,-3.0,-1.0,-2.0,2.0,2.0,1.0,-1.0,1650819934764451.0
-3.0,2.0,0.0,-4.0,-3.0,-4.0,-4.0,-1.0,1650819934772429.0
-2.0,-2.0,1.0,1.0,-5.0,-5.0,-2.0,0.0,1650819934772429.0
1.0,0.0,1.0,5.0,-2.0,-4.0,-1.0,-1.0,1650819934787594.0
1.0,0.0,-5.0,-5.0,3.0,3.0,3.0,0.0,1650819934787594.0
0.0,0.0,-1.0,3.0,9.0,8.0,3.0,2.0,1650819934788001.0
-2.0,-1.0,-1.0,-2.0,2.0,1.0,1.0,-2.0,1650819934788001.0
0.0,-1.0,-5.0,-8.0,-13.0,-8.0,-3.0,-2.0,1650819934809282.0
-2.0,-2.0,-3.0,0.0,1.0,4.0,0.0,-1.0,1650819934809282.0
0.0,0.0,-3.0,0.0,6.0,2.0,1.0,1.0,1650819934810211.0
-1.0,2.0,1.0,2.0,-3.0,-6.0,-5.0,0.0,1650819934810211.0
1.0,0.0,3.0,2.0,1.0,0.0,0.0,1.0,1650819934824495.0
-2.0,-3.0,-7.0,0.0,-7.0,-3.0,-2.0,-1.0,1650819934824495.0
-1.0,0.0,-1.0,-4.0,-2.0,1.0,-1.0,0.0,1650819934832659.0
0.0,-2.0,-1.0,-2.0,0.0,1.0,-1.0,-1.0,1650819934832659.0
-2.0,-1.0,4.0,4.0,-1.0,-5.0,-1.0,-3.0,1650819934846785.0
-2.0,-8.0,-6.0,-7.0,-1.0,-6.0,-2.0,-1.0,1650819934846785.0
0.0,3.0,3.0,2.0,5.0,9.0,2.0,-1.0,1650819934847716.0
-1.0,0.0,6.0,5.0,5.0,13.0,5.0,2.0,1650819934847716.0
-2.0,-7.0,-8.0,0.0,-3.0,-4.0,-1.0,-1.0,1650819934869925.0
-1.0,2.0,-1.0,-6.0,-3.0,-6.0,-2.0,-2.0,1650819934869925.0
1.0,-2.0,-1.0,-2.0,-10.0,-13.0,-4.0,-3.0,1650819934870858.0
-1.0,2.0,-1.0,3.0,-3.0,-6.0,-1.0,-1.0,1650819934870858.0
0.0,1.0,5.0,4.0,8.0,10.0,3.0,0.0,1650819934883891.0
1.0,0.0,-3.0,-4.0,5.0,7.0,3.0,0.0,1650819934883891.0
1.0,1.0,-1.0,-1.0,-6.0,-5.0,-1.0,0.0,1650819934891869.0
0.0,1.0,0.0,1.0,-2.0,-2.0,-4.0,-2.0,1650819934891869.0
-1.0,-1.0,-8.0,-7.0,-2.0,1.0,0.0,0.0,1650819934907590.0
-1.0,2.0,9.0,6.0,-3.0,-2.0,-2.0,-1.0,1650819934907590.0
2.0,6.0,2.0,2.0,7.0,2.0,0.0,1.0,1650819934907779.0
-1.0,-3.0,-5.0,-8.0,-7.0,-4.0,-1.0,-1.0,1650819934907779.0
0.0,3.0,1.0,0.0,-1.0,-1.0,-1.0,1.0,1650819934929888.0
-1.0,-3.0,-3.0,1.0,3.0,1.0,1.0,0.0,1650819934929888.0
-1.0,-1.0,-2.0,-7.0,-3.0,-2.0,-3.0,-1.0,1650819934930892.0
0.0,0.0,1.0,-3.0,-2.0,0.0,1.0,-1.0,1650819934930892.0
-1.0,0.0,6.0,8.0,-3.0,-3.0,-2.0,-1.0,1650819934943933.0
0.0,2.0,-1.0,2.0,3.0,-1.0,-2.0,-1.0,1650819934943933.0
0.0,-1.0,4.0,1.0,3.0,1.0,0.0,1.0,1650819934952656.0
0.0,-1.0,-6.0,-4.0,1.0,2.0,-1.0,-1.0,1650819934952656.0
-3.0,-2.0,-3.0,-6.0,-4.0,-5.0,-3.0,-2.0,1650819934967670.0
1.0,2.0,8.0,3.0,-10.0,-6.0,-1.0,-1.0,1650819934967670.0
1.0,-1.0,-7.0,0.0,4.0,7.0,2.0,1.0,1650819934967670.0
-1.0,-1.0,5.0,7.0,13.0,8.0,1.0,2.0,1650819934967670.0
0.0,1.0,-5.0,-9.0,-1.0,1.0,1.0,0.0,1650819934989776.0
-2.0,-2.0,-1.0,-4.0,-10.0,-7.0,-2.0,-3.0,1650819934989776.0
-2.0,-1.0,-1.0,0.0,-9.0,-10.0,-3.0,-1.0,1650819934990736.0
0.0,0.0,2.0,4.0,3.0,2.0,1.0,0.0,1650819934990736.0
2.0,4.0,5.0,2.0,7.0,4.0,2.0,0.0,1650819935013354.0
-1.0,-5.0,-8.0,-4.0,3.0,0.0,-1.0,0.0,1650819935013354.0
-1.0,-1.0,7.0,6.0,-5.0,-3.0,-3.0,-1.0,1650819935013354.0
0.0,-1.0,-4.0,-6.0,-12.0,-9.0,-2.0,-2.0,1650819935013354.0
0.0,1.0,4.0,1.0,3.0,0.0,-1.0,0.0,1650819935026934.0
-1.0,2.0,2.0,4.0,8.0,8.0,2.0,1.0,1650819935026934.0
0.0,-1.0,-5.0,-4.0,-1.0,0.0,0.0,-1.0,1650819935027865.0
-4.0,2.0,1.0,-3.0,-1.0,0.0,1.0,0.0,1650819935027865.0
7.0,-2.0,-1.0,1.0,-10.0,-6.0,-2.0,0.0,1650819935049935.0
-2.0,-1.0,-1.0,0.0,-6.0,-8.0,-4.0,-3.0,1650819935049935.0
0.0,-1.0,-2.0,-2.0,7.0,7.0,3.0,1.0,1650819935050873.0
3.0,0.0,-2.0,1.0,4.0,10.0,2.0,2.0,1650819935050873.0
-4.0,1.0,0.0,2.0,3.0,4.0,4.0,1.0,1650819935080152.0
0.0,-1.0,-2.0,-7.0,-5.0,-4.0,-2.0,-1.0,1650819935080152.0
-1.0,-2.0,-2.0,-5.0,-5.0,-7.0,-4.0,-1.0,1650819935081083.0
-2.0,-4.0,-3.0,0.0,-5.0,-11.0,-2.0,-3.0,1650819935081083.0
-1.0,-2.0,0.0,2.0,-1.0,0.0,-1.0,-1.0,1650819935087094.0
0.0,2.0,-2.0,0.0,5.0,8.0,2.0,1.0,1650819935087094.0
-1.0,0.0,1.0,1.0,-1.0,-2.0,0.0,-3.0,1650819935088066.0
-1.0,0.0,-1.0,-3.0,-4.0,-5.0,-2.0,-1.0,1650819935088066.0
0.0,3.0,0.0,-1.0,-1.0,0.0,-1.0,0.0,1650819935110168.0
0.0,-3.0,2.0,0.0,-1.0,-3.0,0.0,1.0,1650819935110168.0
-1.0,0.0,2.0,2.0,-3.0,0.0,-2.0,-1.0,1650819935110168.0
0.0,-2.0,-3.0,-3.0,-1.0,0.0,1.0,1.0,1650819935110168.0
1.0,1.0,-1.0,1.0,1.0,-2.0,0.0,0.0,1650819935132484.0
-2.0,4.0,-1.0,3.0,9.0,8.0,0.0,-1.0,1650819935132484.0
0.0,1.0,5.0,3.0,5.0,8.0,2.0,0.0,1650819935133445.0
-1.0,0.0,-4.0,-2.0,-4.0,-6.0,-2.0,-2.0,1650819935133445.0
-3.0,-2.0,0.0,-2.0,-3.0,-1.0,-2.0,0.0,1650819935146528.0
1.0,-2.0,-7.0,-6.0,-4.0,-2.0,-1.0,0.0,1650819935146528.0
-1.0,-2.0,-1.0,-3.0,-6.0,-6.0,-2.0,-2.0,1650819935154574.0
-2.0,-2.0,1.0,6.0,-2.0,-6.0,-2.0,-2.0,1650819935154574.0
-2.0,1.0,0.0,0.0,5.0,2.0,-1.0,-1.0,1650819935169690.0
0.0,-2.0,1.0,-2.0,1.0,5.0,0.0,0.0,1650819935169690.0
0.0,0.0,-10.0,-10.0,0.0,1.0,0.0,2.0,1650819935170622.0
0.0,-1.0,1.0,2.0,0.0,-3.0,0.0,-1.0,1650819935170622.0
-1.0,-5.0,-1.0,-2.0,-3.0,-4.0,-1.0,0.0,1650819935193327.0
-1.0,-3.0,-1.0,-1.0,-2.0,1.0,0.0,1.0,1650819935193327.0
-3.0,1.0,3.0,5.0,6.0,3.0,1.0,0.0,1650819935193327.0
0.0,-1.0,-3.0,-4.0,7.0,8.0,2.0,1.0,1650819935193327.0
0.0,-4.0,-2.0,-2.0,-2.0,-4.0,-2.0,0.0,1650819935207651.0
-1.0,0.0,1.0,1.0,-6.0,-9.0,-2.0,-3.0,1650819935207651.0
-1.0,-1.0,2.0,2.0,-7.0,-7.0,-1.0,-1.0,1650819935207651.0
1.0,1.0,2.0,2.0,8.0,8.0,2.0,2.0,1650819935207651.0
-2.0,2.0,0.0,-2.0,-1.0,0.0,-1.0,-1.0,1650819935229882.0
-6.0,-4.0,-1.0,2.0,4.0,3.0,-2.0,-1.0,1650819935229882.0
9.0,2.0,-1.0,0.0,-1.0,-1.0,1.0,2.0,1650819935230813.0
-1.0,-4.0,-4.0,-5.0,-4.0,-1.0,0.0,0.0,1650819935230813.0
1.0,2.0,1.0,3.0,-2.0,-3.0,-3.0,-2.0,1650819935252823.0
-1.0,1.0,1.0,-4.0,-7.0,-7.0,-3.0,-1.0,1650819935252823.0
-2.0,-4.0,-3.0,-3.0,-3.0,-4.0,-2.0,-1.0,1650819935253752.0
-1.0,0.0,3.0,2.0,0.0,-2.0,-1.0,1.0,1650819935253752.0
1.0,-1.0,-4.0,0.0,10.0,11.0,3.0,1.0,1650819935266781.0
3.0,3.0,2.0,-3.0,3.0,5.0,2.0,1.0,1650819935266781.0
-3.0,-5.0,-1.0,2.0,-7.0,-1.0,1.0,-1.0,1650819935267713.0
1.0,2.0,5.0,6.0,-5.0,-4.0,-2.0,-1.0,1650819935267713.0
-1.0,-2.0,2.0,3.0,4.0,-1.0,1.0,1.0,1650819935289882.0
2.0,0.0,-6.0,-8.0,-2.0,-4.0,-2.0,0.0,1650819935289882.0
-1.0,2.0,-2.0,-4.0,-3.0,-3.0,-1.0,-1.0,1650819935290810.0
-3.0,0.0,0.0,1.0,-1.0,1.0,0.0,-1.0,1650819935290810.0
-3.0,-2.0,-3.0,-3.0,6.0,7.0,1.0,-1.0,1650819935312935.0
1.0,0.0,11.0,12.0,4.0,2.0,0.0,-1.0,1650819935312935.0
0.0,-1.0,-3.0,-2.0,1.0,-2.0,-1.0,0.0,1650819935313867.0
-2.0,-2.0,-11.0,-11.0,-8.0,-1.0,-2.0,-1.0,1650819935313867.0
1.0,1.0,1.0,1.0,-1.0,0.0,0.0,0.0,1650819935326981.0
3.0,4.0,-1.0,1.0,2.0,-1.0,0.0,1.0,1650819935326981.0
-4.0,-3.0,-1.0,-4.0,-6.0,-7.0,-2.0,0.0,1650819935327980.0
0.0,0.0,1.0,5.0,-4.0,-6.0,-1.0,-1.0,1650819935327980.0
-3.0,-2.0,2.0,0.0,-1.0,5.0,0.0,-1.0,1650819935350146.0
-1.0,-1.0,-4.0,1.0,5.0,6.0,1.0,-1.0,1650819935350146.0
-2.0,-1.0,-2.0,-3.0,1.0,-1.0,0.0,-2.0,1650819935350146.0
-1.0,-2.0,0.0,2.0,-1.0,0.0,0.0,0.0,1650819935350146.0
1.0,1.0,1.0,0.0,-3.0,-3.0,1.0,1.0,1650819935373183.0
1.0,-1.0,0.0,-3.0,-4.0,-3.0,-1.0,0.0,1650819935373183.0
0.0,-1.0,-2.0,1.0,3.0,3.0,-1.0,-1.0,1650819935373183.0
1.0,-2.0,-2.0,-3.0,3.0,-1.0,-2.0,1.0,1650819935373183.0
-2.0,-4.0,-2.0,-5.0,-6.0,-7.0,-2.0,-3.0,1650819935387569.0
0.0,2.0,4.0,3.0,-5.0,-1.0,-1.0,-1.0,1650819935387569.0
0.0,1.0,5.0,6.0,5.0,1.0,1.0,1.0,1650819935387741.0
-1.0,0.0,-5.0,-5.0,4.0,5.0,-3.0,-2.0,1650819935387741.0
-2.0,-4.0,-1.0,-1.0,-3.0,4.0,0.0,0.0,1650819935409926.0
-1.0,-1.0,-9.0,-8.0,1.0,-1.0,2.0,1.0,1650819935409926.0
-1.0,-1.0,4.0,5.0,-4.0,-2.0,-1.0,-1.0,1650819935410888.0
3.0,1.0,-1.0,-8.0,-2.0,-6.0,-2.0,-2.0,1650819935410888.0
1.0,3.0,6.0,5.0,3.0,0.0,-2.0,0.0,1650819935433744.0
-2.0,-3.0,-7.0,-2.0,-1.0,3.0,1.0,-1.0,1650819935433744.0
-3.0,-1.0,4.0,-2.0,-2.0,2.0,0.0,0.0,1650819935434027.0
4.0,1.0,-1.0,0.0,1.0,-3.0,1.0,-1.0,1650819935434027.0
-2.0,2.0,-4.0,-1.0,-3.0,-6.0,-1.0,1.0,1650819935447656.0
-2.0,-1.0,2.0,2.0,0.0,-1.0,0.0,-2.0,1650819935447656.0
3.0,-1.0,-2.0,-2.0,3.0,5.0,2.0,0.0,1650819935447656.0
-2.0,0.0,-2.0,-7.0,0.0,-1.0,2.0,-2.0,1650819935447656.0
1.0,-3.0,-3.0,0.0,-5.0,-7.0,-4.0,-2.0,1650819935469817.0
-3.0,0.0,2.0,3.0,-4.0,-5.0,-2.0,-1.0,1650819935469817.0
2.0,1.0,1.0,-1.0,4.0,4.0,0.0,-1.0,1650819935470768.0
-1.0,1.0,6.0,5.0,0.0,1.0,2.0,2.0,1650819935470768.0
-1.0,-3.0,-4.0,-8.0,-4.0,-5.0,-2.0,-1.0,1650819935492824.0
-3.0,-2.0,-4.0,-6.0,-3.0,-4.0,-3.0,-2.0,1650819935492824.0
0.0,3.0,1.0,8.0,-3.0,3.0,-1.0,0.0,1650819935493766.0
3.0,0.0,-1.0,1.0,8.0,4.0,2.0,0.0,1650819935493766.0
0.0,4.0,1.0,-1.0,-2.0,-4.0,1.0,2.0,1650819935507892.0
0.0,-7.0,-1.0,4.0,2.0,-1.0,0.0,2.0,1650819935507892.0
-2.0,-2.0,-4.0,-5.0,-1.0,1.0,0.0,-2.0,1650819935508846.0
-3.0,-2.0,-3.0,-2.0,-6.0,-3.0,-3.0,-1.0,1650819935508846.0
-4.0,-11.0,-1.0,3.0,1.0,3.0,2.0,0.0,1650819935530026.0
1.0,1.0,6.0,2.0,2.0,0.0,-1.0,8.0,1650819935530026.0
-1.0,-3.0,-13.0,-10.0,-3.0,-2.0,-3.0,-7.0,1650819935530026.0
1.0,0.0,1.0,1.0,-1.0,1.0,-2.0,-4.0,1650819935530026.0
1.0,8.0,3.0,4.0,-3.0,-3.0,-4.0,-3.0,1650819935553998.0
-1.0,-3.0,-2.0,-4.0,-8.0,-7.0,-1.0,0.0,1650819935553998.0
1.0,-2.0,0.0,-3.0,-5.0,-4.0,0.0,6.0,1650819935553998.0
-5.0,2.0,0.0,5.0,11.0,12.0,-1.0,-5.0,1650819935553998.0
0.0,2.0,0.0,2.0,13.0,9.0,2.0,-4.0,1650819935566887.0
3.0,-2.0,1.0,-2.0,4.0,9.0,10.0,13.0,1650819935566887.0
-2.0,-3.0,0.0,-2.0,-8.0,-8.0,-3.0,2.0,1650819935574873.0
-1.0,4.0,-1.0,-1.0,-13.0,-14.0,-5.0,-13.0,1650819935574873.0
2.0,1.0,-3.0,-7.0,-8.0,-7.0,0.0,5.0,1650819935589928.0
9.0,5.0,1.0,0.0,4.0,-1.0,-4.0,-7.0,1650819935589928.0
-3.0,4.0,1.0,5.0,0.0,0.0,2.0,4.0,1650819935590868.0
-7.0,-14.0,0.0,-4.0,3.0,5.0,-1.0,-4.0,1650819935590868.0
0.0,-6.0,-2.0,-3.0,-1.0,0.0,-14.0,-17.0,1650819935612826.0
-1.0,5.0,0.0,2.0,1.0,0.0,5.0,7.0,1650819935612826.0
1.0,0.0,-3.0,-3.0,-2.0,0.0,10.0,11.0,1650819935613796.0
6.0,-9.0,-4.0,-9.0,-3.0,-3.0,3.0,11.0,1650819935613796.0
0.0,8.0,-1.0,-2.0,-1.0,1.0,-1.0,-4.0,1650819935635751.0
-4.0,-4.0,3.0,6.0,3.0,1.0,-7.0,-8.0,1650819935635751.0
0.0,-2.0,3.0,3.0,1.0,-4.0,-6.0,-4.0,1650819935635751.0
5.0,15.0,1.0,2.0,-5.0,-5.0,3.0,-3.0,1650819935635751.0
-3.0,-1.0,-6.0,-5.0,3.0,7.0,1.0,1.0,1650819935649727.0
-2.0,9.0,-1.0,0.0,1.0,1.0,-2.0,-9.0,1650819935649727.0
1.0,-20.0,5.0,10.0,5.0,8.0,2.0,2.0,1650819935650698.0
-2.0,1.0,0.0,4.0,5.0,2.0,-15.0,-14.0,1650819935650698.0
-2.0,4.0,1.0,4.0,0.0,-6.0,-3.0,-4.0,1650819935672667.0
-3.0,1.0,-3.0,-12.0,-11.0,-5.0,35.0,54.0,1650819935672667.0
0.0,1.0,-4.0,-13.0,-10.0,-5.0,-6.0,-13.0,1650819935673637.0
2.0,-2.0,2.0,0.0,-4.0,-7.0,-2.0,11.0,1650819935673637.0
-1.0,12.0,6.0,8.0,3.0,4.0,-5.0,-4.0,1650819935686628.0
-7.0,-5.0,-2.0,0.0,1.0,0.0,-21.0,-56.0,1650819935686628.0
2.0,-5.0,-5.0,-2.0,-1.0,-2.0,10.0,37.0,1650819935694580.0
0.0,-2.0,0.0,-3.0,-1.0,4.0,2.0,4.0,1650819935694580.0
1.0,6.0,5.0,-1.0,-8.0,-6.0,-5.0,-2.0,1650819935709608.0
0.0,-2.0,-4.0,2.0,0.0,-3.0,-7.0,-6.0,1650819935709608.0
1.0,4.0,7.0,1.0,7.0,10.0,0.0,-11.0,1650819935710537.0
1.0,6.0,-2.0,1.0,2.0,1.0,2.0,4.0,1650819935710537.0
-8.0,-33.0,-7.0,-3.0,-3.0,-4.0,5.0,5.0,1650819935733306.0
1.0,-6.0,0.0,0.0,-9.0,-6.0,-1.0,7.0,1650819935733306.0
1.0,12.0,-2.0,-3.0,-1.0,-3.0,-8.0,-18.0,1650819935733306.0
-1.0,2.0,1.0,3.0,1.0,1.0,-8.0,-12.0,1650819935733306.0
0.0,0.0,1.0,2.0,-1.0,-2.0,25.0,54.0,1650819935746919.0
-2.0,-9.0,-6.0,-5.0,6.0,10.0,-4.0,-21.0,1650819935746919.0
-7.0,-7.0,-5.0,-2.0,3.0,4.0,-15.0,-17.0,1650819935754452.0
1.0,1.0,5.0,4.0,-1.0,-2.0,-1.0,0.0,1650819935754452.0
0.0,3.0,-3.0,-5.0,-3.0,-6.0,15.0,17.0,1650819935769923.0
6.0,4.0,-1.0,-7.0,-10.0,-6.0,4.0,21.0,1650819935769923.0
4.0,10.0,0.0,2.0,3.0,3.0,1.0,-5.0,1650819935770879.0
-9.0,-5.0,1.0,2.0,5.0,1.0,-7.0,-14.0,1650819935770879.0
-1.0,1.0,0.0,-3.0,-1.0,2.0,-16.0,-32.0,1650819935792971.0
-1.0,5.0,0.0,1.0,4.0,5.0,1.0,4.0,1650819935792971.0
-6.0,-25.0,-6.0,-1.0,-2.0,-3.0,0.0,-5.0,1650819935793902.0
-1.0,-1.0,-1.0,-1.0,-7.0,-4.0,1.0,1.0,1650819935793902.0
6.0,-1.0,1.0,-3.0,3.0,-1.0,3.0,8.0,1650819935806948.0
0.0,6.0,2.0,3.0,-4.0,-7.0,-3.0,7.0,1650819935806948.0
-3.0,5.0,0.0,1.0,0.0,0.0,-2.0,4.0,1650819935814903.0
0.0,1.0,0.0,-4.0,3.0,7.0,5.0,-4.0,1650819935814903.0
2.0,3.0,0.0,-2.0,-1.0,5.0,7.0,9.0,1650819935830132.0
-3.0,-5.0,-1.0,-1.0,-1.0,-4.0,-9.0,-13.0,1650819935830132.0
0.0,4.0,1.0,3.0,-1.0,-6.0,-2.0,2.0,1650819935837238.0
-1.0,-6.0,-2.0,0.0,-3.0,-3.0,7.0,10.0,1650819935837238.0
3.0,0.0,-3.0,0.0,2.0,4.0,-5.0,0.0,1650819935853269.0
1.0,-4.0,-4.0,-3.0,0.0,1.0,-6.0,-17.0,1650819935853269.0
-10.0,1.0,-4.0,-4.0,-5.0,-5.0,5.0,22.0,1650819935853269.0
3.0,3.0,3.0,4.0,0.0,3.0,4.0,-25.0,1650819935853269.0
0.0,-2.0,0.0,3.0,1.0,4.0,-4.0,-10.0,1650819935866303.0
0.0,0.0,-1.0,-5.0,-2.0,-3.0,0.0,-4.0,1650819935866303.0
-2.0,2.0,1.0,-1.0,-5.0,-9.0,-2.0,3.0,1650819935874343.0
8.0,-1.0,-3.0,-2.0,-4.0,-2.0,4.0,29.0,1650819935874343.0
-2.0,0.0,-2.0,-3.0,9.0,9.0,1.0,-4.0,1650819935889926.0
5.0,4.0,9.0,10.0,10.0,9.0,4.0,6.0,1650819935889926.0
-1.0,1.0,0.0,0.0,2.0,2.0,-1.0,-8.0,1650819935890859.0
-9.0,-6.0,2.0,3.0,0.0,-2.0,-1.0,0.0,1650819935890859.0
0.0,1.0,-6.0,-8.0,-13.0,-14.0,-6.0,-2.0,1650819935912967.0
-3.0,1.0,1.0,8.0,7.0,3.0,3.0,9.0,1650819935912967.0
2.0,-2.0,4.0,-3.0,3.0,4.0,0.0,-9.0,1650819935913910.0
2.0,-5.0,-7.0,-11.0,-6.0,-7.0,-1.0,7.0,1650819935913910.0
7.0,-5.0,-9.0,-3.0,-6.0,-4.0,2.0,32.0,1650819935934872.0
-17.0,-1.0,-3.0,-3.0,2.0,5.0,-5.0,-64.0,1650819935934872.0
1.0,2.0,11.0,11.0,10.0,6.0,5.0,6.0,1650819935935873.0
-5.0,-5.0,-12.0,-3.0,1.0,0.0,0.0,-9.0,1650819935935873.0
-4.0,0.0,11.0,9.0,-4.0,-7.0,-5.0,-9.0,1650819935949996.0
4.0,-8.0,-6.0,-5.0,-15.0,-14.0,-6.0,18.0,1650819935949996.0
10.0,7.0,5.0,-2.0,-2.0,1.0,3.0,0.0,1650819935949996.0
-5.0,-2.0,-18.0,-21.0,2.0,0.0,0.0,7.0,1650819935949996.0
-13.0,-10.0,2.0,9.0,-4.0,-2.0,-7.0,-28.0,1650819935973058.0
11.0,1.0,2.0,2.0,-4.0,0.0,0.0,19.0,1650819935973058.0
2.0,4.0,-2.0,-2.0,-4.0,-3.0,2.0,-6.0,1650819935974020.0
10.0,4.0,13.0,7.0,5.0,5.0,-2.0,2.0,1650819935974020.0
-2.0,-1.0,-5.0,-9.0,7.0,4.0,4.0,7.0,1650819935995169.0
1.0,3.0,4.0,3.0,5.0,4.0,0.0,4.0,1650819935995169.0
-5.0,-5.0,-9.0,-5.0,-8.0,-5.0,-4.0,2.0,1650819935996100.0
-7.0,-3.0,5.0,3.0,-13.0,-14.0,0.0,11.0,1650819935996100.0
6.0,2.0,-3.0,1.0,8.0,11.0,2.0,4.0,1650819936010124.0
0.0,1.0,10.0,9.0,10.0,10.0,3.0,11.0,1650819936010124.0
0.0,-1.0,-17.0,-15.0,0.0,-3.0,-1.0,-10.0,1650819936010124.0
-5.0,-5.0,-5.0,-1.0,-11.0,-4.0,-3.0,2.0,1650819936010124.0
-3.0,-1.0,11.0,15.0,-6.0,-10.0,-4.0,-22.0,1650819936031853.0
-2.0,5.0,13.0,6.0,6.0,5.0,1.0,7.0,1650819936031853.0
-1.0,-3.0,-9.0,-15.0,1.0,8.0,6.0,51.0,1650819936032851.0
18.0,-1.0,3.0,4.0,-4.0,-3.0,-5.0,-57.0,1650819936032851.0
-27.0,2.0,-4.0,-6.0,-1.0,-4.0,-1.0,21.0,1650819936054989.0
-3.0,-8.0,-9.0,-6.0,-17.0,-13.0,-5.0,-7.0,1650819936054989.0
4.0,-1.0,22.0,14.0,-1.0,-4.0,2.0,19.0,1650819936055920.0
-2.0,19.0,-22.0,-10.0,10.0,9.0,2.0,14.0,1650819936055920.0
11.0,-2.0,11.0,12.0,9.0,9.0,2.0,-8.0,1650819936070073.0
-6.0,-10.0,-6.0,-10.0,4.0,4.0,3.0,-4.0,1650819936070073.0
-1.0,-7.0,2.0,12.0,2.0,4.0,-1.0,-14.0,1650819936070073.0
-3.0,1.0,2.0,5.0,-3.0,-5.0,-1.0,18.0,1650819936070073.0
-2.0,1.0,-22.0,-28.0,-15.0,-10.0,-7.0,-23.0,1650819936093356.0
6.0,-1.0,-5.0,1.0,-10.0,-9.0,-1.0,41.0,1650819936093356.0
-11.0,1.0,1.0,4.0,-1.0,-10.0,-10.0,-74.0,1650819936093356.0
0.0,-3.0,15.0,13.0,16.0,13.0,5.0,11.0,1650819936093356.0
6.0,7.0,11.0,6.0,6.0,12.0,6.0,21.0,1650819936115670.0
-1.0,-4.0,-11.0,-7.0,2.0,6.0,5.0,4.0,1650819936115670.0
0.0,0.0,1.0,-4.0,-8.0,-6.0,-2.0,-7.0,1650819936115670.0
-4.0,-4.0,3.0,-1.0,-1.0,-2.0,-3.0,2.0,1650819936115670.0
-9.0,-5.0,-2.0,-6.0,-11.0,-16.0,-6.0,-14.0,1650819936129862.0
0.0,1.0,-17.0,-8.0,-4.0,0.0,-3.0,1.0,1650819936129862.0
9.0,-1.0,-8.0,-1.0,-6.0,-2.0,-3.0,1.0,1650819936130794.0
-18.0,-6.0,6.0,3.0,-2.0,-4.0,1.0,-6.0,1650819936130794.0
1.0,-1.0,-2.0,5.0,10.0,12.0,10.0,55.0,1650819936153058.0
-6.0,3.0,8.0,-1.0,6.0,4.0,-7.0,-90.0,1650819936153058.0
-2.0,3.0,3.0,3.0,2.0,3.0,5.0,31.0,1650819936154029.0
6.0,1.0,1.0,-7.0,-2.0,-2.0,-6.0,-22.0,1650819936154029.0
1.0,-10.0,-25.0,-18.0,-14.0,-14.0,-5.0,1.0,1650819936174869.0
-10.0,0.0,13.0,13.0,-1.0,-8.0,-3.0,-8.0,1650819936174869.0
0.0,3.0,5.0,10.0,2.0,3.0,0.0,-3.0,1650819936175869.0
-16.0,-2.0,-7.0,-11.0,3.0,-2.0,0.0,8.0,1650819936175869.0
17.0,0.0,-10.0,-12.0,3.0,6.0,-7.0,-28.0,1650819936189898.0
3.0,3.0,-6.0,-9.0,-4.0,-4.0,1.0,23.0,1650819936189898.0
16.0,0.0,13.0,15.0,-5.0,-8.0,-2.0,16.0,1650819936190857.0
3.0,4.0,7.0,5.0,0.0,7.0,4.0,14.0,1650819936190857.0
-5.0,-1.0,-23.0,-19.0,5.0,3.0,1.0,-33.0,1650819936212883.0
1.0,-8.0,3.0,4.0,7.0,8.0,5.0,37.0,1650819936212883.0
0.0,9.0,-4.0,-16.0,5.0,3.0,-4.0,-34.0,1650819936213847.0
9.0,-7.0,11.0,29.0,-2.0,-2.0,2.0,12.0,1650819936213847.0
-16.0,2.0,9.0,7.0,-8.0,-6.0,2.0,16.0,1650819936234870.0
3.0,3.0,7.0,4.0,-4.0,-3.0,-2.0,-30.0,1650819936234870.0
-17.0,2.0,5.0,-6.0,-1.0,2.0,1.0,10.0,1650819936235882.0
6.0,1.0,-22.0,-23.0,2.0,3.0,-3.0,-7.0,1650819936235882.0
-1.0,-9.0,22.0,30.0,4.0,-4.0,-3.0,-4.0,1650819936249899.0
8.0,-1.0,-6.0,-4.0,-8.0,-8.0,1.0,2.0,1650819936249899.0
6.0,0.0,1.0,13.0,4.0,1.0,3.0,33.0,1650819936250856.0
-15.0,1.0,-4.0,-16.0,-3.0,-2.0,-5.0,-55.0,1650819936250856.0
2.0,3.0,-15.0,-19.0,-9.0,-7.0,-1.0,16.0,1650819936273329.0
-20.0,-1.0,20.0,23.0,6.0,8.0,0.0,4.0,1650819936273329.0
21.0,0.0,-5.0,-3.0,7.0,9.0,-3.0,-16.0,1650819936273329.0
10.0,6.0,14.0,15.0,-2.0,-9.0,1.0,25.0,1650819936273329.0
-2.0,-1.0,8.0,2.0,-4.0,-6.0,-1.0,-8.0,1650819936295610.0
11.0,2.0,-2.0,-6.0,8.0,5.0,4.0,31.0,1650819936295610.0
-14.0,-1.0,-7.0,-7.0,6.0,12.0,-3.0,-47.0,1650819936296581.0
7.0,-7.0,-35.0,-27.0,-5.0,1.0,2.0,29.0,1650819936296581.0
22.0,8.0,24.0,24.0,-2.0,-3.0,4.0,8.0,1650819936309636.0
-31.0,-3.0,0.0,10.0,4.0,-2.0,-6.0,-35.0,1650819936309636.0
0.0,-6.0,-13.0,-14.0,-7.0,-7.0,0.0,31.0,1650819936310659.0
5.0,-4.0,-10.0,-15.0,-7.0,-7.0,-4.0,-13.0,1650819936310659.0
-10.0,1.0,9.0,18.0,5.0,2.0,-1.0,-7.0,1650819936331803.0
18.0,1.0,6.0,-3.0,-8.0,-6.0,0.0,35.0,1650819936331803.0
-14.0,-8.0,-17.0,-7.0,8.0,4.0,-2.0,-48.0,1650819936339781.0
-3.0,1.0,7.0,-3.0,-1.0,6.0,4.0,11.0,1650819936339781.0
-3.0,4.0,1.0,9.0,7.0,8.0,0.0,13.0,1650819936354865.0
11.0,3.0,10.0,8.0,-1.0,-2.0,2.0,13.0,1650819936354865.0
-4.0,-7.0,-8.0,-9.0,-8.0,-8.0,7.0,25.0,1650819936355867.0
5.0,7.0,5.0,0.0,-3.0,-7.0,-9.0,-62.0,1650819936355867.0
3.0,4.0,-17.0,-24.0,1.0,3.0,2.0,4.0,1650819936369894.0
-8.0,-12.0,-12.0,-5.0,-3.0,1.0,-5.0,-30.0,1650819936369894.0
-6.0,0.0,3.0,5.0,1.0,-2.0,1.0,35.0,1650819936370852.0
14.0,2.0,27.0,34.0,8.0,6.0,3.0,22.0,1650819936370852.0
-13.0,3.0,5.0,-9.0,-3.0,-5.0,2.0,-6.0,1650819936391918.0
2.0,0.0,-15.0,-24.0,-6.0,-5.0,-6.0,-22.0,1650819936391918.0
-1.0,-4.0,-23.0,-15.0,-10.0,-8.0,3.0,38.0,1650819936392849.0
2.0,5.0,19.0,16.0,4.0,4.0,0.0,-39.0,1650819936392849.0
-7.0,-6.0,4.0,6.0,0.0,-5.0,-5.0,-1.0,1650819936414974.0
1.0,3.0,-7.0,-7.0,15.0,19.0,4.0,-17.0,1650819936414974.0
0.0,1.0,11.0,11.0,0.0,6.0,1.0,-11.0,1650819936415943.0
-9.0,-3.0,-1.0,-8.0,-6.0,-9.0,-1.0,18.0,1650819936415943.0
7.0,2.0,-23.0,-14.0,-10.0,-11.0,-1.0,11.0,1650819936430071.0
4.0,-10.0,-21.0,-20.0,-17.0,-18.0,-6.0,33.0,1650819936430071.0
3.0,8.0,21.0,21.0,3.0,-1.0,-3.0,-17.0,1650819936430071.0
6.0,2.0,15.0,15.0,7.0,4.0,6.0,22.0,1650819936430071.0
0.0,3.0,24.0,21.0,4.0,1.0,-2.0,-12.0,1650819936452014.0
3.0,0.0,-13.0,-15.0,1.0,4.0,3.0,21.0,1650819936452014.0
-14.0,-13.0,-38.0,-43.0,-15.0,-2.0,-5.0,-28.0,1650819936452944.0
-12.0,1.0,14.0,23.0,10.0,3.0,2.0,15.0,1650819936452944.0
19.0,-3.0,-11.0,-18.0,2.0,4.0,1.0,6.0,1650819936474872.0
-7.0,2.0,14.0,22.0,-11.0,-13.0,-7.0,-10.0,1650819936474872.0
20.0,10.0,21.0,8.0,4.0,-2.0,5.0,2.0,1650819936475881.0
-6.0,-7.0,-20.0,-16.0,-2.0,7.0,2.0,10.0,1650819936475881.0
1.0,-2.0,1.0,5.0,8.0,2.0,-2.0,-22.0,1650819936489902.0
4.0,-6.0,-8.0,-5.0,-2.0,1.0,5.0,26.0,1650819936489902.0
-6.0,4.0,20.0,25.0,4.0,4.0,-3.0,-15.0,1650819936490858.0
-1.0,0.0,-13.0,-25.0,-6.0,-7.0,-5.0,19.0,1650819936490858.0
5.0,-4.0,7.0,2.0,-5.0,1.0,-2.0,-3.0,1650819936511921.0
-5.0,-5.0,-16.0,-8.0,-4.0,-6.0,-3.0,-10.0,1650819936511921.0
-4.0,0.0,5.0,11.0,1.0,-3.0,2.0,25.0,1650819936512864.0
13.0,-1.0,6.0,4.0,0.0,3.0,0.0,-19.0,1650819936512864.0
-11.0,1.0,-6.0,-2.0,2.0,4.0,2.0,4.0,1650819936535079.0
10.0,7.0,16.0,8.0,-2.0,-4.0,-1.0,-9.0,1650819936535079.0
-10.0,2.0,4.0,-2.0,-4.0,-4.0,1.0,18.0,1650819936536011.0
8.0,-2.0,-6.0,-6.0,-7.0,-6.0,-1.0,-4.0,1650819936536011.0
-7.0,-5.0,-25.0,-19.0,-4.0,-4.0,0.0,-4.0,1650819936548859.0
6.0,6.0,16.0,16.0,8.0,3.0,1.0,5.0,1650819936548859.0
1.0,0.0,9.0,-4.0,10.0,10.0,-1.0,-2.0,1650819936557705.0
-8.0,-4.0,-30.0,-16.0,-14.0,-7.0,-1.0,2.0,1650819936557705.0
-3.0,-4.0,4.0,16.0,-6.0,-3.0,-2.0,-2.0,1650819936572630.0
0.0,5.0,3.0,-10.0,9.0,12.0,2.0,-5.0,1650819936572630.0
2.0,2.0,10.0,14.0,3.0,-6.0,-3.0,-11.0,1650819936572630.0
-9.0,-4.0,-14.0,-21.0,-2.0,1.0,0.0,7.0,1650819936572630.0
-1.0,-2.0,-11.0,-10.0,-8.0,-3.0,-2.0,-12.0,1650819936594892.0
5.0,2.0,10.0,12.0,-2.0,-7.0,-2.0,-5.0,1650819936594892.0
3.0,-1.0,-10.0,-5.0,-2.0,-5.0,0.0,22.0,1650819936595892.0
-12.0,-6.0,-17.0,-7.0,2.0,0.0,-6.0,-64.0,1650819936595892.0
0.0,-1.0,11.0,8.0,-4.0,1.0,-1.0,10.0,1650819936618244.0
-6.0,-3.0,8.0,-2.0,-3.0,-1.0,-2.0,-1.0,1650819936618244.0
4.0,6.0,12.0,1.0,6.0,5.0,0.0,5.0,1650819936618794.0
8.0,6.0,33.0,35.0,9.0,4.0,8.0,61.0,1650819936618794.0
1.0,0.0,-20.0,-33.0,1.0,3.0,-7.0,-79.0,1650819936631915.0
-17.0,-2.0,-8.0,2.0,-7.0,-2.0,-1.0,-4.0,1650819936631915.0
-5.0,-2.0,-2.0,4.0,-6.0,-3.0,3.0,-6.0,1650819936632847.0
10.0,1.0,3.0,6.0,1.0,-2.0,-4.0,-12.0,1650819936632847.0
2.0,-1.0,12.0,12.0,5.0,-1.0,-1.0,17.0,1650819936655025.0
4.0,1.0,-23.0,-27.0,-12.0,0.0,-2.0,-16.0,1650819936655025.0
-9.0,-4.0,-10.0,2.0,0.0,5.0,-1.0,-5.0,1650819936655956.0
2.0,-2.0,16.0,9.0,13.0,5.0,0.0,11.0,1650819936655956.0
6.0,5.0,14.0,3.0,7.0,3.0,5.0,18.0,1650819936668987.0
1.0,-8.0,-31.0,-18.0,-4.0,-4.0,0.0,20.0,1650819936668987.0
-18.0,-16.0,-34.0,-26.0,-19.0,-12.0,-11.0,-48.0,1650819936676966.0
-1.0,-1.0,8.0,5.0,-4.0,-3.0,-1.0,4.0,1650819936676966.0
5.0,0.0,15.0,18.0,5.0,2.0,1.0,13.0,1650819936691889.0
-5.0,7.0,40.0,35.0,15.0,5.0,4.0,8.0,1650819936691889.0
0.0,-4.0,-21.0,-29.0,-4.0,4.0,0.0,-9.0,1650819936692822.0
5.0,-10.0,-28.0,-16.0,-15.0,-8.0,-4.0,24.0,1650819936692822.0
-8.0,8.0,13.0,14.0,1.0,-1.0,-5.0,-39.0,1650819936715064.0
3.0,-2.0,-2.0,1.0,9.0,6.0,3.0,7.0,1650819936715064.0
2.0,-10.0,-6.0,-16.0,-6.0,-6.0,0.0,45.0,1650819936715995.0
-18.0,1.0,-1.0,-4.0,-5.0,-3.0,-9.0,-66.0,1650819936715995.0
9.0,-3.0,-9.0,-4.0,-3.0,-1.0,0.0,32.0,1650819936729026.0
2.0,3.0,12.0,16.0,7.0,3.0,0.0,-10.0,1650819936729026.0
1.0,6.0,9.0,3.0,2.0,-2.0,-3.0,2.0,1650819936745031.0
-9.0,-6.0,-6.0,-5.0,-10.0,-14.0,0.0,23.0,1650819936745031.0
-1.0,-2.0,0.0,3.0,-2.0,1.0,0.0,-1.0,1650819936752657.0
-2.0,1.0,-1.0,-7.0,6.0,8.0,-2.0,-3.0,1650819936752657.0
5.0,-2.0,-4.0,-3.0,7.0,9.0,6.0,3.0,1650819936752657.0
-1.0,-2.0,7.0,17.0,4.0,4.0,2.0,8.0,1650819936752657.0
0.0,0.0,2.0,-2.0,-6.0,-7.0,-4.0,-4.0,1650819936775079.0
-1.0,-2.0,-10.0,-10.0,-16.0,-18.0,-4.0,-2.0,1650819936775079.0
4.0,4.0,5.0,12.0,1.0,-2.0,-2.0,-3.0,1650819936776010.0
2.0,6.0,6.0,2.0,5.0,6.0,1.0,1.0,1650819936776010.0
-4.0,-6.0,-7.0,-11.0,11.0,13.0,4.0,8.0,1650819936788794.0
-3.0,-3.0,0.0,-4.0,-9.0,-7.0,-1.0,0.0,1650819936788794.0
3.0,2.0,5.0,7.0,-9.0,-12.0,-6.0,-13.0,1650819936797680.0
-1.0,0.0,-4.0,-6.0,1.0,4.0,1.0,6.0,1650819936797680.0
-2.0,0.0,-5.0,-7.0,-7.0,-2.0,2.0,7.0,1650819936811857.0
0.0,0.0,-6.0,1.0,7.0,2.0,-1.0,-1.0,1650819936811857.0
2.0,3.0,6.0,6.0,-1.0,-4.0,-2.0,-6.0,1650819936819931.0
-5.0,-4.0,-4.0,-7.0,-9.0,-4.0,1.0,2.0,1650819936819931.0
-3.0,-2.0,1.0,0.0,-3.0,-2.0,-3.0,2.0,1650819936835012.0
1.0,0.0,-1.0,-2.0,15.0,19.0,6.0,-2.0,1650819936835012.0
1.0,-1.0,1.0,5.0,-2.0,-7.0,-2.0,-2.0,1650819936835943.0
0.0,-1.0,0.0,2.0,3.0,3.0,3.0,6.0,1650819936835943.0
2.0,4.0,-2.0,-4.0,-6.0,-4.0,-2.0,0.0,1650819936849117.0
-3.0,-1.0,-1.0,-2.0,-6.0,-12.0,-2.0,-2.0,1650819936849117.0
-2.0,-5.0,-2.0,-2.0,-3.0,2.0,-1.0,0.0,1650819936857594.0
0.0,3.0,2.0,4.0,3.0,3.0,1.0,1.0,1650819936857594.0
-1.0,0.0,0.0,-5.0,-1.0,4.0,3.0,0.0,1650819936871923.0
1.0,1.0,-3.0,-2.0,-4.0,-4.0,-2.0,-2.0,1650819936871923.0
0.0,-1.0,0.0,1.0,2.0,1.0,2.0,-2.0,1650819936872854.0
-1.0,0.0,3.0,-2.0,-3.0,-5.0,-3.0,-2.0,1650819936872854.0
0.0,0.0,0.0,0.0,1.0,-1.0,3.0,2.0,1650819936894952.0
-3.0,-2.0,-1.0,-1.0,-3.0,1.0,-2.0,-1.0,1650819936894952.0
0.0,2.0,2.0,4.0,5.0,2.0,-2.0,-5.0,1650819936895901.0
0.0,-1.0,-2.0,-6.0,-7.0,-6.0,-2.0,1.0,1650819936895901.0
-1.0,-2.0,0.0,-2.0,-2.0,0.0,0.0,1.0,1650819936918269.0
-1.0,-3.0,-1.0,3.0,1.0,-2.0,-1.0,-3.0,1650819936918269.0
3.0,0.0,-1.0,-1.0,-1.0,1.0,2.0,-1.0,1650819936918794.0
-1.0,-1.0,-1.0,0.0,-2.0,0.0,1.0,0.0,1650819936918794.0
0.0,1.0,0.0,5.0,3.0,2.0,0.0,0.0,1650819936931828.0
0.0,0.0,-2.0,-2.0,-1.0,4.0,-1.0,-3.0,1650819936931828.0
-1.0,-2.0,-1.0,-4.0,-4.0,-3.0,0.0,-1.0,1650819936932765.0
0.0,-3.0,-1.0,5.0,12.0,8.0,1.0,3.0,1650819936932765.0
-1.0,-1.0,-1.0,-1.0,-5.0,-3.0,-3.0,-1.0,1650819936954961.0
0.0,0.0,-2.0,-5.0,-11.0,-9.0,-1.0,0.0,1650819936954961.0
-1.0,1.0,1.0,1.0,1.0,-3.0,-3.0,-1.0,1650819936955962.0
-1.0,0.0,1.0,-1.0,1.0,0.0,-5.0,-1.0,1650819936955962.0
0.0,-2.0,-3.0,1.0,11.0,4.0,1.0,0.0,1650819936977931.0
1.0,0.0,-3.0,-3.0,-2.0,4.0,2.0,1.0,1650819936977931.0
-1.0,0.0,1.0,3.0,-1.0,2.0,1.0,0.0,1650819936978864.0
0.0,-1.0,2.0,1.0,-6.0,-9.0,-2.0,0.0,1650819936978864.0
-2.0,-3.0,-4.0,-6.0,-6.0,-7.0,-2.0,0.0,1650819936991894.0
-2.0,-1.0,-3.0,-3.0,-4.0,-4.0,-2.0,-1.0,1650819936991894.0
1.0,-2.0,0.0,6.0,2.0,-1.0,0.0,-1.0,1650819936992826.0
0.0,0.0,-1.0,-7.0,9.0,14.0,3.0,1.0,1650819936992826.0
0.0,-1.0,0.0,2.0,3.0,5.0,-1.0,0.0,1650819937014990.0
1.0,1.0,2.0,4.0,-7.0,-5.0,0.0,1.0,1650819937014990.0
-1.0,-3.0,6.0,3.0,-2.0,-5.0,-3.0,-2.0,1650819937015926.0
0.0,1.0,-1.0,1.0,4.0,2.0,1.0,-1.0,1650819937015926.0
-1.0,-2.0,0.0,0.0,-1.0,-4.0,-1.0,-1.0,1650819937038080.0
0.0,1.0,-6.0,-5.0,-1.0,0.0,-1.0,-2.0,1650819937038080.0
1.0,3.0,6.0,0.0,-2.0,0.0,1.0,2.0,1650819937039081.0
-2.0,-1.0,0.0,3.0,-1.0,-8.0,-2.0,-2.0,1650819937039081.0
-2.0,-3.0,-9.0,-6.0,-6.0,1.0,-2.0,-3.0,1650819937052611.0
-1.0,0.0,8.0,3.0,-3.0,0.0,0.0,-2.0,1650819937052611.0
-2.0,-2.0,-19.0,-14.0,-2.0,0.0,-1.0,-4.0,1650819937052611.0
2.0,4.0,14.0,11.0,3.0,1.0,1.0,1.0,1650819937052611.0
1.0,1.0,-5.0,-6.0,-1.0,0.0,2.0,2.0,1650819937075673.0
0.0,-1.0,-1.0,1.0,6.0,-3.0,-2.0,0.0,1650819937075673.0
-2.0,0.0,3.0,6.0,-4.0,-1.0,-1.0,-1.0,1650819937075673.0
-3.0,-3.0,-11.0,-9.0,-4.0,4.0,1.0,0.0,1650819937075673.0
0.0,0.0,-1.0,-1.0,5.0,-2.0,0.0,0.0,1650819937098059.0
-1.0,1.0,10.0,13.0,0.0,1.0,-1.0,1.0,1650819937098059.0
-1.0,1.0,2.0,-1.0,3.0,0.0,0.0,1.0,1650819937098990.0
0.0,-3.0,5.0,4.0,-4.0,-5.0,-2.0,1.0,1650819937098990.0
-1.0,-1.0,-7.0,-5.0,5.0,5.0,-1.0,-3.0,1650819937112024.0
-3.0,-2.0,-1.0,-3.0,3.0,2.0,-1.0,-1.0,1650819937112024.0
-1.0,-1.0,-4.0,-2.0,-5.0,-4.0,1.0,1.0,1650819937112952.0
0.0,1.0,0.0,0.0,-4.0,-5.0,-1.0,-2.0,1650819937112952.0
0.0,0.0,3.0,6.0,-3.0,0.0,-1.0,-1.0,1650819937135129.0
0.0,0.0,1.0,0.0,3.0,2.0,1.0,-1.0,1650819937135129.0
-1.0,-1.0,1.0,4.0,7.0,8.0,0.0,0.0,1650819937136060.0
-1.0,1.0,-9.0,-12.0,-11.0,-10.0,-4.0,0.0,1650819937136060.0
0.0,3.0,4.0,4.0,-2.0,-8.0,-4.0,0.0,1650819937158271.0
0.0,-1.0,5.0,3.0,1.0,4.0,1.0,-1.0,1650819937158271.0
0.0,0.0,-1.0,0.0,9.0,11.0,5.0,1.0,1650819937158796.0
0.0,-4.0,-9.0,-4.0,2.0,0.0,-1.0,-2.0,1650819937158796.0
-1.0,0.0,4.0,0.0,-5.0,-5.0,0.0,-1.0,1650819937172654.0
-1.0,-1.0,-4.0,-5.0,-7.0,-9.0,-3.0,-1.0,1650819937172654.0
1.0,2.0,9.0,7.0,2.0,2.0,-2.0,1.0,1650819937172654.0
-1.0,-1.0,3.0,3.0,5.0,7.0,-1.0,0.0,1650819937172654.0
-1.0,-2.0,-9.0,-13.0,-5.0,-4.0,0.0,0.0,1650819937194872.0
-1.0,-3.0,0.0,2.0,2.0,-4.0,-1.0,0.0,1650819937194872.0
2.0,1.0,-2.0,-1.0,-5.0,0.0,0.0,-2.0,1650819937195871.0
0.0,-2.0,-10.0,-2.0,3.0,6.0,2.0,-1.0,1650819937195871.0
-1.0,-1.0,2.0,4.0,1.0,-4.0,-1.0,-2.0,1650819937217989.0
-1.0,1.0,3.0,-2.0,0.0,1.0,-1.0,-2.0,1650819937217989.0
0.0,2.0,-2.0,-4.0,2.0,0.0,0.0,1.0,1650819937218948.0
-1.0,-2.0,-2.0,-3.0,-3.0,-1.0,0.0,2.0,1650819937218948.0
-2.0,-1.0,3.0,5.0,-1.0,-1.0,1.0,0.0,1650819937231951.0
-1.0,-1.0,-3.0,-1.0,-4.0,-2.0,-2.0,-2.0,1650819937231951.0
-1.0,0.0,-2.0,-5.0,-2.0,-2.0,-1.0,-4.0,1650819937232883.0
-1.0,-1.0,2.0,2.0,-2.0,-2.0,-2.0,-1.0,1650819937232883.0
1.0,-4.0,1.0,2.0,-3.0,-7.0,-2.0,-2.0,1650819937255080.0
1.0,-1.0,-5.0,-5.0,-2.0,-1.0,1.0,2.0,1650819937255080.0
-2.0,0.0,5.0,6.0,7.0,13.0,3.0,2.0,1650819937256012.0
1.0,1.0,10.0,6.0,1.0,-1.0,2.0,0.0,1650819937256012.0
-1.0,-1.0,-8.0,-8.0,0.0,2.0,0.0,1.0,1650819937278297.0
-1.0,-3.0,-11.0,2.0,1.0,-5.0,-1.0,0.0,1650819937278297.0
-1.0,-3.0,-6.0,-6.0,-8.0,-8.0,-3.0,-1.0,1650819937278805.0
-1.0,-1.0,-3.0,-7.0,-5.0,-8.0,-2.0,1.0,1650819937278805.0
0.0,1.0,5.0,8.0,-2.0,-4.0,-3.0,1.0,1650819937292633.0
1.0,3.0,8.0,4.0,10.0,11.0,1.0,2.0,1650819937292633.0
-1.0,1.0,0.0,5.0,11.0,10.0,4.0,1.0,1650819937292633.0
0.0,2.0,3.0,-3.0,-2.0,-4.0,-3.0,-2.0,1650819937292633.0
-2.0,-4.0,-5.0,-4.0,-7.0,-3.0,-2.0,-2.0,1650819937314848.0
-1.0,1.0,-4.0,-5.0,-7.0,-5.0,-1.0,-1.0,1650819937314848.0
0.0,-3.0,-8.0,-9.0,-7.0,-9.0,-7.0,-2.0,1650819937315818.0
-2.0,1.0,4.0,4.0,-4.0,-3.0,0.0,-1.0,1650819937315818.0
0.0,2.0,8.0,11.0,10.0,9.0,4.0,2.0,1650819937337908.0
0.0,-4.0,-5.0,-2.0,6.0,8.0,0.0,0.0,1650819937337908.0
-1.0,-1.0,2.0,0.0,-3.0,-5.0,-1.0,0.0,1650819937338929.0
-1.0,1.0,0.0,1.0,-3.0,-3.0,-2.0,-1.0,1650819937338929.0
0.0,2.0,4.0,-2.0,-3.0,0.0,-1.0,-2.0,1650819937351934.0
-1.0,-1.0,0.0,-2.0,-4.0,-2.0,1.0,-1.0,1650819937351934.0
-3.0,-3.0,-1.0,2.0,-5.0,-8.0,-3.0,-2.0,1650819937360028.0
-1.0,0.0,-2.0,0.0,-1.0,0.0,0.0,0.0,1650819937360028.0
-3.0,-3.0,-8.0,-9.0,0.0,0.0,0.0,0.0,1650819937375665.0
-1.0,1.0,4.0,0.0,4.0,5.0,2.0,0.0,1650819937375665.0
1.0,2.0,4.0,6.0,10.0,4.0,1.0,1.0,1650819937375665.0
0.0,1.0,-11.0,-7.0,1.0,5.0,1.0,0.0,1650819937375665.0
1.0,0.0,-3.0,-6.0,-5.0,-2.0,-1.0,0.0,1650819937397937.0
-1.0,1.0,1.0,1.0,-5.0,-4.0,-1.0,-2.0,1650819937397937.0
-1.0,0.0,1.0,-2.0,-5.0,-3.0,-2.0,1.0,1650819937398864.0
0.0,-1.0,7.0,-1.0,2.0,3.0,0.0,0.0,1650819937398864.0
0.0,-3.0,-9.0,4.0,4.0,3.0,0.0,1.0,1650819937411894.0
-2.0,-6.0,-24.0,-21.0,-13.0,-9.0,-3.0,-3.0,1650819937411894.0
-1.0,1.0,8.0,6.0,-2.0,-5.0,-1.0,1.0,1650819937412826.0
1.0,3.0,5.0,4.0,3.0,1.0,-1.0,-1.0,1650819937412826.0
0.0,-1.0,4.0,6.0,4.0,6.0,0.0,-1.0,1650819937435620.0
-2.0,-4.0,5.0,3.0,0.0,0.0,-1.0,-1.0,1650819937435620.0
-1.0,-3.0,-18.0,-15.0,-12.0,-7.0,-2.0,-1.0,1650819937436556.0
-1.0,-3.0,-1.0,2.0,7.0,6.0,1.0,-1.0,1650819937436556.0
0.0,0.0,4.0,5.0,1.0,3.0,-1.0,0.0,1650819937457877.0
3.0,2.0,6.0,8.0,4.0,1.0,3.0,2.0,1650819937457877.0
1.0,3.0,2.0,-2.0,-3.0,-1.0,0.0,1.0,1650819937458808.0
-3.0,-5.0,-5.0,-3.0,-14.0,-12.0,-4.0,-1.0,1650819937458808.0
-3.0,-1.0,1.0,0.0,3.0,-1.0,-1.0,-2.0,1650819937471837.0
1.0,0.0,2.0,3.0,5.0,7.0,1.0,0.0,1650819937471837.0
0.0,-2.0,2.0,7.0,4.0,2.0,1.0,1.0,1650819937480877.0
1.0,0.0,-3.0,-5.0,-1.0,-2.0,-2.0,-1.0,1650819937480877.0
1.0,0.0,0.0,-3.0,-8.0,-6.0,-3.0,-1.0,1650819937495666.0
-1.0,2.0,-1.0,2.0,-7.0,-10.0,-5.0,-1.0,1650819937495666.0
0.0,-3.0,-4.0,-4.0,1.0,3.0,0.0,-2.0,1650819937496675.0
1.0,1.0,6.0,7.0,7.0,9.0,5.0,2.0,1650819937496675.0
1.0,-1.0,1.0,5.0,5.0,4.0,2.0,2.0,1650819937517789.0
-1.0,1.0,-5.0,-2.0,-4.0,-4.0,-2.0,-2.0,1650819937517789.0
0.0,1.0,0.0,-1.0,-5.0,-6.0,-1.0,-2.0,1650819937519813.0
0.0,0.0,5.0,6.0,-3.0,-4.0,-2.0,-3.0,1650819937519813.0
-1.0,1.0,6.0,6.0,1.0,0.0,0.0,-2.0,1650819937531821.0
-1.0,-1.0,-5.0,-9.0,1.0,1.0,1.0,0.0,1650819937531821.0
-1.0,-4.0,-6.0,-4.0,-4.0,-3.0,-2.0,-2.0,1650819937540730.0
-1.0,-2.0,-2.0,-3.0,-4.0,-9.0,-1.0,0.0,1650819937540730.0
1.0,4.0,2.0,1.0,2.0,8.0,1.0,1.0,1650819937554914.0
-1.0,-2.0,9.0,7.0,4.0,10.0,3.0,0.0,1650819937554914.0
-1.0,-1.0,-9.0,-8.0,3.0,1.0,1.0,1.0,1650819937556845.0
0.0,1.0,0.0,2.0,2.0,-1.0,-2.0,1.0,1650819937556845.0
-1.0,-3.0,-4.0,-9.0,-9.0,-10.0,-1.0,-1.0,1650819937577985.0
-2.0,0.0,2.0,-1.0,0.0,-3.0,-2.0,-2.0,1650819937577985.0
1.0,1.0,12.0,12.0,0.0,3.0,1.0,0.0,1650819937578943.0
-2.0,-4.0,-10.0,-8.0,-5.0,3.0,0.0,-2.0,1650819937578943.0
1.0,1.0,0.0,-2.0,1.0,2.0,2.0,1.0,1650819937591951.0
-1.0,0.0,3.0,2.0,1.0,-2.0,-2.0,-1.0,1650819937591951.0
-1.0,0.0,-12.0,-11.0,-4.0,-5.0,-2.0,-2.0,1650819937600859.0
0.0,-2.0,3.0,2.0,-2.0,-5.0,-2.0,-2.0,1650819937600859.0
-2.0,-1.0,-13.0,-11.0,-4.0,0.0,0.0,-1.0,1650819937615876.0
1.0,-3.0,1.0,2.0,-4.0,-4.0,-1.0,0.0,1650819937615876.0
-1.0,0.0,6.0,3.0,-2.0,-2.0,-1.0,0.0,1650819937616868.0
-2.0,-2.0,-4.0,1.0,10.0,12.0,3.0,0.0,1650819937616868.0
0.0,-1.0,-5.0,2.0,1.0,1.0,-1.0,0.0,1650819937638268.0
1.0,0.0,0.0,-6.0,-2.0,-7.0,-1.0,-1.0,1650819937638268.0
-1.0,-2.0,1.0,-4.0,-10.0,-6.0,-4.0,-2.0,1650819937639819.0
-2.0,-2.0,-3.0,2.0,-1.0,0.0,-1.0,-1.0,1650819937639819.0
-1.0,2.0,8.0,5.0,4.0,1.0,2.0,1.0,1650819937651826.0
0.0,-3.0,-8.0,0.0,2.0,-1.0,-1.0,2.0,1650819937651826.0
-2.0,0.0,-1.0,1.0,3.0,3.0,0.0,-1.0,1650819937660869.0
-2.0,0.0,-5.0,-10.0,-6.0,-4.0,-1.0,0.0,1650819937660869.0
0.0,-3.0,1.0,-2.0,-6.0,-2.0,1.0,-1.0,1650819937674912.0
1.0,2.0,0.0,0.0,0.0,2.0,-2.0,0.0,1650819937674912.0
-1.0,-1.0,-5.0,-6.0,7.0,7.0,1.0,0.0,1650819937676852.0
0.0,1.0,4.0,0.0,-2.0,-5.0,-1.0,-1.0,1650819937676852.0
-1.0,0.0,5.0,5.0,-2.0,-4.0,-2.0,-2.0,1650819937698090.0
-3.0,-1.0,-3.0,2.0,-1.0,0.0,0.0,0.0,1650819937698090.0
-1.0,-1.0,-1.0,0.0,-1.0,-3.0,-1.0,0.0,1650819937699090.0
-2.0,-8.0,-1.0,-3.0,3.0,-1.0,0.0,-2.0,1650819937699090.0
1.0,1.0,1.0,2.0,-3.0,-3.0,-3.0,0.0,1650819937711124.0
0.0,-1.0,-1.0,-1.0,-3.0,4.0,2.0,0.0,1650819937711124.0
2.0,-3.0,-2.0,-1.0,-1.0,-6.0,-1.0,-2.0,1650819937720871.0
-1.0,2.0,-1.0,0.0,-2.0,3.0,0.0,1.0,1650819937720871.0
0.0,-1.0,0.0,0.0,2.0,1.0,-1.0,-1.0,1650819937734853.0
2.0,-2.0,-6.0,-7.0,8.0,7.0,1.0,1.0,1650819937734853.0
0.0,1.0,9.0,7.0,2.0,1.0,0.0,0.0,1650819937736850.0
1.0,-2.0,-7.0,-2.0,-2.0,-1.0,1.0,2.0,1650819937736850.0
-4.0,-2.0,-7.0,-7.0,-7.0,-4.0,-2.0,-2.0,1650819937758001.0
-1.0,2.0,1.0,-3.0,-5.0,-3.0,-2.0,-1.0,1650819937758001.0
0.0,0.0,-8.0,-9.0,6.0,11.0,3.0,1.0,1650819937759935.0
0.0,3.0,9.0,10.0,0.0,-6.0,-2.0,-1.0,1650819937759935.0
1.0,-3.0,5.0,1.0,-2.0,0.0,1.0,0.0,1650819937771931.0
-1.0,3.0,7.0,4.0,0.0,-7.0,-1.0,1.0,1650819937771931.0
-2.0,-7.0,-11.0,-4.0,-3.0,-8.0,-1.0,-1.0,1650819937780860.0
-1.0,0.0,-8.0,-6.0,-4.0,2.0,-1.0,0.0,1650819937780860.0
-3.0,1.0,0.0,3.0,-2.0,-2.0,0.0,-2.0,1650819937794918.0
-2.0,-1.0,6.0,6.0,-1.0,-5.0,-1.0,-2.0,1650819937794918.0
2.0,2.0,4.0,4.0,0.0,5.0,1.0,1.0,1650819937796917.0
2.0,1.0,-1.0,-6.0,2.0,5.0,0.0,0.0,1650819937796917.0
0.0,1.0,0.0,3.0,5.0,-3.0,-2.0,1.0,1650819937818073.0
-1.0,-3.0,-3.0,-2.0,-5.0,-2.0,-1.0,0.0,1650819937818073.0
0.0,1.0,5.0,4.0,6.0,3.0,-2.0,-2.0,1650819937819842.0
-1.0,-1.0,-5.0,-3.0,-4.0,-4.0,0.0,0.0,1650819937819842.0
-1.0,0.0,-1.0,-1.0,-2.0,-6.0,-1.0,1.0,1650819937840864.0
-1.0,-2.0,-3.0,-1.0,-2.0,0.0,-1.0,1.0,1650819937840864.0
-2.0,-2.0,0.0,-2.0,-2.0,0.0,0.0,-1.0,1650819937841855.0
1.0,2.0,7.0,7.0,5.0,4.0,2.0,-2.0,1650819937841855.0
-1.0,-1.0,-4.0,-6.0,3.0,2.0,1.0,-2.0,1650819937856307.0
0.0,-1.0,-3.0,-2.0,-3.0,3.0,1.0,-1.0,1650819937856307.0
-1.0,2.0,3.0,2.0,-5.0,-5.0,0.0,1.0,1650819937857307.0
-2.0,-2.0,-2.0,1.0,1.0,-1.0,-1.0,0.0,1650819937857307.0
1.0,-1.0,-3.0,-4.0,2.0,4.0,0.0,1.0,1650819937878371.0
0.0,-1.0,0.0,-1.0,-6.0,-2.0,-1.0,-1.0,1650819937878371.0
0.0,0.0,2.0,2.0,-3.0,-5.0,0.0,-1.0,1650819937879371.0
0.0,3.0,-2.0,-6.0,1.0,-3.0,-1.0,0.0,1650819937879371.0
1.0,-3.0,-2.0,-1.0,3.0,4.0,-1.0,1.0,1650819937900536.0
1.0,1.0,0.0,3.0,0.0,2.0,0.0,0.0,1650819937900536.0
0.0,0.0,2.0,-2.0,-1.0,2.0,2.0,1.0,1650819937901495.0
-2.0,-1.0,-10.0,-8.0,-5.0,-5.0,-1.0,0.0,1650819937901495.0
-2.0,-4.0,2.0,4.0,-7.0,-7.0,-3.0,-4.0,1650819937915497.0
-2.0,-1.0,-4.0,1.0,1.0,-2.0,0.0,-1.0,1650819937915497.0
0.0,-3.0,2.0,-1.0,-3.0,0.0,1.0,-1.0,1650819937916428.0
-1.0,-1.0,3.0,4.0,6.0,7.0,0.0,1.0,1650819937916428.0
-1.0,2.0,1.0,-1.0,6.0,2.0,1.0,0.0,1650819937937786.0
0.0,-2.0,-5.0,-8.0,-6.0,-3.0,-1.0,0.0,1650819937937786.0
0.0,-1.0,-1.0,3.0,1.0,-3.0,0.0,0.0,1650819937939811.0
-1.0,-1.0,1.0,3.0,2.0,1.0,-1.0,0.0,1650819937939811.0
0.0,0.0,-3.0,-3.0,-1.0,-1.0,0.0,-2.0,1650819937960877.0
-2.0,-1.0,1.0,-1.0,1.0,-5.0,-2.0,-1.0,1650819937960877.0
-1.0,-2.0,-4.0,-2.0,-2.0,-2.0,-3.0,-2.0,1650819937961874.0
2.0,-1.0,0.0,0.0,-6.0,-8.0,-2.0,-1.0,1650819937961874.0
0.0,0.0,-2.0,-5.0,2.0,5.0,-1.0,1.0,1650819937974954.0
1.0,-3.0,0.0,3.0,5.0,1.0,1.0,1.0,1650819937974954.0
-2.0,0.0,-3.0,0.0,2.0,0.0,-3.0,-1.0,1650819937981902.0
-1.0,0.0,2.0,0.0,-8.0,-4.0,-1.0,1.0,1650819937981902.0
0.0,0.0,-1.0,1.0,-2.0,-5.0,0.0,-1.0,1650819937997984.0
0.0,1.0,-4.0,-3.0,4.0,5.0,1.0,0.0,1650819937997984.0
0.0,1.0,-2.0,-2.0,-2.0,-1.0,-1.0,0.0,1650819938005904.0
0.0,-1.0,1.0,2.0,1.0,0.0,2.0,-1.0,1650819938005904.0
0.0,2.0,0.0,-3.0,-3.0,0.0,-2.0,-2.0,1650819938020145.0
1.0,-2.0,0.0,3.0,0.0,7.0,0.0,-2.0,1650819938020145.0
0.0,1.0,1.0,-2.0,1.0,-1.0,1.0,1.0,1650819938022073.0
0.0,0.0,-1.0,-1.0,-3.0,-6.0,-5.0,-1.0,1650819938022073.0
-1.0,-2.0,1.0,2.0,-2.0,-5.0,-3.0,2.0,1650819938035118.0
-1.0,0.0,2.0,-1.0,-2.0,0.0,-2.0,0.0,1650819938035118.0
0.0,0.0,2.0,2.0,4.0,4.0,2.0,1.0,1650819938041174.0
-1.0,0.0,-2.0,-1.0,3.0,4.0,1.0,0.0,1650819938041174.0
-1.0,1.0,-1.0,-2.0,-3.0,-1.0,1.0,-2.0,1650819938058183.0
1.0,2.0,1.0,0.0,-7.0,-3.0,-2.0,-1.0,1650819938058183.0
-1.0,1.0,0.0,1.0,3.0,-1.0,-1.0,-1.0,1650819938059115.0
-1.0,-4.0,0.0,0.0,-1.0,-1.0,-3.0,-1.0,1650819938059115.0
0.0,0.0,1.0,0.0,-1.0,-1.0,-2.0,-2.0,1650819938080855.0
-2.0,1.0,-2.0,0.0,-2.0,-3.0,1.0,1.0,1650819938080855.0
-2.0,1.0,2.0,3.0,2.0,3.0,2.0,0.0,1650819938081853.0
2.0,0.0,-3.0,-6.0,3.0,2.0,1.0,-1.0,1650819938081853.0
1.0,-3.0,-1.0,0.0,-7.0,-7.0,-3.0,-3.0,1650819938095031.0
-1.0,-1.0,-2.0,0.0,-4.0,3.0,-2.0,-2.0,1650819938095031.0
0.0,-2.0,-3.0,-2.0,-2.0,-6.0,-2.0,1.0,1650819938101984.0
0.0,0.0,3.0,0.0,7.0,7.0,1.0,1.0,1650819938101984.0
-1.0,-1.0,-4.0,0.0,1.0,7.0,1.0,0.0,1650819938118293.0
1.0,1.0,-3.0,-3.0,-2.0,-8.0,-2.0,-1.0,1650819938118293.0
0.0,-4.0,-2.0,-3.0,-6.0,2.0,-2.0,-1.0,1650819938119833.0
0.0,1.0,2.0,6.0,4.0,5.0,3.0,0.0,1650819938119833.0
0.0,-1.0,5.0,2.0,0.0,-3.0,1.0,1.0,1650819938140847.0
-1.0,-2.0,-1.0,-4.0,2.0,0.0,2.0,-1.0,1650819938140847.0
-2.0,0.0,-2.0,-3.0,-7.0,-7.0,-2.0,0.0,1650819938141834.0
-1.0,1.0,0.0,1.0,-6.0,-3.0,-2.0,-1.0,1650819938141834.0
-2.0,-1.0,-1.0,-1.0,0.0,0.0,0.0,0.0,1650819938155015.0
-1.0,-3.0,2.0,2.0,4.0,3.0,1.0,1.0,1650819938155015.0
0.0,-1.0,2.0,6.0,7.0,2.0,0.0,-2.0,1650819938161946.0
-3.0,0.0,1.0,-1.0,0.0,2.0,-1.0,1.0,1650819938161946.0
1.0,2.0,3.0,-1.0,0.0,3.0,0.0,0.0,1650819938178118.0
0.0,2.0,-3.0,-4.0,-9.0,-5.0,-2.0,1.0,1650819938178118.0
0.0,0.0,-1.0,-1.0,-2.0,-6.0,-1.0,-1.0,1650819938179142.0
0.0,-2.0,-4.0,-1.0,0.0,-3.0,-2.0,-1.0,1650819938179142.0
-1.0,1.0,-3.0,-3.0,-4.0,-5.0,-3.0,0.0,1650819938199100.0
-1.0,-3.0,1.0,0.0,-3.0,-2.0,-3.0,-2.0,1650819938199100.0
-1.0,-1.0,5.0,5.0,3.0,2.0,2.0,-2.0,1650819938208118.0
1.0,4.0,0.0,-1.0,3.0,4.0,-1.0,-1.0,1650819938208118.0
-2.0,-1.0,-3.0,2.0,2.0,3.0,0.0,1.0,1650819938215173.0
-1.0,-1.0,-3.0,-2.0,3.0,8.0,2.0,-2.0,1650819938215173.0
1.0,0.0,-3.0,-8.0,-8.0,-2.0,-1.0,-1.0,1650819938221194.0
-2.0,-2.0,1.0,1.0,-7.0,-12.0,-3.0,-1.0,1650819938221194.0
-1.0,-2.0,-1.0,2.0,-4.0,-6.0,-4.0,-1.0,1650819938238340.0
0.0,1.0,3.0,2.0,3.0,3.0,3.0,0.0,1650819938238340.0
-1.0,3.0,1.0,0.0,6.0,13.0,4.0,3.0,1650819938239341.0
-1.0,-5.0,-2.0,1.0,3.0,2.0,1.0,0.0,1650819938239341.0
2.0,-1.0,1.0,-6.0,-5.0,-3.0,-2.0,-2.0,1650819938260540.0
0.0,-1.0,0.0,-1.0,-6.0,-9.0,-4.0,-1.0,1650819938260540.0
-1.0,1.0,-1.0,0.0,-1.0,-6.0,-3.0,-1.0,1650819938261502.0
-1.0,-1.0,-5.0,-4.0,0.0,0.0,0.0,-1.0,1650819938261502.0
0.0,0.0,4.0,0.0,3.0,7.0,2.0,0.0,1650819938274584.0
-1.0,-1.0,2.0,5.0,1.0,-2.0,-3.0,0.0,1650819938274584.0
-1.0,-1.0,-3.0,0.0,0.0,-2.0,-1.0,-3.0,1650819938283569.0
2.0,-1.0,-1.0,-2.0,-1.0,1.0,-1.0,0.0,1650819938283569.0
-1.0,-1.0,-4.0,-2.0,0.0,0.0,0.0,1.0,1650819938298294.0
-3.0,-3.0,-1.0,-1.0,3.0,3.0,0.0,-1.0,1650819938298294.0
0.0,-2.0,-4.0,-7.0,-10.0,-6.0,-2.0,-2.0,1650819938299834.0
1.0,1.0,2.0,1.0,-2.0,-7.0,0.0,-1.0,1650819938299834.0
-2.0,-3.0,-2.0,1.0,4.0,2.0,-1.0,-1.0,1650819938320872.0
0.0,0.0,-5.0,-1.0,3.0,2.0,1.0,0.0,1650819938320872.0
0.0,-2.0,2.0,-1.0,-1.0,1.0,2.0,1.0,1650819938321868.0
-3.0,-2.0,1.0,3.0,0.0,1.0,1.0,0.0,1650819938321868.0
1.0,4.0,3.0,6.0,5.0,5.0,3.0,1.0,1650819938334494.0
1.0,-1.0,-2.0,-3.0,5.0,5.0,0.0,0.0,1650819938334494.0
-1.0,-1.0,-3.0,-2.0,-3.0,-6.0,-3.0,0.0,1650819938342683.0
-2.0,1.0,-3.0,-2.0,-6.0,-7.0,-3.0,-2.0,1650819938342683.0
0.0,0.0,2.0,-1.0,-7.0,-9.0,-2.0,0.0,1650819938357676.0
-1.0,-1.0,-3.0,-2.0,-5.0,-4.0,-3.0,-1.0,1650819938357676.0
0.0,0.0,1.0,6.0,11.0,10.0,1.0,-1.0,1650819938359701.0
0.0,1.0,0.0,0.0,4.0,5.0,1.0,0.0,1650819938359701.0
0.0,-3.0,-3.0,-3.0,-3.0,-3.0,-1.0,1.0,1650819938380868.0
0.0,0.0,-1.0,-2.0,-1.0,-4.0,-1.0,-2.0,1650819938380868.0
-1.0,-3.0,-1.0,0.0,-5.0,-1.0,1.0,-1.0,1650819938381862.0
0.0,-2.0,-1.0,-3.0,-5.0,-4.0,-2.0,0.0,1650819938381862.0
-1.0,-2.0,-6.0,-3.0,7.0,1.0,-1.0,-3.0,1650819938394495.0
1.0,1.0,4.0,5.0,-1.0,-1.0,-1.0,1.0,1650819938394495.0
1.0,3.0,0.0,-3.0,1.0,-1.0,-1.0,0.0,1650819938403782.0
-1.0,-6.0,-4.0,-1.0,4.0,7.0,0.0,-1.0,1650819938403782.0
0.0,-1.0,2.0,2.0,-1.0,-1.0,0.0,-1.0,1650819938417893.0
-1.0,-2.0,-2.0,-3.0,-1.0,1.0,2.0,0.0,1650819938417893.0
0.0,1.0,1.0,-3.0,0.0,2.0,2.0,-1.0,1650819938419892.0
-1.0,2.0,1.0,2.0,-1.0,-3.0,-2.0,-1.0,1650819938419892.0
-2.0,-3.0,-1.0,0.0,-3.0,0.0,-4.0,-2.0,1650819938439936.0
0.0,1.0,2.0,0.0,-2.0,-5.0,-1.0,0.0,1650819938439936.0
-2.0,-8.0,-2.0,2.0,0.0,-2.0,1.0,0.0,1650819938441879.0
-1.0,1.0,-1.0,1.0,2.0,3.0,-1.0,0.0,1650819938441879.0
-2.0,-1.0,-1.0,-6.0,-1.0,0.0,-1.0,0.0,1650819938453944.0
0.0,0.0,0.0,-1.0,-2.0,2.0,-1.0,0.0,1650819938453944.0
-2.0,2.0,-1.0,1.0,-1.0,-3.0,-4.0,0.0,1650819938462707.0
-1.0,-1.0,0.0,-2.0,-4.0,-3.0,-1.0,0.0,1650819938462707.0
0.0,0.0,-2.0,-1.0,-5.0,-3.0,0.0,-2.0,1650819938477368.0
1.0,0.0,1.0,3.0,4.0,3.0,2.0,1.0,1650819938477368.0
0.0,-2.0,-4.0,-4.0,-4.0,-2.0,-1.0,-1.0,1650819938485779.0
0.0,-3.0,-1.0,-3.0,-5.0,-7.0,-2.0,0.0,1650819938485779.0
-1.0,0.0,-1.0,2.0,1.0,-2.0,1.0,0.0,1650819938500047.0
-2.0,0.0,1.0,1.0,6.0,7.0,-1.0,-3.0,1650819938500047.0
0.0,0.0,-2.0,-3.0,3.0,5.0,1.0,2.0,1650819938501975.0
1.0,1.0,2.0,4.0,0.0,4.0,2.0,1.0,1650819938501975.0
0.0,0.0,-1.0,4.0,2.0,6.0,2.0,0.0,1650819938514126.0
0.0,1.0,-3.0,-4.0,-5.0,-6.0,-3.0,0.0,1650819938514126.0
-1.0,0.0,-2.0,-2.0,-4.0,-7.0,-3.0,-2.0,1650819938523035.0
-1.0,1.0,-2.0,-3.0,-7.0,-5.0,-2.0,0.0,1650819938523035.0
-2.0,-1.0,1.0,1.0,2.0,0.0,-3.0,0.0,1650819938538145.0
-1.0,-1.0,-4.0,-4.0,0.0,-3.0,-2.0,0.0,1650819938538145.0
1.0,1.0,-1.0,2.0,0.0,3.0,0.0,-1.0,1650819938539153.0
-4.0,2.0,3.0,2.0,3.0,2.0,1.0,1.0,1650819938539153.0
-3.0,-5.0,-2.0,1.0,0.0,1.0,0.0,-1.0,1650819938560871.0
-3.0,-1.0,-2.0,-3.0,0.0,-1.0,0.0,-1.0,1650819938560871.0
1.0,-1.0,8.0,6.0,-1.0,-4.0,-2.0,-3.0,1650819938561867.0
1.0,2.0,-2.0,-4.0,-3.0,-3.0,-2.0,-3.0,1650819938561867.0
6.0,6.0,4.0,-3.0,-2.0,-1.0,-2.0,1.0,1650819938573903.0
-6.0,-4.0,-4.0,-2.0,-1.0,-1.0,-2.0,-3.0,1650819938573903.0
-6.0,-9.0,1.0,3.0,0.0,1.0,2.0,6.0,1650819938582812.0
4.0,1.0,-7.0,-8.0,1.0,11.0,2.0,1.0,1650819938582812.0
-7.0,5.0,3.0,4.0,10.0,3.0,0.0,0.0,1650819938597922.0
13.0,0.0,10.0,11.0,1.0,1.0,4.0,4.0,1650819938597922.0
-1.0,5.0,-10.0,-12.0,-5.0,-4.0,-2.0,-5.0,1650819938598922.0
-1.0,-7.0,-1.0,0.0,-1.0,-3.0,-1.0,3.0,1650819938598922.0
-4.0,-5.0,-5.0,-5.0,-13.0,-8.0,-2.0,-6.0,1650819938620086.0
-5.0,-7.0,-8.0,-5.0,2.0,2.0,-1.0,-8.0,1650819938620086.0
-1.0,5.0,11.0,9.0,2.0,4.0,-1.0,0.0,1650819938622014.0
15.0,20.0,5.0,4.0,3.0,-3.0,-5.0,-2.0,1650819938622014.0
-3.0,16.0,4.0,1.0,1.0,-1.0,-3.0,3.0,1650819938634170.0
2.0,-11.0,-4.0,-5.0,-5.0,-1.0,11.0,2.0,1650819938634170.0
-9.0,-24.0,-6.0,-6.0,-8.0,-3.0,0.0,18.0,1650819938643081.0
-4.0,-9.0,-7.0,-2.0,2.0,-2.0,-9.0,-15.0,1650819938643081.0
-1.0,-2.0,0.0,-2.0,-1.0,1.0,5.0,2.0,1650819938658222.0
25.0,31.0,9.0,8.0,10.0,7.0,-5.0,36.0,1650819938658222.0
3.0,34.0,8.0,8.0,6.0,0.0,-12.0,-69.0,1650819938659155.0
-16.0,-22.0,-4.0,-2.0,-5.0,-1.0,25.0,59.0,1650819938659155.0
-16.0,-54.0,-16.0,-9.0,-6.0,-1.0,2.0,36.0,1650819938688298.0
-8.0,6.0,1.0,-2.0,-7.0,-10.0,-18.0,-40.0,1650819938688298.0
9.0,7.0,-1.0,-4.0,2.0,2.0,4.0,-17.0,1650819938689239.0
19.0,24.0,8.0,1.0,1.0,5.0,30.0,50.0,1650819938689239.0
-7.0,-13.0,0.0,-4.0,-2.0,2.0,-10.0,-27.0,1650819938694253.0
-10.0,27.0,1.0,2.0,1.0,-2.0,-21.0,-1.0,1650819938694253.0
5.0,8.0,-2.0,4.0,0.0,-7.0,-7.0,2.0,1650819938703202.0
-12.0,-32.0,-4.0,-2.0,-4.0,-2.0,-5.0,-10.0,1650819938703202.0
16.0,14.0,0.0,-2.0,0.0,2.0,13.0,5.0,1650819938718391.0
3.0,15.0,3.0,-6.0,-4.0,-1.0,17.0,27.0,1650819938718391.0
-16.0,-5.0,2.0,-2.0,0.0,-2.0,-19.0,-24.0,1650819938719391.0
-12.0,-66.0,-14.0,-2.0,-2.0,-2.0,-11.0,-18.0,1650819938719391.0
4.0,17.0,0.0,5.0,2.0,0.0,4.0,1.0,1650819938740857.0
1.0,-14.0,-5.0,-5.0,-2.0,1.0,-4.0,-18.0,1650819938740857.0
6.0,25.0,3.0,0.0,-1.0,2.0,10.0,25.0,1650819938741859.0
-1.0,11.0,5.0,1.0,2.0,0.0,-7.0,-4.0,1650819938741859.0
5.0,-4.0,0.0,-1.0,2.0,2.0,-5.0,-11.0,1650819938763294.0
-3.0,-3.0,-4.0,-1.0,0.0,3.0,5.0,-10.0,1650819938763294.0
-6.0,-16.0,3.0,3.0,2.0,1.0,11.0,35.0,1650819938764756.0
11.0,9.0,-1.0,2.0,0.0,-2.0,-9.0,-22.0,1650819938764756.0
-1.0,11.0,2.0,-3.0,-6.0,-9.0,-8.0,-13.0,1650819938778269.0
-8.0,-11.0,-4.0,0.0,0.0,4.0,7.0,22.0,1650819938778269.0
-8.0,-21.0,-10.0,-8.0,-4.0,0.0,-1.0,-16.0,1650819938779820.0
1.0,13.0,1.0,-7.0,-9.0,-13.0,-18.0,-27.0,1650819938779820.0
0.0,16.0,8.0,4.0,-7.0,-8.0,1.0,-1.0,1650819938800056.0
-1.0,-14.0,1.0,6.0,9.0,10.0,7.0,12.0,1650819938800056.0
12.0,-15.0,-5.0,0.0,16.0,15.0,11.0,24.0,1650819938801984.0
-3.0,27.0,3.0,0.0,8.0,8.0,1.0,-8.0,1650819938801984.0
-9.0,-6.0,-5.0,-5.0,-4.0,-4.0,-2.0,1.0,1650819938823331.0
-5.0,-18.0,-4.0,-7.0,-20.0,-17.0,-10.0,-18.0,1650819938823331.0
11.0,1.0,1.0,1.0,-11.0,-8.0,1.0,11.0,1650819938824331.0
0.0,6.0,0.0,4.0,0.0,2.0,3.0,13.0,1650819938824331.0
6.0,-1.0,1.0,2.0,2.0,6.0,-3.0,-11.0,1650819938838267.0
2.0,13.0,-14.0,-8.0,-3.0,-1.0,4.0,5.0,1650819938838267.0
-13.0,4.0,-1.0,2.0,2.0,1.0,0.0,-18.0,1650819938839822.0
7.0,6.0,7.0,0.0,-4.0,-5.0,-3.0,4.0,1650819938839822.0
2.0,-4.0,-5.0,-5.0,-1.0,-2.0,-1.0,1.0,1650819938868129.0
1.0,-2.0,-1.0,0.0,4.0,4.0,3.0,-2.0,1650819938868129.0
-1.0,-9.0,-10.0,-5.0,-9.0,-7.0,-1.0,9.0,1650819938869138.0
-3.0,2.0,-3.0,-2.0,-2.0,-2.0,0.0,-14.0,1650819938869138.0
1.0,6.0,3.0,3.0,13.0,15.0,2.0,2.0,1650819938883268.0
0.0,1.0,11.0,8.0,16.0,13.0,5.0,0.0,1650819938883268.0
0.0,5.0,-14.0,-16.0,-8.0,-6.0,-7.0,1.0,1650819938884122.0
-8.0,-3.0,-6.0,-6.0,-9.0,-9.0,-6.0,-7.0,1650819938884122.0
3.0,8.0,6.0,7.0,-8.0,-16.0,-3.0,3.0,1650819938896242.0
-1.0,-9.0,-12.0,-13.0,-11.0,-8.0,-2.0,2.0,1650819938896242.0
0.0,-5.0,16.0,19.0,2.0,10.0,2.0,13.0,1650819938905222.0
-5.0,7.0,7.0,15.0,14.0,9.0,2.0,-32.0,1650819938905222.0
0.0,-1.0,-3.0,-4.0,1.0,-2.0,0.0,5.0,1650819938920241.0
-4.0,3.0,5.0,-1.0,-2.0,-1.0,1.0,13.0,1650819938920241.0
-5.0,-3.0,-7.0,-14.0,-11.0,-9.0,-9.0,-19.0,1650819938922202.0
8.0,1.0,-4.0,3.0,-3.0,-4.0,0.0,14.0,1650819938922202.0
10.0,-24.0,15.0,2.0,3.0,5.0,1.0,5.0,1650819938943351.0
-4.0,-2.0,-5.0,1.0,7.0,8.0,-1.0,-8.0,1650819938943351.0
-3.0,-3.0,-4.0,7.0,8.0,4.0,4.0,8.0,1650819938944351.0
-7.0,-5.0,-1.0,0.0,1.0,1.0,1.0,27.0,1650819938944351.0
17.0,3.0,-4.0,-3.0,-9.0,-11.0,-5.0,-45.0,1650819938965197.0
-7.0,4.0,13.0,1.0,-5.0,-2.0,2.0,9.0,1650819938965197.0
7.0,-11.0,-28.0,-10.0,0.0,7.0,3.0,12.0,1650819938967152.0
-8.0,-5.0,-3.0,4.0,-3.0,-1.0,-4.0,-15.0,1650819938967152.0
4.0,6.0,7.0,4.0,1.0,-3.0,3.0,36.0,1650819938980859.0
-5.0,-5.0,-5.0,-9.0,-5.0,-5.0,-1.0,-35.0,1650819938980859.0
3.0,12.0,11.0,5.0,4.0,2.0,-1.0,-13.0,1650819938981857.0
4.0,-9.0,-19.0,-22.0,0.0,3.0,2.0,-3.0,1650819938981857.0
-7.0,3.0,1.0,4.0,9.0,9.0,5.0,18.0,1650819939002976.0
0.0,-10.0,-10.0,0.0,-3.0,-4.0,-1.0,0.0,1650819939002976.0
-7.0,-1.0,4.0,2.0,-10.0,-14.0,-5.0,8.0,1650819939004910.0
14.0,6.0,13.0,14.0,-3.0,-5.0,3.0,20.0,1650819939004910.0
-14.0,8.0,-26.0,-9.0,10.0,10.0,-7.0,-63.0,1650819939016940.0
-2.0,-8.0,22.0,11.0,7.0,3.0,0.0,2.0,1650819939016940.0
8.0,4.0,-1.0,-6.0,-1.0,-2.0,1.0,7.0,1650819939024393.0
-5.0,4.0,2.0,-4.0,-5.0,-6.0,0.0,7.0,1650819939024393.0
18.0,2.0,-12.0,1.0,-5.0,-3.0,5.0,28.0,1650819939039953.0
-34.0,-7.0,-15.0,-16.0,-7.0,-4.0,-6.0,-34.0,1650819939039953.0
-6.0,4.0,7.0,8.0,3.0,1.0,0.0,-5.0,1650819939041882.0
12.0,-9.0,-5.0,-7.0,-6.0,-2.0,-2.0,8.0,1650819939041882.0
-8.0,3.0,3.0,-1.0,-1.0,0.0,-4.0,-9.0,1650819939062922.0
23.0,1.0,10.0,7.0,9.0,3.0,6.0,64.0,1650819939062922.0
-27.0,-10.0,9.0,5.0,8.0,7.0,-6.0,-75.0,1650819939064879.0
13.0,5.0,-23.0,-18.0,-3.0,-3.0,-3.0,-6.0,1650819939064879.0
7.0,-8.0,-4.0,0.0,-10.0,-10.0,-2.0,20.0,1650819939076886.0
-7.0,-2.0,6.0,8.0,-8.0,-6.0,-2.0,-5.0,1650819939076886.0
0.0,7.0,6.0,-1.0,-2.0,0.0,0.0,16.0,1650819939083867.0
-8.0,-3.0,-22.0,-27.0,4.0,5.0,1.0,-2.0,1650819939083867.0
-5.0,-3.0,3.0,6.0,0.0,0.0,-1.0,-11.0,1650819939100049.0
8.0,4.0,13.0,16.0,3.0,3.0,1.0,8.0,1650819939100049.0
12.0,-2.0,9.0,9.0,1.0,4.0,6.0,33.0,1650819939102006.0
-17.0,4.0,5.0,2.0,-1.0,-2.0,-7.0,-67.0,1650819939102006.0
-3.0,-7.0,-12.0,-16.0,-6.0,-5.0,1.0,19.0,1650819939122919.0
1.0,-6.0,-12.0,-16.0,-11.0,-14.0,-4.0,3.0,1650819939122919.0
7.0,2.0,1.0,4.0,-1.0,-1.0,0.0,-7.0,1650819939124877.0
12.0,4.0,11.0,17.0,8.0,6.0,3.0,12.0,1650819939124877.0
-19.0,-7.0,11.0,6.0,5.0,3.0,5.0,29.0,1650819939137705.0
3.0,8.0,-1.0,-2.0,3.0,4.0,-3.0,-52.0,1650819939137705.0
0.0,-11.0,-34.0,-30.0,-6.0,-1.0,0.0,8.0,1650819939143758.0
-14.0,1.0,36.0,24.0,-12.0,-8.0,-3.0,8.0,1650819939143758.0
5.0,-1.0,4.0,14.0,4.0,1.0,2.0,-9.0,1650819939160834.0
12.0,5.0,-8.0,3.0,9.0,10.0,3.0,26.0,1650819939160834.0
4.0,2.0,10.0,-5.0,-5.0,-5.0,2.0,19.0,1650819939161794.0
-6.0,3.0,0.0,4.0,1.0,-4.0,0.0,-4.0,1650819939161794.0
0.0,-2.0,-11.0,-18.0,-9.0,-2.0,1.0,12.0,1650819939190901.0
-7.0,6.0,17.0,20.0,5.0,3.0,-3.0,-33.0,1650819939190901.0
13.0,11.0,4.0,-4.0,10.0,6.0,4.0,11.0,1650819939191899.0
-13.0,-20.0,-3.0,-19.0,-5.0,-1.0,-2.0,7.0,1650819939191899.0
13.0,6.0,20.0,11.0,-4.0,-6.0,-2.0,-19.0,1650819939196911.0
-4.0,-9.0,-22.0,-19.0,-15.0,-13.0,-8.0,-1.0,1650819939196911.0
4.0,1.0,24.0,31.0,10.0,9.0,4.0,4.0,1650819939203866.0
-10.0,-5.0,-12.0,-14.0,-3.0,-2.0,2.0,6.0,1650819939203866.0
6.0,0.0,-14.0,-3.0,2.0,6.0,6.0,1.0,1650819939220057.0
-2.0,-3.0,2.0,-8.0,1.0,-4.0,0.0,-4.0,1650819939220057.0
-11.0,-1.0,-1.0,-5.0,-6.0,-4.0,-9.0,-19.0,1650819939221997.0
4.0,8.0,19.0,20.0,5.0,5.0,2.0,13.0,1650819939221997.0
-4.0,-1.0,-1.0,-12.0,-5.0,-4.0,0.0,-1.0,1650819939243747.0
12.0,-5.0,-8.0,0.0,0.0,-4.0,1.0,3.0,1650819939243747.0
-21.0,-2.0,-5.0,-4.0,-4.0,-4.0,-3.0,17.0,1650819939244746.0
-1.0,-4.0,-12.0,-10.0,2.0,4.0,0.0,1.0,1650819939244746.0
-18.0,-2.0,27.0,28.0,9.0,6.0,0.0,-11.0,1650819939257593.0
0.0,-7.0,-16.0,-11.0,-2.0,5.0,5.0,24.0,1650819939257593.0
4.0,-4.0,-14.0,-8.0,-12.0,-14.0,-8.0,-20.0,1650819939264493.0
21.0,-1.0,16.0,7.0,7.0,3.0,-1.0,-1.0,1650819939264493.0
-12.0,4.0,-14.0,-15.0,-8.0,-5.0,-3.0,1.0,1650819939279994.0
17.0,6.0,-9.0,-11.0,2.0,-4.0,-1.0,-6.0,1650819939279994.0
-20.0,-10.0,-6.0,8.0,2.0,7.0,0.0,-22.0,1650819939281922.0
1.0,-17.0,-2.0,-5.0,-5.0,-3.0,3.0,0.0,1650819939281922.0
-2.0,2.0,12.0,9.0,0.0,-4.0,-3.0,-2.0,1650819939303269.0
-9.0,2.0,7.0,3.0,3.0,0.0,3.0,12.0,1650819939303269.0
24.0,8.0,10.0,-2.0,0.0,-2.0,2.0,13.0,1650819939304153.0
-15.0,6.0,-1.0,-1.0,-9.0,1.0,-2.0,-6.0,1650819939304153.0
9.0,-3.0,-11.0,-4.0,12.0,11.0,2.0,2.0,1650819939316999.0
-5.0,6.0,24.0,23.0,7.0,5.0,-1.0,0.0,1650819939316999.0
-1.0,3.0,-1.0,-11.0,0.0,-5.0,3.0,23.0,1650819939325802.0
5.0,-7.0,-36.0,-11.0,-7.0,-7.0,-6.0,-23.0,1650819939325802.0
-12.0,-4.0,-17.0,-19.0,-8.0,-5.0,2.0,9.0,1650819939340730.0
-4.0,4.0,5.0,5.0,-2.0,3.0,-5.0,-16.0,1650819939340730.0
9.0,4.0,23.0,23.0,6.0,-3.0,1.0,6.0,1650819939341661.0
1.0,5.0,1.0,-7.0,-1.0,1.0,2.0,20.0,1650819939341661.0
-10.0,-5.0,1.0,6.0,0.0,4.0,-5.0,-34.0,1650819939362781.0
11.0,-4.0,-6.0,4.0,1.0,-3.0,1.0,0.0,1650819939362781.0
-7.0,-1.0,-4.0,-11.0,-2.0,2.0,-2.0,-38.0,1650819939364710.0
-5.0,1.0,1.0,-2.0,2.0,-6.0,0.0,11.0,1650819939364710.0
8.0,-4.0,0.0,4.0,1.0,-2.0,-3.0,8.0,1650819939376865.0
-8.0,-9.0,-14.0,-17.0,-14.0,-9.0,-6.0,0.0,1650819939376865.0
-1.0,0.0,7.0,3.0,0.0,-1.0,1.0,16.0,1650819939392946.0
