EMG_s0,EMG_s1,EMG_s2,EMG_s3,EMG_s4,EMG_s5,EMG_s6,EMG_s7,timestamp
10.0,3.0,12.0,-16.0,-10.0,-1.0,3.0,3.0,1650819796256704.0
14.0,7.0,-2.0,10.0,5.0,0.0,7.0,21.0,1650819796256704.0
-6.0,-7.0,-8.0,24.0,7.0,2.0,-3.0,-30.0,1650819796256964.0
-24.0,-13.0,6.0,-37.0,-10.0,-4.0,-24.0,-45.0,1650819796256964.0
44.0,33.0,-11.0,-3.0,-11.0,-6.0,18.0,42.0,1650819796257963.0
0.0,-52.0,-2.0,7.0,9.0,13.0,28.0,34.0,1650819796257963.0
-9.0,-28.0,-14.0,-34.0,-15.0,0.0,11.0,22.0,1650819796258961.0
-11.0,11.0,-8.0,10.0,-4.0,-7.0,0.0,3.0,1650819796258961.0
-41.0,-26.0,10.0,21.0,6.0,-5.0,-5.0,-28.0,1650819796263977.0
40.0,87.0,19.0,-2.0,10.0,9.0,-9.0,8.0,1650819796263977.0
9.0,-8.0,15.0,-12.0,-14.0,-18.0,2.0,-1.0,1650819796268961.0
-21.0,-24.0,-8.0,12.0,-5.0,-2.0,-20.0,-15.0,1650819796268961.0
13.0,-2.0,12.0,23.0,20.0,21.0,5.0,-12.0,1650819796284892.0
-23.0,-44.0,-3.0,-13.0,-4.0,-3.0,-1.0,0.0,1650819796284892.0
-23.0,21.0,0.0,6.0,10.0,-2.0,-18.0,-19.0,1650819796292870.0
7.0,28.0,-3.0,8.0,-1.0,-9.0,-6.0,-11.0,1650819796292870.0
-11.0,-11.0,6.0,-14.0,-14.0,-17.0,-10.0,-2.0,1650819796299852.0
3.0,-2.0,4.0,12.0,2.0,7.0,3.0,-3.0,1650819796299852.0
1.0,-2.0,-24.0,2.0,7.0,12.0,-2.0,-6.0,1650819796322685.0
15.0,-1.0,5.0,-9.0,1.0,3.0,11.0,12.0,1650819796322685.0
-10.0,-4.0,2.0,19.0,12.0,3.0,2.0,32.0,1650819796362519.0
2.0,-6.0,-12.0,-34.0,-9.0,1.0,7.0,3.0,1650819796362519.0
-1.0,-18.0,-20.0,-5.0,-7.0,-3.0,4.0,7.0,1650819796363508.0
-7.0,13.0,13.0,28.0,11.0,6.0,0.0,-12.0,1650819796363508.0
2.0,0.0,-9.0,-25.0,-14.0,-10.0,-12.0,-12.0,1650819796364505.0
0.0,-21.0,13.0,6.0,2.0,5.0,24.0,62.0,1650819796364505.0
5.0,5.0,7.0,12.0,8.0,4.0,-1.0,-13.0,1650819796367496.0
2.0,-7.0,0.0,6.0,2.0,-8.0,0.0,6.0,1650819796367496.0
-2.0,0.0,0.0,-13.0,-12.0,2.0,-9.0,-30.0,1650819796374450.0
-16.0,-1.0,-2.0,24.0,14.0,10.0,-9.0,-13.0,1650819796374450.0
0.0,9.0,3.0,9.0,18.0,10.0,-3.0,-6.0,1650819796382429.0
5.0,1.0,10.0,-12.0,-4.0,-12.0,0.0,3.0,1650819796382429.0
-7.0,-15.0,-3.0,0.0,-9.0,-11.0,8.0,13.0,1650819796389411.0
14.0,15.0,-1.0,13.0,-2.0,-1.0,-11.0,-10.0,1650819796389411.0
-17.0,-3.0,-1.0,-12.0,5.0,14.0,6.0,-10.0,1650819796405367.0
7.0,-3.0,18.0,-5.0,-4.0,8.0,14.0,16.0,1650819796405367.0
1.0,14.0,-12.0,8.0,5.0,-4.0,-6.0,-6.0,1650819796411351.0
-2.0,7.0,1.0,-9.0,-12.0,-14.0,-13.0,-34.0,1650819796411351.0
-4.0,2.0,-12.0,0.0,-7.0,-13.0,-27.0,3.0,1650819796426448.0
7.0,3.0,12.0,8.0,7.0,4.0,30.0,67.0,1650819796426448.0
0.0,5.0,-11.0,-8.0,-5.0,1.0,10.0,-25.0,1650819796435427.0
-6.0,-18.0,-4.0,-1.0,12.0,8.0,0.0,3.0,1650819796435427.0
2.0,6.0,9.0,-2.0,-1.0,5.0,-6.0,-27.0,1650819796450899.0
-10.0,-2.0,-21.0,-2.0,-6.0,-6.0,-22.0,-32.0,1650819796450899.0
1.0,-8.0,-7.0,-3.0,0.0,4.0,8.0,22.0,1650819796451903.0
8.0,16.0,6.0,-1.0,0.0,-13.0,7.0,6.0,1650819796451903.0
0.0,-5.0,12.0,15.0,2.0,10.0,3.0,1.0,1650819796473969.0
-4.0,-6.0,-11.0,-8.0,-9.0,1.0,-5.0,-5.0,1650819796473969.0
4.0,4.0,0.0,-14.0,-3.0,0.0,-4.0,-13.0,1650819796474899.0
3.0,26.0,-15.0,7.0,-1.0,-6.0,-22.0,-38.0,1650819796474899.0
7.0,-14.0,8.0,-8.0,-5.0,-14.0,22.0,75.0,1650819796487055.0
-15.0,4.0,-3.0,-4.0,0.0,1.0,-23.0,-98.0,1650819796487055.0
15.0,-6.0,10.0,20.0,9.0,10.0,17.0,78.0,1650819796495317.0
-12.0,2.0,-5.0,-10.0,-8.0,-9.0,-19.0,-36.0,1650819796495317.0
-1.0,3.0,-11.0,-14.0,-9.0,-7.0,-2.0,-2.0,1650819796510903.0
2.0,10.0,6.0,0.0,0.0,-2.0,-8.0,-17.0,1650819796510903.0
1.0,0.0,-2.0,2.0,-2.0,-3.0,-4.0,-1.0,1650819796511843.0
1.0,-11.0,6.0,6.0,5.0,8.0,3.0,1.0,1650819796511843.0
0.0,-1.0,-17.0,-10.0,-8.0,-5.0,-11.0,-23.0,1650819796533379.0
0.0,-3.0,9.0,16.0,6.0,2.0,6.0,29.0,1650819796533379.0
-14.0,1.0,2.0,-8.0,-1.0,0.0,-2.0,-37.0,1650819796534931.0
8.0,-16.0,-10.0,1.0,5.0,11.0,9.0,27.0,1650819796534931.0
8.0,5.0,25.0,15.0,11.0,5.0,2.0,-2.0,1650819796555081.0
-5.0,-23.0,-33.0,-19.0,-11.0,-8.0,2.0,3.0,1650819796555081.0
2.0,3.0,-18.0,-11.0,-9.0,-12.0,-3.0,4.0,1650819796557009.0
-7.0,3.0,33.0,5.0,-4.0,2.0,6.0,11.0,1650819796557009.0
-3.0,7.0,11.0,6.0,14.0,15.0,10.0,22.0,1650819796570218.0
5.0,2.0,-3.0,-3.0,5.0,5.0,9.0,-9.0,1650819796570218.0
0.0,2.0,-4.0,-4.0,-6.0,-17.0,-16.0,-9.0,1650819796572146.0
1.0,-12.0,-8.0,-15.0,-15.0,-9.0,4.0,10.0,1650819796572146.0
-8.0,4.0,4.0,6.0,-5.0,-4.0,-17.0,-37.0,1650819796593378.0
9.0,6.0,-5.0,-4.0,5.0,11.0,15.0,20.0,1650819796593378.0
-7.0,-1.0,8.0,0.0,5.0,5.0,-14.0,-25.0,1650819796594330.0
0.0,8.0,5.0,2.0,0.0,-5.0,5.0,11.0,1650819796594330.0
-5.0,-14.0,-22.0,-8.0,-10.0,-10.0,-9.0,-8.0,1650819796607587.0
-2.0,2.0,1.0,-1.0,-5.0,-7.0,-10.0,-9.0,1650819796607587.0
-14.0,-13.0,11.0,12.0,6.0,3.0,-6.0,-30.0,1650819796615568.0
12.0,2.0,-10.0,1.0,2.0,0.0,13.0,57.0,1650819796615568.0
2.0,8.0,6.0,-4.0,-3.0,0.0,10.0,0.0,1650819796630935.0
0.0,2.0,11.0,-2.0,0.0,-3.0,-14.0,1.0,1650819796630935.0
-9.0,2.0,-2.0,4.0,8.0,9.0,-10.0,-64.0,1650819796631863.0
-6.0,-8.0,-5.0,1.0,5.0,3.0,-3.0,21.0,1650819796631863.0
-5.0,4.0,11.0,-1.0,-7.0,-12.0,-6.0,-23.0,1650819796653437.0
6.0,-5.0,-17.0,-8.0,-4.0,-4.0,3.0,21.0,1650819796653437.0
11.0,14.0,21.0,12.0,5.0,10.0,16.0,39.0,1650819796654441.0
-3.0,-5.0,-20.0,-9.0,-1.0,-8.0,-12.0,-42.0,1650819796654441.0
-10.0,-1.0,5.0,9.0,5.0,10.0,0.0,15.0,1650819796666471.0
-1.0,-7.0,-1.0,-9.0,-7.0,1.0,-4.0,-5.0,1650819796666471.0
3.0,4.0,4.0,-3.0,10.0,8.0,6.0,17.0,1650819796675381.0
-8.0,9.0,11.0,6.0,-2.0,-2.0,-18.0,-36.0,1650819796675381.0
9.0,0.0,-12.0,-3.0,-7.0,-13.0,8.0,13.0,1650819796690566.0
-3.0,-7.0,-7.0,-12.0,-8.0,-3.0,19.0,45.0,1650819796690566.0
-3.0,-20.0,-3.0,-1.0,-9.0,-6.0,3.0,-1.0,1650819796692516.0
-4.0,2.0,-1.0,-1.0,3.0,-4.0,-8.0,-30.0,1650819796692516.0
6.0,6.0,-5.0,-1.0,4.0,0.0,-10.0,-9.0,1650819796712961.0
-7.0,0.0,-7.0,6.0,2.0,5.0,-8.0,-7.0,1650819796712961.0
-1.0,0.0,11.0,-4.0,2.0,3.0,0.0,11.0,1650819796714985.0
4.0,5.0,10.0,4.0,2.0,7.0,20.0,35.0,1650819796714985.0
0.0,-4.0,3.0,-4.0,-5.0,-4.0,-2.0,-5.0,1650819796727065.0
18.0,9.0,-14.0,-6.0,-6.0,-10.0,-5.0,-7.0,1650819796727065.0
-5.0,-8.0,-18.0,-3.0,-3.0,-12.0,-1.0,11.0,1650819796736043.0
-8.0,-11.0,-15.0,-15.0,-5.0,5.0,-10.0,-23.0,1650819796736043.0
4.0,3.0,3.0,6.0,4.0,4.0,9.0,14.0,1650819796749227.0
-5.0,2.0,12.0,7.0,6.0,9.0,0.0,-6.0,1650819796749227.0
4.0,7.0,5.0,1.0,-3.0,0.0,-5.0,-4.0,1650819796758467.0
6.0,1.0,2.0,11.0,7.0,2.0,14.0,22.0,1650819796758467.0
-3.0,-9.0,-14.0,-11.0,0.0,-3.0,-4.0,1.0,1650819796773441.0
0.0,-4.0,1.0,-9.0,-2.0,2.0,2.0,-13.0,1650819796773441.0
5.0,-3.0,0.0,4.0,-3.0,0.0,19.0,41.0,1650819796774442.0
-4.0,-8.0,-2.0,-3.0,-5.0,-3.0,-3.0,-9.0,1650819796774442.0
-4.0,0.0,-6.0,-6.0,-10.0,-8.0,-17.0,-36.0,1650819796795736.0
1.0,-8.0,-6.0,10.0,8.0,4.0,1.0,16.0,1650819796795736.0
1.0,10.0,23.0,8.0,7.0,5.0,1.0,-27.0,1650819796796697.0
6.0,0.0,-5.0,-11.0,-9.0,-1.0,15.0,57.0,1650819796796697.0
-5.0,0.0,-9.0,-9.0,-10.0,-4.0,-4.0,-16.0,1650819796810826.0
-2.0,-7.0,6.0,8.0,8.0,-4.0,-13.0,-21.0,1650819796810826.0
3.0,3.0,-8.0,1.0,3.0,7.0,5.0,0.0,1650819796811757.0
-6.0,-2.0,3.0,3.0,3.0,5.0,-6.0,-21.0,1650819796811757.0
6.0,-9.0,2.0,-5.0,7.0,8.0,11.0,16.0,1650819796832876.0
-8.0,1.0,-5.0,-1.0,-3.0,-4.0,0.0,-2.0,1650819796832876.0
3.0,4.0,8.0,-3.0,-6.0,-11.0,-13.0,-9.0,1650819796834804.0
-4.0,2.0,-6.0,-3.0,-7.0,-6.0,-7.0,-19.0,1650819796834804.0
10.0,-3.0,3.0,7.0,-5.0,-6.0,7.0,17.0,1650819796855653.0
-2.0,4.0,10.0,1.0,1.0,1.0,-1.0,-10.0,1650819796855653.0
-3.0,-8.0,-10.0,-4.0,5.0,11.0,3.0,16.0,1650819796856560.0
6.0,5.0,0.0,-2.0,1.0,-2.0,2.0,4.0,1650819796856560.0
-3.0,-1.0,-2.0,3.0,1.0,2.0,4.0,3.0,1650819796870707.0
-4.0,2.0,4.0,-4.0,-8.0,-15.0,-11.0,-28.0,1650819796870707.0
1.0,-1.0,3.0,5.0,-3.0,6.0,-6.0,18.0,1650819796871665.0
-7.0,-17.0,-12.0,-1.0,-2.0,-2.0,12.0,3.0,1650819796871665.0
0.0,7.0,2.0,-7.0,1.0,5.0,4.0,19.0,1650819796892843.0
-1.0,2.0,7.0,6.0,5.0,4.0,-2.0,-39.0,1650819796892843.0
0.0,2.0,-21.0,-4.0,5.0,1.0,0.0,9.0,1650819796894799.0
3.0,6.0,3.0,-6.0,-6.0,-4.0,-5.0,-15.0,1650819796894799.0
-5.0,-8.0,2.0,6.0,-2.0,-1.0,-2.0,5.0,1650819796915871.0
0.0,-5.0,-3.0,2.0,-4.0,-6.0,0.0,10.0,1650819796915871.0
-1.0,0.0,-6.0,-5.0,-9.0,-11.0,-2.0,-13.0,1650819796916877.0
3.0,3.0,7.0,1.0,10.0,8.0,2.0,6.0,1650819796916877.0
3.0,6.0,1.0,3.0,8.0,14.0,2.0,-4.0,1650819796929934.0
1.0,-2.0,0.0,3.0,6.0,12.0,7.0,20.0,1650819796929934.0
4.0,2.0,9.0,2.0,1.0,0.0,0.0,-2.0,1650819796936917.0
0.0,-1.0,-4.0,-7.0,-11.0,-13.0,-6.0,-3.0,1650819796936917.0
-4.0,-1.0,-1.0,-1.0,-6.0,-8.0,-7.0,-9.0,1650819796951986.0
-4.0,0.0,-3.0,-2.0,-3.0,-4.0,1.0,14.0,1650819796951986.0
1.0,1.0,8.0,1.0,-2.0,-8.0,0.0,3.0,1650819796960858.0
3.0,7.0,6.0,2.0,2.0,1.0,-5.0,-15.0,1650819796960858.0
-9.0,-8.0,-8.0,-3.0,0.0,-1.0,-11.0,-17.0,1650819796974897.0
10.0,6.0,0.0,-1.0,1.0,4.0,10.0,20.0,1650819796974897.0
4.0,-5.0,-6.0,0.0,-2.0,-1.0,2.0,-5.0,1650819796976897.0
-6.0,-3.0,-7.0,0.0,-2.0,1.0,-5.0,-4.0,1650819796976897.0
-1.0,-2.0,-2.0,-3.0,-1.0,-2.0,4.0,2.0,1650819796989922.0
0.0,-7.0,3.0,3.0,-3.0,-6.0,-5.0,1.0,1650819796989922.0
-2.0,1.0,-6.0,1.0,2.0,5.0,-3.0,-10.0,1650819796996904.0
3.0,5.0,7.0,3.0,4.0,14.0,3.0,-1.0,1650819796996904.0
1.0,-2.0,2.0,-2.0,-4.0,-6.0,0.0,7.0,1650819797012916.0
-2.0,2.0,-2.0,2.0,1.0,-1.0,-2.0,-2.0,1650819797012916.0
-1.0,0.0,-1.0,-4.0,-4.0,-6.0,-2.0,0.0,1650819797014872.0
-3.0,-5.0,0.0,0.0,0.0,0.0,1.0,-1.0,1650819797014872.0
0.0,2.0,-1.0,3.0,5.0,10.0,4.0,4.0,1650819797034886.0
1.0,2.0,0.0,-2.0,1.0,6.0,1.0,3.0,1650819797034886.0
-1.0,-8.0,-6.0,-4.0,-5.0,-6.0,-3.0,-3.0,1650819797036883.0
2.0,-5.0,-3.0,-1.0,-4.0,-10.0,-5.0,7.0,1650819797036883.0
-3.0,-1.0,1.0,0.0,-3.0,-7.0,-2.0,-13.0,1650819797049915.0
-2.0,-1.0,-3.0,-3.0,-4.0,-4.0,-1.0,7.0,1650819797049915.0
-1.0,-1.0,-3.0,1.0,1.0,12.0,0.0,-3.0,1650819797057012.0
2.0,2.0,6.0,7.0,8.0,12.0,3.0,4.0,1650819797057012.0
2.0,4.0,-2.0,-2.0,-3.0,-8.0,-1.0,0.0,1650819797073493.0
-4.0,-4.0,-5.0,-7.0,-8.0,-15.0,-4.0,-5.0,1650819797073493.0
-3.0,-1.0,-2.0,-10.0,-7.0,2.0,-5.0,-6.0,1650819797074504.0
1.0,-1.0,-1.0,4.0,2.0,2.0,4.0,-1.0,1650819797074504.0
-1.0,0.0,-2.0,-2.0,4.0,2.0,1.0,1.0,1650819797095929.0
-8.0,1.0,-1.0,-3.0,-1.0,-3.0,-2.0,-1.0,1650819797095929.0
9.0,1.0,4.0,2.0,-3.0,-13.0,-5.0,-4.0,1650819797096926.0
-4.0,-10.0,-8.0,-3.0,-8.0,-8.0,-5.0,-6.0,1650819797096926.0
-3.0,-2.0,2.0,-2.0,5.0,6.0,1.0,5.0,1650819797109959.0
5.0,0.0,-3.0,1.0,1.0,6.0,0.0,2.0,1650819797109959.0
1.0,4.0,4.0,3.0,4.0,7.0,5.0,2.0,1650819797117006.0
-2.0,-2.0,5.0,-6.0,-1.0,-1.0,1.0,-4.0,1650819797117006.0
1.0,-3.0,-5.0,4.0,-1.0,-6.0,2.0,3.0,1650819797133437.0
-3.0,1.0,1.0,0.0,2.0,0.0,-2.0,-1.0,1650819797133437.0
-3.0,-1.0,0.0,0.0,2.0,5.0,2.0,1.0,1650819797134443.0
2.0,5.0,0.0,-1.0,2.0,-3.0,-1.0,-3.0,1650819797134443.0
-3.0,-7.0,-6.0,-7.0,1.0,3.0,-2.0,0.0,1650819797155929.0
2.0,1.0,-1.0,-1.0,-9.0,-3.0,3.0,0.0,1650819797155929.0
0.0,-2.0,2.0,6.0,-5.0,-11.0,1.0,-1.0,1650819797156937.0
-1.0,2.0,3.0,2.0,1.0,-2.0,-4.0,-1.0,1650819797156937.0
3.0,5.0,1.0,2.0,4.0,4.0,3.0,4.0,1650819797169994.0
-1.0,1.0,-5.0,-7.0,2.0,5.0,1.0,2.0,1650819797169994.0
-4.0,-1.0,-3.0,-1.0,-2.0,1.0,-1.0,1.0,1650819797177036.0
-3.0,0.0,1.0,2.0,0.0,3.0,-1.0,-3.0,1650819797177036.0
7.0,-1.0,0.0,-4.0,-4.0,-1.0,-2.0,-1.0,1650819797192919.0
-9.0,-6.0,-3.0,-1.0,1.0,-5.0,-2.0,-2.0,1650819797192919.0
-1.0,2.0,-1.0,-1.0,-2.0,-3.0,0.0,0.0,1650819797194876.0
-3.0,-1.0,0.0,1.0,-4.0,-5.0,-2.0,-3.0,1650819797194876.0
0.0,2.0,-1.0,0.0,-1.0,-4.0,-1.0,0.0,1650819797215086.0
0.0,1.0,2.0,7.0,-4.0,6.0,1.0,3.0,1650819797215086.0
-3.0,-1.0,0.0,-4.0,9.0,0.0,0.0,-2.0,1650819797217015.0
0.0,-1.0,-4.0,-1.0,6.0,11.0,-1.0,-1.0,1650819797217015.0
1.0,1.0,-3.0,-3.0,-4.0,-5.0,-1.0,0.0,1650819797230046.0
3.0,0.0,0.0,-8.0,-6.0,-5.0,-2.0,1.0,1650819797230046.0
-5.0,-3.0,-9.0,-4.0,-10.0,-5.0,-2.0,0.0,1650819797237027.0
1.0,-1.0,6.0,12.0,1.0,-4.0,0.0,0.0,1650819797237027.0
1.0,2.0,4.0,6.0,6.0,1.0,-2.0,2.0,1650819797253464.0
1.0,0.0,-2.0,-5.0,4.0,12.0,3.0,-1.0,1650819797253464.0
1.0,-1.0,1.0,1.0,1.0,1.0,1.0,0.0,1650819797254465.0
-1.0,-1.0,-4.0,-15.0,-13.0,-19.0,-4.0,-1.0,1650819797254465.0
-3.0,-8.0,-4.0,2.0,-9.0,-10.0,-4.0,-1.0,1650819797275013.0
1.0,1.0,2.0,5.0,10.0,16.0,0.0,-1.0,1650819797275013.0
0.0,0.0,1.0,7.0,12.0,19.0,6.0,1.0,1650819797276952.0
0.0,1.0,1.0,2.0,3.0,4.0,3.0,1.0,1650819797276952.0
2.0,0.0,-2.0,-10.0,-8.0,-17.0,-2.0,1.0,1650819797288976.0
-1.0,-5.0,4.0,4.0,-10.0,-17.0,-7.0,-4.0,1650819797288976.0
-4.0,-1.0,2.0,2.0,-6.0,-8.0,-3.0,0.0,1650819797297983.0
-3.0,-3.0,-12.0,-4.0,4.0,6.0,0.0,-2.0,1650819797297983.0
3.0,4.0,1.0,1.0,12.0,21.0,5.0,-1.0,1650819797313405.0
-1.0,0.0,-7.0,-16.0,-3.0,-3.0,-1.0,1.0,1650819797313405.0
1.0,1.0,2.0,6.0,-9.0,-8.0,-3.0,-1.0,1650819797314105.0
-5.0,-1.0,8.0,1.0,0.0,-5.0,-1.0,-2.0,1650819797314105.0
-3.0,1.0,-1.0,1.0,1.0,0.0,-1.0,0.0,1650819797335648.0
4.0,2.0,0.0,5.0,6.0,2.0,-1.0,-1.0,1650819797335648.0
3.0,-1.0,2.0,2.0,2.0,5.0,1.0,-2.0,1650819797337342.0
2.0,-1.0,-2.0,-1.0,-3.0,-8.0,-2.0,-1.0,1650819797337342.0
-1.0,-1.0,-5.0,3.0,-7.0,-3.0,0.0,1.0,1650819797358437.0
-1.0,1.0,2.0,6.0,-2.0,6.0,2.0,-1.0,1650819797358437.0
1.0,2.0,0.0,-17.0,4.0,3.0,-1.0,2.0,1650819797359437.0
2.0,3.0,9.0,6.0,10.0,10.0,2.0,6.0,1650819797359437.0
-4.0,-1.0,-6.0,-2.0,-5.0,-9.0,-3.0,-7.0,1650819797380651.0
4.0,-3.0,-20.0,-23.0,-9.0,-11.0,-2.0,0.0,1650819797380651.0
-4.0,0.0,6.0,11.0,-6.0,-9.0,-3.0,-1.0,1650819797381605.0
-1.0,-1.0,2.0,12.0,2.0,1.0,-3.0,-4.0,1650819797381605.0
-1.0,1.0,7.0,-9.0,-2.0,1.0,1.0,0.0,1650819797395689.0
-1.0,2.0,2.0,11.0,5.0,4.0,3.0,0.0,1650819797395689.0
-4.0,-3.0,-4.0,-4.0,1.0,0.0,-2.0,0.0,1650819797396697.0
3.0,0.0,0.0,-3.0,-3.0,-1.0,-1.0,0.0,1650819797396697.0
-2.0,-1.0,0.0,3.0,-2.0,5.0,1.0,3.0,1650819797417812.0
-3.0,0.0,14.0,14.0,5.0,2.0,3.0,1.0,1650819797417812.0
1.0,-1.0,-12.0,-8.0,6.0,3.0,0.0,1.0,1650819797419739.0
5.0,1.0,-5.0,-15.0,-9.0,-1.0,1.0,-3.0,1650819797419739.0
-4.0,-4.0,-5.0,2.0,4.0,-5.0,-4.0,-1.0,1650819797440969.0
0.0,0.0,6.0,4.0,0.0,-1.0,-1.0,1.0,1650819797440969.0
-2.0,-5.0,-9.0,-10.0,-10.0,-9.0,-2.0,1.0,1650819797442897.0
-1.0,0.0,7.0,13.0,1.0,-5.0,-3.0,-2.0,1650819797442897.0
-1.0,0.0,0.0,-3.0,0.0,5.0,0.0,-2.0,1650819797454932.0
-3.0,0.0,0.0,1.0,5.0,16.0,3.0,0.0,1650819797454932.0
2.0,3.0,1.0,-3.0,2.0,6.0,2.0,1.0,1650819797461912.0
-1.0,1.0,-7.0,-3.0,2.0,1.0,3.0,1.0,1650819797461912.0
0.0,5.0,13.0,8.0,-4.0,-6.0,-2.0,0.0,1650819797477972.0
-2.0,-5.0,4.0,5.0,-7.0,-15.0,-3.0,-2.0,1650819797477972.0
0.0,2.0,1.0,0.0,4.0,3.0,-2.0,-1.0,1650819797479969.0
-3.0,-1.0,-8.0,-4.0,-3.0,-2.0,-2.0,-1.0,1650819797479969.0
0.0,2.0,4.0,6.0,3.0,3.0,1.0,1.0,1650819797500916.0
1.0,2.0,12.0,12.0,4.0,3.0,0.0,-1.0,1650819797500916.0
0.0,-2.0,-6.0,-5.0,-1.0,1.0,1.0,-2.0,1650819797501870.0
-1.0,-4.0,-15.0,-17.0,-4.0,-4.0,-2.0,0.0,1650819797501870.0
-1.0,-4.0,-4.0,-4.0,-4.0,-4.0,-1.0,-1.0,1650819797522922.0
1.0,2.0,-2.0,5.0,-1.0,0.0,-2.0,0.0,1650819797522922.0
-4.0,-1.0,1.0,1.0,0.0,2.0,1.0,2.0,1650819797524932.0
0.0,1.0,4.0,-6.0,4.0,10.0,3.0,2.0,1650819797524932.0
3.0,-3.0,-7.0,-6.0,3.0,3.0,0.0,0.0,1650819797537936.0
-2.0,-5.0,-14.0,-12.0,-9.0,-22.0,-6.0,-2.0,1650819797537936.0
0.0,4.0,23.0,22.0,-3.0,-1.0,-1.0,-1.0,1650819797539866.0
2.0,2.0,1.0,8.0,3.0,7.0,1.0,1.0,1650819797539866.0
-2.0,1.0,-4.0,-14.0,5.0,13.0,4.0,2.0,1650819797560963.0
3.0,1.0,6.0,4.0,6.0,5.0,2.0,3.0,1650819797560963.0
-1.0,-8.0,-35.0,-26.0,-11.0,-14.0,-3.0,-3.0,1650819797561978.0
-3.0,-1.0,6.0,8.0,-8.0,-13.0,-6.0,-2.0,1650819797561978.0
-1.0,-2.0,0.0,2.0,-7.0,-10.0,-4.0,-3.0,1650819797575106.0
-1.0,0.0,3.0,-4.0,4.0,12.0,1.0,-1.0,1650819797575106.0
-3.0,3.0,3.0,-2.0,13.0,12.0,3.0,-1.0,1650819797582094.0
5.0,-1.0,-2.0,8.0,9.0,10.0,3.0,3.0,1650819797582094.0
4.0,0.0,-2.0,-2.0,-4.0,-4.0,2.0,0.0,1650819797598354.0
-5.0,-3.0,0.0,-1.0,-13.0,-16.0,-6.0,-3.0,1650819797598354.0
0.0,-2.0,1.0,-3.0,-7.0,-4.0,-2.0,-2.0,1650819797599793.0
0.0,-2.0,-8.0,-6.0,1.0,-2.0,0.0,-2.0,1650819797599793.0
-2.0,-3.0,5.0,8.0,5.0,7.0,1.0,0.0,1650819797620977.0
2.0,-2.0,-19.0,-7.0,-2.0,0.0,-1.0,-2.0,1650819797620977.0
3.0,1.0,3.0,1.0,0.0,-4.0,0.0,0.0,1650819797621938.0
-3.0,-2.0,-5.0,-8.0,-7.0,-8.0,-1.0,-2.0,1650819797621938.0
-4.0,-1.0,3.0,3.0,-1.0,-7.0,0.0,0.0,1650819797634873.0
-2.0,-1.0,14.0,16.0,4.0,9.0,2.0,-2.0,1650819797634873.0
-1.0,-4.0,1.0,-3.0,4.0,7.0,-1.0,-1.0,1650819797641923.0
2.0,-1.0,1.0,3.0,-5.0,-7.0,-1.0,0.0,1650819797641923.0
0.0,4.0,-6.0,-8.0,-4.0,-7.0,-3.0,0.0,1650819797657119.0
-1.0,-6.0,-17.0,-18.0,-1.0,2.0,-2.0,2.0,1650819797657119.0
3.0,5.0,23.0,19.0,-3.0,-2.0,0.0,1.0,1650819797658132.0
1.0,3.0,9.0,7.0,14.0,16.0,3.0,0.0,1650819797658132.0
-4.0,-4.0,-7.0,-4.0,-2.0,1.0,-1.0,2.0,1650819797679489.0
5.0,0.0,0.0,-6.0,-6.0,-8.0,-4.0,-7.0,1650819797679489.0
-1.0,0.0,-5.0,4.0,0.0,-2.0,-1.0,-1.0,1650819797680430.0
-3.0,-2.0,1.0,-6.0,-12.0,-7.0,-4.0,-2.0,1650819797680430.0
-1.0,-3.0,5.0,0.0,-1.0,-16.0,-3.0,0.0,1650819797694449.0
-3.0,4.0,8.0,6.0,9.0,15.0,4.0,1.0,1650819797694449.0
-2.0,-4.0,-19.0,-16.0,-3.0,13.0,1.0,-1.0,1650819797702428.0
4.0,2.0,7.0,3.0,3.0,-2.0,1.0,0.0,1650819797702428.0
1.0,-6.0,-15.0,-7.0,-11.0,-12.0,-2.0,-3.0,1650819797717654.0
-3.0,2.0,5.0,6.0,-2.0,-5.0,0.0,1.0,1650819797717654.0
4.0,4.0,3.0,7.0,13.0,4.0,2.0,2.0,1650819797724752.0
-4.0,0.0,-2.0,-28.0,9.0,12.0,5.0,3.0,1650819797724752.0
4.0,1.0,18.0,32.0,3.0,3.0,-1.0,-2.0,1650819797739926.0
-1.0,-6.0,-9.0,-7.0,-6.0,-13.0,-5.0,-1.0,1650819797739926.0
-6.0,-3.0,-7.0,-11.0,-20.0,-20.0,-5.0,-4.0,1650819797740888.0
0.0,0.0,11.0,21.0,2.0,-1.0,1.0,0.0,1650819797740888.0
-6.0,2.0,-1.0,-14.0,20.0,26.0,7.0,2.0,1650819797753822.0
9.0,2.0,-2.0,3.0,7.0,10.0,4.0,-1.0,1650819797753822.0
0.0,-6.0,1.0,2.0,-12.0,-26.0,-7.0,-1.0,1650819797762806.0
-4.0,-4.0,-2.0,1.0,-5.0,-10.0,-6.0,-3.0,1650819797762806.0
0.0,-1.0,8.0,4.0,3.0,31.0,3.0,1.0,1650819797777755.0
-4.0,0.0,7.0,3.0,8.0,10.0,2.0,3.0,1650819797777755.0
1.0,-2.0,-12.0,-5.0,3.0,-4.0,0.0,1.0,1650819797777755.0
-1.0,1.0,2.0,3.0,-12.0,-19.0,-6.0,-3.0,1650819797777755.0
-3.0,-5.0,-6.0,-4.0,-8.0,-14.0,-4.0,-4.0,1650819797799917.0
-1.0,2.0,-4.0,-9.0,-4.0,-4.0,-2.0,0.0,1650819797799917.0
1.0,-4.0,-2.0,1.0,1.0,7.0,-1.0,1.0,1650819797800875.0
-3.0,-3.0,6.0,11.0,0.0,4.0,-1.0,-4.0,1650819797800875.0
1.0,1.0,-8.0,-9.0,5.0,5.0,2.0,-1.0,1650819797813879.0
-1.0,-1.0,-2.0,0.0,-2.0,-1.0,-1.0,1.0,1650819797813879.0
0.0,2.0,8.0,-1.0,-2.0,-5.0,0.0,0.0,1650819797822764.0
-1.0,1.0,-1.0,2.0,4.0,6.0,1.0,1.0,1650819797822764.0
4.0,0.0,6.0,5.0,-11.0,-6.0,-4.0,-3.0,1650819797837808.0
-12.0,-5.0,-14.0,-12.0,-8.0,-11.0,-1.0,-3.0,1650819797837808.0
1.0,2.0,4.0,9.0,16.0,17.0,3.0,1.0,1650819797837808.0
0.0,2.0,0.0,-2.0,2.0,6.0,0.0,0.0,1650819797837808.0
-4.0,4.0,0.0,-5.0,-2.0,-7.0,-2.0,0.0,1650819797859929.0
7.0,-2.0,-6.0,-13.0,-7.0,-6.0,-1.0,3.0,1650819797859929.0
0.0,1.0,4.0,2.0,-6.0,-10.0,0.0,-3.0,1650819797866982.0
-5.0,-5.0,-13.0,1.0,-5.0,2.0,-1.0,0.0,1650819797866982.0
1.0,-4.0,-3.0,-1.0,7.0,6.0,0.0,0.0,1650819797874557.0
0.0,2.0,2.0,2.0,0.0,-2.0,-2.0,-2.0,1650819797874557.0
-4.0,2.0,-2.0,-1.0,1.0,7.0,1.0,-1.0,1650819797882805.0
0.0,1.0,3.0,-4.0,-1.0,-10.0,-1.0,0.0,1650819797882805.0
4.0,-4.0,-7.0,-4.0,-5.0,-5.0,-3.0,0.0,1650819797897742.0
-2.0,0.0,-1.0,-1.0,4.0,7.0,-3.0,-1.0,1650819797897742.0
1.0,1.0,6.0,2.0,-1.0,-2.0,3.0,2.0,1650819797897742.0
-1.0,-1.0,4.0,6.0,-3.0,-3.0,0.0,0.0,1650819797897742.0
-1.0,-1.0,-22.0,-13.0,-5.0,0.0,1.0,-1.0,1650819797919819.0
1.0,-1.0,7.0,7.0,5.0,5.0,5.0,0.0,1650819797919819.0
0.0,-2.0,-12.0,-12.0,4.0,2.0,-2.0,-1.0,1650819797920751.0
-3.0,-2.0,-5.0,-8.0,-6.0,-3.0,-4.0,-2.0,1650819797920751.0
1.0,4.0,10.0,2.0,3.0,-2.0,0.0,2.0,1650819797934529.0
0.0,-3.0,16.0,22.0,-4.0,-7.0,-2.0,-3.0,1650819797934529.0
0.0,1.0,1.0,5.0,-1.0,1.0,4.0,1.0,1650819797942817.0
-2.0,-3.0,-13.0,-8.0,4.0,4.0,-1.0,-2.0,1650819797942817.0
-4.0,5.0,8.0,-1.0,1.0,0.0,0.0,-2.0,1650819797956970.0
5.0,-2.0,-10.0,-11.0,-5.0,-5.0,-1.0,0.0,1650819797956970.0
-2.0,-1.0,4.0,4.0,-2.0,10.0,0.0,0.0,1650819797957915.0
1.0,5.0,3.0,2.0,-2.0,-6.0,-2.0,-6.0,1650819797957915.0
-4.0,-3.0,6.0,6.0,-3.0,-2.0,-1.0,0.0,1650819797979934.0
-1.0,5.0,4.0,3.0,3.0,7.0,3.0,2.0,1650819797979934.0
-3.0,1.0,-12.0,-13.0,10.0,2.0,0.0,1.0,1650819797980893.0
1.0,-6.0,0.0,6.0,-6.0,-1.0,-2.0,2.0,1650819797980893.0
1.0,1.0,-8.0,-6.0,-13.0,-24.0,-8.0,-4.0,1650819798003405.0
-1.0,0.0,4.0,3.0,-5.0,1.0,2.0,0.0,1650819798003405.0
2.0,0.0,0.0,-5.0,5.0,12.0,1.0,0.0,1650819798003905.0
-1.0,1.0,2.0,-6.0,10.0,16.0,7.0,2.0,1650819798003905.0
2.0,-2.0,5.0,12.0,6.0,2.0,2.0,1.0,1650819798017729.0
-2.0,-3.0,-15.0,-19.0,-7.0,-17.0,-6.0,-1.0,1650819798017729.0
0.0,0.0,5.0,7.0,-7.0,-8.0,-3.0,-3.0,1650819798017958.0
-2.0,-3.0,-4.0,-9.0,-2.0,7.0,2.0,1.0,1650819798017958.0
-2.0,-1.0,4.0,13.0,2.0,-2.0,-1.0,2.0,1650819798039778.0
2.0,0.0,-4.0,-5.0,2.0,5.0,-1.0,1.0,1650819798039778.0
-2.0,-4.0,0.0,2.0,-6.0,-8.0,-1.0,0.0,1650819798040710.0
0.0,-2.0,-1.0,0.0,-5.0,-9.0,-2.0,0.0,1650819798040710.0
-4.0,1.0,-8.0,-13.0,0.0,3.0,0.0,-2.0,1650819798061869.0
0.0,0.0,7.0,16.0,1.0,1.0,-1.0,-1.0,1650819798061869.0
-2.0,-1.0,-5.0,1.0,1.0,-2.0,-2.0,1.0,1650819798069849.0
3.0,7.0,6.0,1.0,1.0,1.0,0.0,0.0,1650819798069849.0
-1.0,0.0,-8.0,-8.0,-4.0,2.0,3.0,2.0,1650819798077594.0
-3.0,-3.0,-4.0,-7.0,-4.0,-2.0,-3.0,-1.0,1650819798077594.0
-1.0,1.0,6.0,8.0,6.0,2.0,2.0,-2.0,1650819798077594.0
1.0,2.0,0.0,-12.0,-2.0,-8.0,-5.0,-1.0,1650819798077594.0
1.0,-2.0,3.0,13.0,-4.0,-1.0,-3.0,-2.0,1650819798099941.0
-1.0,2.0,4.0,1.0,5.0,14.0,5.0,1.0,1650819798099941.0
6.0,2.0,5.0,-2.0,-5.0,2.0,1.0,-1.0,1650819798100872.0
-13.0,-5.0,-6.0,-1.0,4.0,0.0,1.0,-1.0,1650819798100872.0
1.0,0.0,-4.0,-7.0,3.0,-1.0,0.0,2.0,1650819798123029.0
-3.0,0.0,5.0,13.0,-2.0,-8.0,-4.0,-1.0,1650819798123029.0
0.0,0.0,1.0,-6.0,-7.0,-7.0,-5.0,-2.0,1650819798123960.0
0.0,-3.0,-12.0,-9.0,-7.0,-11.0,-5.0,-3.0,1650819798123960.0
0.0,0.0,1.0,3.0,3.0,17.0,3.0,0.0,1650819798137983.0
-2.0,2.0,0.0,-5.0,5.0,7.0,2.0,1.0,1650819798137983.0
0.0,0.0,2.0,0.0,-3.0,-6.0,-2.0,0.0,1650819798144973.0
-1.0,-2.0,-7.0,-7.0,-6.0,-9.0,0.0,0.0,1650819798144973.0
1.0,-2.0,4.0,7.0,2.0,-3.0,-2.0,-2.0,1650819798160126.0
0.0,-4.0,-9.0,-10.0,-2.0,0.0,2.0,0.0,1650819798160126.0
-1.0,-3.0,-5.0,-4.0,-1.0,-1.0,-3.0,-2.0,1650819798160126.0
-2.0,2.0,6.0,6.0,6.0,2.0,-1.0,2.0,1650819798160126.0
1.0,-3.0,-3.0,-12.0,-4.0,-1.0,0.0,-1.0,1650819798182240.0
0.0,-2.0,5.0,5.0,-1.0,0.0,-1.0,1.0,1650819798182240.0
-3.0,-1.0,-4.0,1.0,-3.0,-4.0,0.0,-1.0,1650819798183172.0
3.0,1.0,4.0,6.0,-2.0,4.0,-1.0,-2.0,1650819798183172.0
-3.0,-1.0,1.0,-3.0,-2.0,-3.0,0.0,-1.0,1650819798197733.0
-1.0,2.0,-3.0,-5.0,-1.0,-1.0,-3.0,-2.0,1650819798197733.0
3.0,-1.0,-8.0,-1.0,3.0,2.0,-1.0,-1.0,1650819798197733.0
4.0,-1.0,-5.0,-9.0,-1.0,-5.0,0.0,1.0,1650819798197733.0
0.0,3.0,12.0,9.0,0.0,2.0,1.0,-1.0,1650819798220106.0
-4.0,-5.0,-13.0,2.0,-6.0,-4.0,-3.0,-2.0,1650819798220106.0
-2.0,0.0,2.0,-1.0,-2.0,-5.0,-3.0,0.0,1650819798220106.0
3.0,0.0,-5.0,2.0,9.0,9.0,-1.0,-1.0,1650819798220106.0
1.0,1.0,4.0,2.0,2.0,10.0,5.0,0.0,1650819798242786.0
2.0,2.0,-1.0,-10.0,0.0,1.0,3.0,0.0,1650819798242786.0
3.0,0.0,4.0,5.0,-3.0,-4.0,-1.0,-2.0,1650819798242786.0
-2.0,-1.0,0.0,5.0,-11.0,-16.0,-4.0,-3.0,1650819798242786.0
-1.0,-2.0,-2.0,-1.0,9.0,1.0,-4.0,0.0,1650819798257778.0
0.0,-3.0,-5.0,-7.0,-1.0,4.0,-2.0,-2.0,1650819798257778.0
-2.0,0.0,4.0,4.0,9.0,13.0,4.0,2.0,1650819798257778.0
1.0,3.0,7.0,3.0,1.0,-1.0,1.0,0.0,1650819798257778.0
-1.0,-1.0,-3.0,-4.0,-5.0,-6.0,-1.0,0.0,1650819798279873.0
-2.0,0.0,0.0,4.0,3.0,1.0,0.0,1.0,1650819798279873.0
-1.0,-2.0,-4.0,-3.0,-4.0,-4.0,-2.0,0.0,1650819798280802.0
0.0,1.0,9.0,7.0,-4.0,-4.0,0.0,-1.0,1650819798280802.0
-3.0,-3.0,-12.0,-5.0,-4.0,10.0,1.0,-2.0,1650819798302765.0
1.0,3.0,1.0,-8.0,1.0,-6.0,0.0,-1.0,1650819798302765.0
1.0,2.0,2.0,1.0,-1.0,0.0,-1.0,1.0,1650819798302765.0
-1.0,-3.0,-3.0,1.0,3.0,3.0,2.0,1.0,1650819798302765.0
1.0,-1.0,1.0,3.0,3.0,-4.0,0.0,0.0,1650819798317737.0
-1.0,1.0,3.0,3.0,-2.0,-5.0,-4.0,-3.0,1650819798317737.0
-2.0,-3.0,-2.0,1.0,-5.0,-1.0,-1.0,-1.0,1650819798317737.0
1.0,-1.0,-8.0,-10.0,-8.0,1.0,0.0,-2.0,1650819798317737.0
0.0,-1.0,-3.0,9.0,-5.0,-3.0,-2.0,0.0,1650819798339926.0
0.0,-1.0,2.0,3.0,13.0,11.0,1.0,0.0,1650819798339926.0
-1.0,0.0,4.0,1.0,3.0,3.0,0.0,-1.0,1650819798340858.0
-1.0,-1.0,0.0,-1.0,-4.0,0.0,-2.0,-1.0,1650819798340858.0
1.0,-2.0,-5.0,-10.0,-11.0,-18.0,-4.0,-1.0,1650819798361921.0
-9.0,-3.0,2.0,3.0,-6.0,-4.0,-2.0,0.0,1650819798361921.0
5.0,0.0,-2.0,2.0,10.0,20.0,3.0,-1.0,1650819798362853.0
-1.0,2.0,5.0,6.0,8.0,12.0,2.0,2.0,1650819798362853.0
3.0,3.0,1.0,-5.0,3.0,3.0,3.0,0.0,1650819798377827.0
2.0,0.0,-3.0,-6.0,-7.0,-11.0,-2.0,1.0,1650819798377827.0
-5.0,-1.0,-2.0,-9.0,-4.0,-12.0,-2.0,0.0,1650819798377827.0
1.0,-3.0,-10.0,4.0,-7.0,-2.0,-4.0,-1.0,1650819798377827.0
-1.0,-4.0,0.0,-11.0,-3.0,-4.0,-1.0,-2.0,1650819798399937.0
1.0,0.0,-1.0,5.0,-1.0,-4.0,-3.0,-4.0,1650819798399937.0
-3.0,-3.0,-3.0,-4.0,-8.0,-4.0,-3.0,0.0,1650819798400899.0
1.0,3.0,2.0,-3.0,15.0,5.0,-1.0,-2.0,1650819798400899.0
-3.0,2.0,1.0,6.0,-9.0,-15.0,-3.0,0.0,1650819798421991.0
1.0,-3.0,1.0,3.0,7.0,27.0,9.0,2.0,1650819798421991.0
2.0,2.0,2.0,0.0,18.0,32.0,7.0,0.0,1650819798422960.0
-2.0,-1.0,1.0,-4.0,7.0,3.0,3.0,1.0,1650819798422960.0
-1.0,-1.0,1.0,-1.0,-9.0,-16.0,-8.0,-3.0,1650819798437017.0
-2.0,-3.0,-4.0,-9.0,-19.0,-27.0,-6.0,-2.0,1650819798437017.0
-1.0,-2.0,0.0,4.0,-10.0,-14.0,-3.0,-2.0,1650819798437948.0
-2.0,-1.0,-2.0,3.0,7.0,9.0,1.0,-1.0,1650819798437948.0
-1.0,0.0,3.0,2.0,8.0,9.0,0.0,0.0,1650819798459940.0
1.0,0.0,-2.0,-6.0,-15.0,-13.0,-1.0,-1.0,1650819798459940.0
-4.0,-1.0,-1.0,0.0,-2.0,-16.0,-3.0,-1.0,1650819798460900.0
-1.0,-2.0,-1.0,2.0,-4.0,2.0,-2.0,-2.0,1650819798460900.0
3.0,3.0,-3.0,-7.0,12.0,30.0,11.0,3.0,1650819798482555.0
2.0,3.0,8.0,22.0,33.0,31.0,3.0,1.0,1650819798482555.0
0.0,-8.0,-5.0,-4.0,-2.0,-1.0,1.0,-1.0,1650819798482555.0
-2.0,-4.0,-2.0,-11.0,-19.0,-28.0,-4.0,-1.0,1650819798482555.0
-3.0,-2.0,-3.0,-3.0,-12.0,-12.0,-4.0,-4.0,1650819798498719.0
0.0,0.0,-2.0,1.0,-8.0,-9.0,-5.0,0.0,1650819798498719.0
0.0,1.0,0.0,-2.0,-6.0,-3.0,-2.0,-2.0,1650819798499741.0
0.0,2.0,2.0,3.0,0.0,-5.0,-1.0,1.0,1650819798499741.0
-1.0,-2.0,4.0,6.0,7.0,11.0,1.0,1.0,1650819798519924.0
0.0,3.0,0.0,-2.0,9.0,5.0,2.0,4.0,1650819798519924.0
1.0,0.0,1.0,0.0,-10.0,-8.0,-5.0,-2.0,1650819798520881.0
0.0,-3.0,0.0,2.0,-1.0,4.0,1.0,-2.0,1650819798520881.0
-2.0,1.0,-2.0,5.0,1.0,5.0,-1.0,-2.0,1650819798550863.0
-1.0,-1.0,0.0,-5.0,3.0,12.0,2.0,0.0,1650819798550863.0
-2.0,0.0,-1.0,0.0,-3.0,-4.0,1.0,0.0,1650819798550863.0
1.0,2.0,2.0,3.0,2.0,3.0,0.0,-1.0,1650819798550863.0
0.0,-1.0,-2.0,2.0,9.0,2.0,2.0,0.0,1650819798556806.0
0.0,-2.0,-3.0,-8.0,-10.0,-18.0,-5.0,-3.0,1650819798556806.0
-3.0,2.0,0.0,1.0,-4.0,-3.0,-1.0,-3.0,1650819798557776.0
-1.0,-2.0,-2.0,-1.0,-3.0,3.0,0.0,-1.0,1650819798557776.0
-2.0,1.0,-3.0,-3.0,-1.0,3.0,-1.0,-3.0,1650819798579599.0
1.0,-1.0,0.0,-4.0,-15.0,-7.0,0.0,0.0,1650819798579599.0
-1.0,0.0,3.0,5.0,8.0,-9.0,0.0,1.0,1650819798580531.0
-1.0,-3.0,-6.0,-7.0,7.0,-2.0,-3.0,0.0,1650819798580531.0
2.0,-1.0,-3.0,4.0,-5.0,14.0,0.0,2.0,1650819798601921.0
0.0,1.0,1.0,0.0,11.0,12.0,5.0,2.0,1650819798601921.0
1.0,0.0,-5.0,-8.0,-13.0,-22.0,-4.0,3.0,1650819798602864.0
0.0,3.0,1.0,0.0,-9.0,-8.0,1.0,0.0,1650819798602864.0
-4.0,-7.0,0.0,2.0,13.0,14.0,1.0,-3.0,1650819798617453.0
1.0,2.0,11.0,9.0,7.0,12.0,5.0,3.0,1650819798617453.0
-1.0,-5.0,-23.0,-27.0,-6.0,-5.0,-4.0,-3.0,1650819798625109.0
2.0,2.0,6.0,8.0,-8.0,-5.0,-1.0,0.0,1650819798625109.0
0.0,1.0,3.0,-1.0,-9.0,-14.0,-3.0,1.0,1650819798639889.0
-3.0,-3.0,-3.0,-6.0,-16.0,-27.0,-6.0,-4.0,1650819798639889.0
-1.0,-1.0,3.0,6.0,6.0,8.0,0.0,0.0,1650819798640819.0
-1.0,-1.0,-3.0,1.0,19.0,34.0,6.0,2.0,1650819798640819.0
-1.0,0.0,3.0,0.0,3.0,-2.0,2.0,1.0,1650819798662763.0
0.0,-3.0,0.0,-4.0,-4.0,-9.0,-4.0,-4.0,1650819798662763.0
0.0,3.0,4.0,5.0,-9.0,-15.0,-3.0,-1.0,1650819798662763.0
-2.0,-5.0,-5.0,-1.0,-4.0,-1.0,4.0,0.0,1650819798662763.0
3.0,7.0,3.0,5.0,14.0,15.0,5.0,3.0,1650819798677752.0
-1.0,0.0,-8.0,-5.0,0.0,-1.0,-3.0,-1.0,1650819798677752.0
-2.0,0.0,1.0,1.0,-11.0,-8.0,-3.0,0.0,1650819798677752.0
-1.0,-3.0,6.0,5.0,-2.0,3.0,-2.0,-2.0,1650819798677752.0
2.0,2.0,-4.0,-5.0,2.0,11.0,3.0,0.0,1650819798699977.0
2.0,1.0,-2.0,2.0,-1.0,-4.0,0.0,-1.0,1650819798699977.0
-2.0,-8.0,-3.0,-3.0,-6.0,-17.0,-3.0,-3.0,1650819798700934.0
-2.0,1.0,2.0,-1.0,-3.0,-2.0,-1.0,1.0,1650819798700934.0
-2.0,0.0,0.0,5.0,14.0,22.0,4.0,2.0,1650819798722737.0
1.0,1.0,-1.0,-2.0,12.0,12.0,2.0,1.0,1650819798722737.0
2.0,2.0,1.0,3.0,2.0,6.0,8.0,4.0,1650819798722737.0
-3.0,-5.0,-7.0,-8.0,-17.0,-26.0,-12.0,-3.0,1650819798722737.0
-2.0,-4.0,1.0,1.0,-6.0,-22.0,-14.0,-8.0,1650819798737704.0
-2.0,-1.0,-3.0,-5.0,7.0,14.0,-3.0,-2.0,1650819798737704.0
0.0,0.0,0.0,4.0,4.0,15.0,7.0,2.0,1650819798738534.0
1.0,3.0,-3.0,-3.0,-7.0,-5.0,2.0,-2.0,1650819798738534.0
-2.0,1.0,0.0,0.0,-12.0,-12.0,2.0,-2.0,1650819798759697.0
0.0,-4.0,0.0,1.0,6.0,-1.0,2.0,6.0,1650819798759697.0
0.0,6.0,8.0,2.0,8.0,5.0,1.0,-2.0,1650819798760627.0
-2.0,-8.0,-5.0,-1.0,4.0,10.0,3.0,-2.0,1650819798760627.0
1.0,0.0,-3.0,-2.0,-6.0,-6.0,-2.0,0.0,1650819798781918.0
0.0,3.0,2.0,-2.0,-12.0,-11.0,-2.0,-2.0,1650819798781918.0
-4.0,-6.0,-9.0,-5.0,3.0,7.0,-6.0,-4.0,1650819798782859.0
0.0,7.0,3.0,-2.0,-8.0,-8.0,-5.0,0.0,1650819798782859.0
-1.0,-9.0,-1.0,-1.0,-1.0,-8.0,-1.0,-2.0,1650819798796879.0
2.0,4.0,3.0,7.0,10.0,4.0,4.0,1.0,1650819798796879.0
3.0,3.0,3.0,3.0,3.0,12.0,2.0,1.0,1650819798804858.0
-2.0,1.0,-2.0,-4.0,8.0,4.0,2.0,-1.0,1650819798804858.0
-5.0,-6.0,-1.0,-3.0,-10.0,-15.0,-3.0,-9.0,1650819798819924.0
-1.0,-5.0,-2.0,4.0,-11.0,-4.0,-2.0,6.0,1650819798819924.0
0.0,-2.0,-2.0,-6.0,3.0,9.0,-2.0,-2.0,1650819798820883.0
-1.0,2.0,1.0,-1.0,-5.0,-10.0,0.0,5.0,1650819798820883.0
1.0,1.0,-1.0,-5.0,-9.0,-8.0,-5.0,-3.0,1650819798841920.0
2.0,0.0,-1.0,-1.0,7.0,8.0,-2.0,-6.0,1650819798841920.0
-1.0,-1.0,2.0,4.0,3.0,3.0,0.0,3.0,1650819798842864.0
2.0,-1.0,2.0,4.0,-3.0,-14.0,-3.0,-3.0,1650819798842864.0
-4.0,1.0,-1.0,-6.0,-2.0,4.0,0.0,1.0,1650819798856779.0
-3.0,-9.0,-3.0,-4.0,6.0,18.0,4.0,3.0,1650819798856779.0
0.0,4.0,-1.0,2.0,5.0,7.0,2.0,-1.0,1650819798864510.0
-1.0,0.0,-1.0,2.0,-9.0,-19.0,-5.0,6.0,1650819798864510.0
2.0,7.0,8.0,10.0,12.0,5.0,-2.0,-7.0,1650819798879752.0
-5.0,4.0,-6.0,-2.0,2.0,12.0,0.0,-8.0,1650819798879752.0
-2.0,-19.0,0.0,3.0,8.0,-3.0,2.0,6.0,1650819798880685.0
-1.0,0.0,-2.0,-10.0,-14.0,-7.0,2.0,2.0,1650819798880685.0
-3.0,-10.0,-7.0,-9.0,-9.0,-22.0,-6.0,0.0,1650819798902759.0
2.0,2.0,0.0,5.0,1.0,2.0,-1.0,2.0,1650819798902759.0
1.0,10.0,5.0,3.0,4.0,8.0,2.0,1.0,1650819798902759.0
0.0,3.0,-2.0,-1.0,3.0,7.0,2.0,-1.0,1650819798902759.0
0.0,-5.0,1.0,2.0,-5.0,-7.0,1.0,4.0,1650819798916756.0
-3.0,-1.0,-1.0,-3.0,-6.0,-15.0,-3.0,-3.0,1650819798916756.0
-3.0,1.0,6.0,2.0,-3.0,8.0,-6.0,-3.0,1650819798924870.0
5.0,-2.0,-12.0,-11.0,0.0,4.0,-1.0,-1.0,1650819798924870.0
1.0,4.0,1.0,3.0,-1.0,-1.0,1.0,0.0,1650819798939954.0
-2.0,-1.0,1.0,0.0,-2.0,-9.0,1.0,2.0,1650819798939954.0
0.0,-2.0,-1.0,-1.0,-1.0,-5.0,0.0,-2.0,1650819798940884.0
-5.0,-2.0,6.0,9.0,10.0,13.0,2.0,-3.0,1650819798940884.0
-3.0,-2.0,-3.0,-5.0,3.0,7.0,-1.0,-1.0,1650819798961924.0
2.0,0.0,-3.0,-4.0,-7.0,-19.0,-6.0,-4.0,1650819798961924.0
2.0,1.0,3.0,4.0,-9.0,-5.0,2.0,3.0,1650819798962871.0
2.0,5.0,3.0,3.0,8.0,19.0,5.0,2.0,1650819798962871.0
1.0,4.0,-3.0,-3.0,1.0,7.0,1.0,0.0,1650819798977881.0
0.0,-1.0,-9.0,-7.0,-2.0,-5.0,1.0,0.0,1650819798977881.0
-5.0,-6.0,-7.0,-7.0,-3.0,-6.0,-5.0,-9.0,1650819798984933.0
-1.0,3.0,-2.0,-5.0,-5.0,-14.0,-10.0,-4.0,1650819798984933.0
-1.0,-6.0,13.0,16.0,3.0,-1.0,3.0,8.0,1650819798999893.0
3.0,4.0,-5.0,-8.0,-6.0,-1.0,1.0,3.0,1650819798999893.0
6.0,5.0,-2.0,-4.0,3.0,6.0,3.0,0.0,1650819799000823.0
-14.0,-16.0,-7.0,-8.0,-1.0,2.0,-2.0,-4.0,1650819799000823.0
-7.0,1.0,1.0,4.0,-2.0,-3.0,-1.0,-3.0,1650819799022704.0
-3.0,-5.0,2.0,7.0,-2.0,-1.0,-3.0,-7.0,1650819799022704.0
7.0,3.0,-3.0,-4.0,-3.0,-5.0,-3.0,3.0,1650819799022704.0
3.0,13.0,4.0,2.0,6.0,2.0,-4.0,-6.0,1650819799022704.0
7.0,4.0,-2.0,-2.0,-6.0,-9.0,3.0,9.0,1650819799036783.0
-1.0,-6.0,2.0,-1.0,0.0,4.0,1.0,-2.0,1650819799036783.0
6.0,1.0,2.0,-2.0,0.0,11.0,5.0,6.0,1650819799044927.0
-3.0,2.0,-1.0,0.0,7.0,7.0,-6.0,-10.0,1650819799044927.0
2.0,5.0,2.0,-5.0,-5.0,-7.0,-2.0,-3.0,1650819799061041.0
-6.0,-11.0,-5.0,-7.0,-4.0,-6.0,1.0,8.0,1650819799061041.0
-1.0,0.0,1.0,7.0,-7.0,-8.0,-1.0,2.0,1650819799062038.0
-5.0,-8.0,0.0,2.0,-1.0,-3.0,-8.0,-14.0,1650819799062038.0
9.0,11.0,-7.0,-14.0,-4.0,-1.0,3.0,2.0,1650819799082738.0
1.0,12.0,4.0,6.0,3.0,2.0,-2.0,-5.0,1650819799082738.0
-12.0,-11.0,-7.0,-1.0,-2.0,-2.0,1.0,1.0,1650819799082738.0
6.0,-9.0,-3.0,-1.0,-2.0,1.0,1.0,0.0,1650819799082738.0
-2.0,1.0,-1.0,0.0,3.0,3.0,-2.0,-5.0,1650819799096247.0
-9.0,8.0,4.0,2.0,-1.0,-3.0,-11.0,-15.0,1650819799096247.0
-9.0,-13.0,-1.0,-2.0,3.0,2.0,6.0,4.0,1650819799105354.0
-2.0,39.0,8.0,-2.0,-3.0,-6.0,-10.0,-16.0,1650819799105354.0
11.0,-3.0,-5.0,5.0,4.0,5.0,7.0,12.0,1650819799119519.0
8.0,-22.0,6.0,6.0,3.0,5.0,16.0,23.0,1650819799119519.0
13.0,24.0,5.0,2.0,6.0,3.0,5.0,5.0,1650819799120450.0
15.0,2.0,5.0,10.0,2.0,-2.0,-6.0,-8.0,1650819799120450.0
-11.0,19.0,3.0,1.0,-1.0,5.0,4.0,-3.0,1650819799142596.0
-30.0,-55.0,-29.0,-21.0,-17.0,-17.0,-26.0,-37.0,1650819799142596.0
0.0,57.0,7.0,1.0,-2.0,-5.0,-7.0,0.0,1650819799143565.0
-25.0,-46.0,-4.0,-3.0,-1.0,2.0,4.0,3.0,1650819799143565.0
18.0,30.0,6.0,-2.0,-1.0,-3.0,4.0,14.0,1650819799165815.0
17.0,1.0,-16.0,-3.0,3.0,7.0,6.0,9.0,1650819799165815.0
-20.0,-5.0,19.0,6.0,2.0,-5.0,-19.0,-32.0,1650819799165815.0
-6.0,34.0,-7.0,-1.0,1.0,-5.0,-8.0,-18.0,1650819799165815.0
12.0,-6.0,10.0,10.0,5.0,19.0,11.0,19.0,1650819799179947.0
6.0,14.0,-2.0,-7.0,2.0,7.0,14.0,18.0,1650819799179947.0
2.0,-15.0,-8.0,-5.0,2.0,-1.0,-9.0,-9.0,1650819799180878.0
5.0,-3.0,0.0,0.0,-4.0,-2.0,4.0,9.0,1650819799180878.0
-12.0,-21.0,1.0,3.0,-6.0,-9.0,-2.0,-7.0,1650819799202004.0
-1.0,11.0,13.0,3.0,-10.0,-12.0,-8.0,1.0,1650819799202004.0
15.0,11.0,4.0,3.0,6.0,7.0,19.0,27.0,1650819799202945.0
3.0,-34.0,15.0,6.0,13.0,14.0,12.0,7.0,1650819799202945.0
-4.0,-21.0,-28.0,-11.0,-5.0,-5.0,0.0,2.0,1650819799225256.0
-11.0,17.0,9.0,7.0,-5.0,-1.0,-15.0,-17.0,1650819799225256.0
7.0,-8.0,-13.0,-5.0,-5.0,0.0,4.0,-15.0,1650819799226200.0
18.0,15.0,17.0,3.0,4.0,0.0,2.0,24.0,1650819799226200.0
-14.0,-2.0,-13.0,-7.0,-4.0,-5.0,-3.0,-16.0,1650819799239909.0
-7.0,-8.0,20.0,5.0,-9.0,-14.0,-6.0,-2.0,1650819799239909.0
-10.0,-41.0,-9.0,6.0,16.0,13.0,-3.0,-9.0,1650819799240883.0
9.0,30.0,-12.0,2.0,11.0,17.0,3.0,-9.0,1650819799240883.0
7.0,-17.0,13.0,5.0,4.0,4.0,-8.0,-3.0,1650819799261892.0
10.0,22.0,-4.0,-1.0,-4.0,-8.0,2.0,7.0,1650819799261892.0
-8.0,-6.0,3.0,-1.0,-11.0,-12.0,-10.0,-10.0,1650819799262889.0
-5.0,-10.0,-19.0,-18.0,-17.0,-11.0,-1.0,4.0,1650819799262889.0
-13.0,-6.0,-23.0,-14.0,-7.0,-9.0,-16.0,-19.0,1650819799285951.0
8.0,19.0,19.0,17.0,12.0,8.0,11.0,12.0,1650819799285951.0
6.0,-2.0,-9.0,-9.0,-2.0,4.0,-1.0,-5.0,1650819799285951.0
-7.0,-13.0,6.0,8.0,3.0,-3.0,-2.0,2.0,1650819799285951.0
-10.0,4.0,1.0,-6.0,-9.0,-15.0,-9.0,-8.0,1650819799300981.0
5.0,-14.0,-3.0,4.0,8.0,14.0,4.0,-3.0,1650819799300981.0
-2.0,-6.0,-13.0,-13.0,-13.0,0.0,-5.0,-10.0,1650819799300981.0
-4.0,15.0,-7.0,-7.0,-7.0,-1.0,3.0,8.0,1650819799300981.0
-1.0,-28.0,7.0,5.0,9.0,1.0,-8.0,-5.0,1650819799330945.0
10.0,13.0,-19.0,0.0,8.0,2.0,6.0,-9.0,1650819799330945.0
0.0,14.0,13.0,2.0,-6.0,-6.0,8.0,35.0,1650819799330945.0
-4.0,-10.0,-9.0,-5.0,-9.0,-8.0,-6.0,-14.0,1650819799330945.0
3.0,-8.0,4.0,10.0,0.0,-3.0,3.0,4.0,1650819799345939.0
-23.0,-7.0,-11.0,-20.0,-5.0,-8.0,-5.0,-9.0,1650819799345939.0
-2.0,13.0,10.0,3.0,4.0,9.0,-11.0,-23.0,1650819799345939.0
30.0,15.0,8.0,17.0,14.0,14.0,41.0,58.0,1650819799345939.0
8.0,17.0,8.0,0.0,6.0,8.0,12.0,6.0,1650819799360072.0
-3.0,-4.0,16.0,0.0,-4.0,-7.0,-16.0,-16.0,1650819799360072.0
-5.0,-7.0,-10.0,-1.0,-8.0,-12.0,3.0,1.0,1650819799360072.0
-7.0,-9.0,3.0,0.0,2.0,-6.0,-5.0,-6.0,1650819799360072.0
-7.0,1.0,2.0,-5.0,-1.0,8.0,-5.0,-20.0,1650819799382335.0
8.0,5.0,-3.0,15.0,28.0,20.0,8.0,13.0,1650819799382335.0
1.0,-13.0,-16.0,-2.0,3.0,11.0,3.0,5.0,1650819799383265.0
-8.0,1.0,18.0,-6.0,-8.0,2.0,-4.0,-14.0,1650819799383265.0
-1.0,8.0,9.0,-4.0,-8.0,-10.0,1.0,8.0,1650819799405682.0
-1.0,-8.0,-8.0,2.0,1.0,-11.0,-5.0,-5.0,1650819799405682.0
7.0,10.0,10.0,1.0,2.0,-2.0,7.0,20.0,1650819799406664.0
-6.0,-18.0,-7.0,-2.0,-11.0,-11.0,-5.0,-7.0,1650819799406664.0
2.0,-4.0,0.0,-2.0,-8.0,-7.0,-14.0,-10.0,1650819799419651.0
-13.0,9.0,15.0,0.0,-9.0,-3.0,-11.0,-35.0,1650819799419651.0
-1.0,17.0,-33.0,-10.0,6.0,3.0,7.0,13.0,1650819799420583.0
-16.0,-25.0,-7.0,-1.0,-2.0,0.0,-9.0,-15.0,1650819799420583.0
-1.0,18.0,13.0,2.0,1.0,2.0,5.0,7.0,1650819799441921.0
7.0,-4.0,-3.0,-8.0,-9.0,-5.0,-1.0,4.0,1650819799441921.0
-6.0,4.0,15.0,8.0,-2.0,-4.0,-6.0,-8.0,1650819799442851.0
5.0,16.0,2.0,6.0,5.0,3.0,3.0,8.0,1650819799442851.0
10.0,-1.0,2.0,-12.0,-4.0,-1.0,-2.0,0.0,1650819799465857.0
2.0,-6.0,2.0,-1.0,1.0,8.0,33.0,61.0,1650819799465857.0
-9.0,-14.0,-3.0,-7.0,-10.0,-12.0,-16.0,-23.0,1650819799465857.0
7.0,2.0,17.0,12.0,3.0,-2.0,-1.0,2.0,1650819799465857.0
11.0,7.0,-5.0,17.0,25.0,24.0,25.0,25.0,1650819799479873.0
-4.0,-15.0,-17.0,-11.0,-6.0,6.0,0.0,-6.0,1650819799479873.0
1.0,-1.0,9.0,1.0,-2.0,3.0,5.0,9.0,1650819799480805.0
-8.0,-6.0,0.0,-6.0,-3.0,-12.0,-23.0,-23.0,1650819799480805.0
-11.0,-14.0,-14.0,-7.0,-21.0,-35.0,-13.0,-15.0,1650819799502736.0
4.0,7.0,10.0,6.0,5.0,14.0,19.0,23.0,1650819799502736.0
5.0,-3.0,-3.0,1.0,17.0,31.0,3.0,-9.0,1650819799502736.0
3.0,2.0,7.0,3.0,10.0,24.0,16.0,21.0,1650819799502736.0
-7.0,-9.0,-8.0,-2.0,-4.0,-11.0,-10.0,-10.0,1650819799525880.0
16.0,6.0,10.0,8.0,-2.0,-12.0,14.0,30.0,1650819799525880.0
-2.0,7.0,12.0,-5.0,-17.0,-25.0,-15.0,-22.0,1650819799525880.0
2.0,-11.0,-25.0,-5.0,-3.0,-3.0,2.0,10.0,1650819799525880.0
-8.0,4.0,4.0,7.0,3.0,7.0,5.0,10.0,1650819799539909.0
4.0,-3.0,-2.0,-6.0,-4.0,-5.0,-1.0,-2.0,1650819799539909.0
-12.0,-14.0,-11.0,-3.0,-8.0,-9.0,-10.0,-16.0,1650819799540841.0
11.0,0.0,8.0,6.0,14.0,10.0,23.0,24.0,1650819799540841.0
-2.0,25.0,4.0,-3.0,-3.0,5.0,3.0,10.0,1650819799562704.0
-9.0,-4.0,-4.0,-5.0,-5.0,-1.0,-14.0,-22.0,1650819799562704.0
-1.0,-7.0,7.0,3.0,3.0,-4.0,-3.0,-3.0,1650819799562704.0
-6.0,-5.0,-13.0,-6.0,-11.0,-13.0,-8.0,-10.0,1650819799562704.0
1.0,1.0,5.0,3.0,8.0,6.0,1.0,-3.0,1650819799585888.0
1.0,-1.0,-4.0,6.0,5.0,4.0,-9.0,-12.0,1650819799585888.0
-3.0,-2.0,12.0,4.0,5.0,3.0,2.0,3.0,1650819799585888.0
7.0,1.0,-9.0,-15.0,-2.0,4.0,-2.0,7.0,1650819799585888.0
1.0,-4.0,2.0,3.0,-2.0,3.0,4.0,-2.0,1650819799599916.0
-3.0,9.0,9.0,4.0,1.0,-10.0,-9.0,-10.0,1650819799599916.0
2.0,-5.0,-8.0,5.0,-2.0,-9.0,-9.0,-8.0,1650819799600874.0
1.0,5.0,-10.0,-5.0,-7.0,-4.0,-3.0,-9.0,1650819799600874.0
1.0,-3.0,-2.0,3.0,12.0,16.0,-1.0,0.0,1650819799622737.0
-3.0,3.0,2.0,-4.0,2.0,7.0,0.0,13.0,1650819799622737.0
-2.0,-17.0,-20.0,-9.0,-9.0,-14.0,6.0,10.0,1650819799622737.0
-10.0,-1.0,4.0,4.0,3.0,0.0,-21.0,-18.0,1650819799622737.0
5.0,4.0,10.0,10.0,5.0,8.0,7.0,0.0,1650819799645926.0
1.0,-13.0,5.0,-3.0,-2.0,-5.0,-5.0,-9.0,1650819799645926.0
-5.0,0.0,-1.0,-6.0,-6.0,-6.0,1.0,8.0,1650819799645926.0
-12.0,3.0,-3.0,-5.0,-14.0,-14.0,-10.0,-10.0,1650819799645926.0
5.0,-7.0,-3.0,3.0,5.0,5.0,-17.0,-30.0,1650819799660031.0
-1.0,-4.0,-2.0,4.0,7.0,9.0,14.0,31.0,1650819799660031.0
6.0,7.0,4.0,-2.0,2.0,2.0,12.0,13.0,1650819799660961.0
5.0,12.0,7.0,-5.0,-5.0,-4.0,11.0,8.0,1650819799660961.0
-2.0,-6.0,3.0,-5.0,-3.0,-2.0,3.0,6.0,1650819799682163.0
5.0,3.0,-15.0,2.0,4.0,14.0,-7.0,-26.0,1650819799682163.0
-1.0,-2.0,25.0,9.0,5.0,9.0,1.0,7.0,1650819799683093.0
-3.0,-1.0,-9.0,-5.0,-4.0,-6.0,4.0,1.0,1650819799683093.0
2.0,-2.0,-10.0,-5.0,-5.0,-10.0,-5.0,-6.0,1650819799705428.0
6.0,1.0,7.0,-1.0,-8.0,-13.0,3.0,8.0,1650819799705428.0
-2.0,0.0,-9.0,-2.0,-1.0,2.0,0.0,-2.0,1650819799706456.0
-4.0,-15.0,-2.0,-8.0,-2.0,4.0,-9.0,-21.0,1650819799706456.0
1.0,-2.0,-3.0,-1.0,-3.0,-5.0,2.0,5.0,1650819799719570.0
-7.0,-19.0,-18.0,-4.0,-2.0,-6.0,-4.0,-1.0,1650819799719570.0
8.0,17.0,10.0,6.0,-2.0,-1.0,10.0,11.0,1650819799720502.0
-4.0,-5.0,-9.0,8.0,14.0,12.0,1.0,-8.0,1650819799720502.0
1.0,-3.0,-16.0,-10.0,1.0,10.0,3.0,7.0,1650819799742656.0
0.0,7.0,-1.0,-5.0,-5.0,-5.0,-7.0,-17.0,1650819799742656.0
-10.0,-4.0,-2.0,-4.0,-2.0,-4.0,0.0,4.0,1650819799742656.0
5.0,-5.0,-5.0,4.0,-3.0,-4.0,2.0,15.0,1650819799742656.0
-10.0,5.0,-3.0,-8.0,-6.0,-5.0,-6.0,-23.0,1650819799765594.0
2.0,0.0,9.0,6.0,0.0,-3.0,-7.0,-16.0,1650819799765594.0
4.0,-11.0,-12.0,-3.0,-2.0,-2.0,6.0,33.0,1650819799766527.0
-1.0,2.0,6.0,6.0,6.0,6.0,2.0,-3.0,1650819799766527.0
-8.0,-7.0,-10.0,-14.0,-12.0,-16.0,-10.0,3.0,1650819799778874.0
-5.0,3.0,-5.0,-5.0,-8.0,-5.0,-11.0,-17.0,1650819799778874.0
9.0,15.0,1.0,4.0,5.0,15.0,8.0,2.0,1650819799786922.0
-3.0,-2.0,7.0,2.0,12.0,14.0,6.0,7.0,1650819799786922.0
-3.0,-2.0,4.0,-3.0,-5.0,-4.0,1.0,0.0,1650819799810896.0
7.0,0.0,-1.0,3.0,2.0,-3.0,5.0,8.0,1650819799810896.0
-4.0,-4.0,-9.0,-9.0,-10.0,-14.0,-10.0,-17.0,1650819799810896.0
14.0,14.0,3.0,3.0,-2.0,4.0,20.0,29.0,1650819799810896.0
-10.0,-11.0,-5.0,-3.0,-3.0,-2.0,-13.0,-16.0,1650819799825916.0
-5.0,3.0,9.0,-4.0,-1.0,-1.0,1.0,1.0,1650819799825916.0
2.0,5.0,19.0,-2.0,-4.0,0.0,-5.0,-7.0,1650819799825916.0
2.0,3.0,-6.0,2.0,1.0,-5.0,-5.0,-7.0,1650819799825916.0
0.0,-9.0,-11.0,-2.0,-4.0,-5.0,-3.0,3.0,1650819799838863.0
-3.0,1.0,3.0,-1.0,-4.0,-3.0,0.0,1.0,1650819799838863.0
3.0,1.0,2.0,5.0,3.0,2.0,1.0,-3.0,1650819799847789.0
-4.0,4.0,4.0,-1.0,4.0,3.0,-6.0,-13.0,1650819799847789.0
6.0,3.0,9.0,8.0,11.0,12.0,10.0,12.0,1650819799861959.0
-5.0,-7.0,-6.0,4.0,5.0,6.0,-4.0,-3.0,1650819799861959.0
-1.0,1.0,-16.0,-7.0,-2.0,-7.0,1.0,-2.0,1650819799862901.0
-3.0,-6.0,-2.0,-3.0,-11.0,-12.0,-6.0,-3.0,1650819799862901.0
2.0,2.0,4.0,-1.0,-3.0,-2.0,1.0,3.0,1650819799885064.0
0.0,13.0,8.0,3.0,5.0,4.0,2.0,-2.0,1650819799885064.0
-5.0,-9.0,-4.0,5.0,-3.0,-7.0,-9.0,-18.0,1650819799886008.0
4.0,-13.0,-8.0,-7.0,6.0,13.0,16.0,46.0,1650819799886008.0
-1.0,3.0,3.0,1.0,-1.0,3.0,0.0,-4.0,1650819799898858.0
0.0,-4.0,-5.0,-4.0,-3.0,2.0,0.0,0.0,1650819799898858.0
2.0,3.0,4.0,0.0,3.0,-4.0,-3.0,-10.0,1650819799907703.0
-3.0,0.0,4.0,2.0,-6.0,-13.0,-8.0,-13.0,1650819799907703.0
0.0,-3.0,-3.0,3.0,0.0,0.0,4.0,9.0,1650819799922763.0
-3.0,2.0,-2.0,-4.0,-5.0,0.0,2.0,1.0,1650819799922763.0
-1.0,0.0,3.0,-1.0,0.0,1.0,-1.0,0.0,1650819799922763.0
-2.0,0.0,8.0,2.0,-6.0,-12.0,-4.0,-7.0,1650819799922763.0
0.0,1.0,-9.0,-5.0,-2.0,-5.0,0.0,5.0,1650819799945137.0
0.0,-1.0,6.0,1.0,1.0,6.0,1.0,-7.0,1650819799945137.0
-2.0,-4.0,-7.0,1.0,4.0,12.0,6.0,2.0,1650819799946077.0
2.0,9.0,6.0,4.0,2.0,1.0,1.0,-4.0,1650819799946077.0
2.0,4.0,3.0,-2.0,-1.0,-5.0,-1.0,1.0,1650819799959100.0
-2.0,-6.0,-7.0,-2.0,3.0,0.0,-2.0,-1.0,1650819799959100.0
-1.0,-3.0,-1.0,-1.0,0.0,-3.0,-1.0,3.0,1650819799967079.0
-2.0,-2.0,-4.0,-6.0,-6.0,-5.0,-5.0,-10.0,1650819799967079.0
-1.0,2.0,5.0,4.0,-6.0,-6.0,-1.0,-1.0,1650819799982696.0
0.0,3.0,-2.0,1.0,1.0,-4.0,1.0,4.0,1650819799982696.0
0.0,3.0,5.0,1.0,4.0,15.0,2.0,1.0,1650819799982696.0
-1.0,-4.0,-7.0,-2.0,-4.0,-3.0,-4.0,-11.0,1650819799982696.0
0.0,2.0,0.0,2.0,5.0,1.0,3.0,4.0,1650819800005876.0
1.0,1.0,4.0,0.0,4.0,2.0,1.0,5.0,1650819800005876.0
0.0,-3.0,-3.0,-1.0,0.0,-4.0,-1.0,1.0,1650819800005876.0
-4.0,2.0,-2.0,-7.0,-7.0,-2.0,-3.0,-7.0,1650819800005876.0
2.0,0.0,-3.0,-3.0,-3.0,-3.0,-2.0,3.0,1650819800018859.0
1.0,1.0,0.0,1.0,-2.0,-7.0,-9.0,-2.0,1650819800018859.0
-4.0,-8.0,3.0,2.0,-1.0,0.0,4.0,2.0,1650819800027789.0
0.0,-3.0,-2.0,-1.0,-3.0,1.0,-1.0,-1.0,1650819800027789.0
-3.0,0.0,-2.0,-2.0,3.0,3.0,1.0,-2.0,1650819800041921.0
0.0,-4.0,-10.0,-10.0,-12.0,-2.0,0.0,1.0,1650819800041921.0
0.0,3.0,1.0,8.0,6.0,1.0,-2.0,3.0,1650819800042856.0
0.0,-1.0,-1.0,-3.0,8.0,6.0,-1.0,-5.0,1650819800042856.0
-6.0,-3.0,-2.0,0.0,-2.0,5.0,6.0,3.0,1650819800065210.0
1.0,1.0,4.0,11.0,1.0,-2.0,0.0,2.0,1650819800065210.0
3.0,3.0,2.0,-4.0,0.0,0.0,-1.0,2.0,1650819800066141.0
-4.0,-2.0,-4.0,-21.0,-12.0,-5.0,-4.0,-2.0,1650819800066141.0
5.0,0.0,0.0,6.0,-2.0,-9.0,-2.0,-2.0,1650819800078881.0
0.0,2.0,1.0,3.0,5.0,3.0,1.0,-2.0,1650819800078881.0
-3.0,-6.0,1.0,6.0,4.0,-1.0,-1.0,-1.0,1650819800087729.0
1.0,-3.0,-2.0,2.0,2.0,-2.0,0.0,-1.0,1650819800087729.0
1.0,3.0,-2.0,-7.0,-7.0,4.0,-1.0,-2.0,1650819800101920.0
-4.0,-1.0,-1.0,1.0,-4.0,-7.0,-2.0,-1.0,1650819800101920.0
1.0,-1.0,-8.0,-4.0,2.0,-1.0,0.0,-2.0,1650819800102851.0
0.0,9.0,7.0,2.0,-1.0,0.0,-1.0,0.0,1650819800102851.0
-2.0,-12.0,-6.0,6.0,0.0,-5.0,-1.0,-1.0,1650819800125875.0
-1.0,5.0,4.0,-8.0,1.0,0.0,2.0,1.0,1650819800125875.0
-3.0,-3.0,-7.0,-11.0,0.0,4.0,1.0,0.0,1650819800125875.0
2.0,3.0,1.0,6.0,3.0,1.0,-1.0,1.0,1650819800125875.0
2.0,4.0,1.0,-1.0,8.0,-1.0,-2.0,-1.0,1650819800148404.0
-10.0,-4.0,-4.0,-3.0,-1.0,7.0,1.0,1.0,1650819800148404.0
5.0,-1.0,5.0,2.0,-3.0,-3.0,0.0,0.0,1650819800148793.0
-3.0,1.0,6.0,0.0,-6.0,-10.0,-5.0,-3.0,1650819800148793.0
0.0,-2.0,1.0,1.0,2.0,0.0,0.0,0.0,1650819800161913.0
3.0,-3.0,0.0,-1.0,-4.0,6.0,-4.0,-2.0,1650819800161913.0
-1.0,4.0,2.0,2.0,4.0,4.0,4.0,0.0,1650819800162844.0
-2.0,-14.0,-2.0,3.0,-2.0,-5.0,1.0,-1.0,1650819800162844.0
3.0,2.0,2.0,-6.0,-3.0,0.0,-2.0,-1.0,1650819800185889.0
-2.0,-4.0,-14.0,-7.0,0.0,4.0,3.0,-2.0,1650819800185889.0
-1.0,3.0,4.0,6.0,-1.0,5.0,-1.0,1.0,1650819800185889.0
6.0,6.0,16.0,13.0,2.0,-5.0,-1.0,1.0,1650819800185889.0
-3.0,-1.0,-9.0,-13.0,-4.0,-5.0,-1.0,-2.0,1650819800208129.0
-2.0,-5.0,-7.0,-3.0,-4.0,-8.0,-5.0,-3.0,1650819800208129.0
1.0,-1.0,-5.0,-7.0,-6.0,-6.0,-2.0,-2.0,1650819800208821.0
-3.0,-1.0,-5.0,4.0,7.0,4.0,3.0,0.0,1650819800208821.0
0.0,2.0,11.0,12.0,2.0,12.0,3.0,0.0,1650819800222786.0
3.0,2.0,-4.0,-3.0,1.0,0.0,2.0,0.0,1650819800222786.0
3.0,-3.0,-17.0,-18.0,-7.0,-15.0,-5.0,-3.0,1650819800222786.0
-13.0,-1.0,3.0,7.0,-9.0,-5.0,2.0,1.0,1650819800222786.0
8.0,-4.0,-4.0,0.0,4.0,2.0,-1.0,1.0,1650819800245829.0
3.0,2.0,8.0,-1.0,2.0,-9.0,-4.0,-3.0,1650819800245829.0
-3.0,-1.0,-1.0,2.0,1.0,9.0,0.0,-2.0,1650819800245829.0
1.0,0.0,-8.0,-13.0,2.0,10.0,3.0,0.0,1650819800245829.0
1.0,-1.0,1.0,4.0,1.0,1.0,1.0,-1.0,1650819800267824.0
-2.0,-2.0,4.0,8.0,-2.0,-8.0,-1.0,-1.0,1650819800267824.0
0.0,-1.0,-1.0,-5.0,-9.0,-13.0,-2.0,-1.0,1650819800268759.0
-2.0,-5.0,-6.0,-4.0,-3.0,-5.0,-4.0,2.0,1650819800268759.0
-3.0,5.0,-1.0,-1.0,7.0,16.0,5.0,-1.0,1650819800282737.0
2.0,7.0,11.0,9.0,10.0,13.0,5.0,3.0,1650819800282737.0
-2.0,-4.0,-1.0,4.0,1.0,-6.0,-2.0,1.0,1650819800282737.0
1.0,3.0,-6.0,-15.0,-9.0,-2.0,-2.0,-2.0,1650819800282737.0
-5.0,-5.0,-10.0,-1.0,-5.0,-12.0,-4.0,-2.0,1650819800305084.0
0.0,-2.0,6.0,1.0,0.0,-4.0,-1.0,1.0,1650819800305084.0
-1.0,-3.0,-2.0,-1.0,1.0,2.0,1.0,1.0,1650819800306015.0
2.0,-1.0,-5.0,1.0,0.0,8.0,3.0,0.0,1650819800306015.0
-1.0,3.0,13.0,4.0,2.0,-2.0,-1.0,-1.0,1650819800328404.0
5.0,-1.0,-7.0,-6.0,-3.0,-5.0,0.0,-2.0,1650819800328404.0
-6.0,-2.0,4.0,3.0,-2.0,-4.0,-2.0,1.0,1650819800328791.0
3.0,0.0,6.0,11.0,2.0,-2.0,1.0,0.0,1650819800328791.0
-3.0,-2.0,-6.0,-8.0,-6.0,0.0,1.0,1.0,1650819800342742.0
1.0,2.0,-10.0,-12.0,4.0,3.0,0.0,-2.0,1650819800342742.0
2.0,-7.0,6.0,12.0,7.0,3.0,-1.0,-2.0,1650819800342742.0
0.0,-3.0,-6.0,-5.0,-2.0,0.0,-1.0,0.0,1650819800342742.0
-2.0,4.0,3.0,11.0,-7.0,-5.0,-5.0,-1.0,1650819800365807.0
-6.0,-6.0,-2.0,-9.0,-6.0,-1.0,1.0,1.0,1650819800365807.0
6.0,3.0,-4.0,-6.0,1.0,4.0,1.0,0.0,1650819800365807.0
2.0,-7.0,-6.0,-1.0,4.0,4.0,1.0,-2.0,1650819800365807.0
0.0,-3.0,3.0,4.0,-3.0,-9.0,0.0,1.0,1650819800387900.0
-1.0,3.0,3.0,0.0,-2.0,-4.0,1.0,1.0,1650819800387900.0
-4.0,0.0,-5.0,-2.0,5.0,9.0,1.0,0.0,1650819800388811.0
-2.0,-3.0,-2.0,-3.0,6.0,6.0,0.0,0.0,1650819800388811.0
-3.0,0.0,-5.0,-2.0,-4.0,-7.0,-3.0,-2.0,1650819800402784.0
-3.0,-4.0,0.0,5.0,-6.0,-2.0,-2.0,-1.0,1650819800402784.0
3.0,1.0,-2.0,-14.0,-5.0,-1.0,0.0,-1.0,1650819800402784.0
-7.0,2.0,6.0,7.0,1.0,-4.0,0.0,-2.0,1650819800402784.0
1.0,0.0,3.0,8.0,4.0,-1.0,1.0,2.0,1650819800425894.0
2.0,1.0,-3.0,-5.0,-4.0,-3.0,-1.0,-1.0,1650819800425894.0
1.0,0.0,3.0,1.0,-2.0,-1.0,-1.0,0.0,1650819800425894.0
0.0,-1.0,-3.0,0.0,-1.0,6.0,1.0,-1.0,1650819800425894.0
1.0,-3.0,1.0,-6.0,-2.0,2.0,0.0,1.0,1650819800448106.0
0.0,-4.0,-15.0,-10.0,1.0,0.0,-1.0,0.0,1650819800448106.0
-5.0,2.0,10.0,11.0,-3.0,-11.0,-4.0,-1.0,1650819800449064.0
3.0,-5.0,-15.0,-15.0,-9.0,-8.0,-2.0,-1.0,1650819800449064.0
-6.0,0.0,11.0,11.0,6.0,11.0,2.0,-1.0,1650819800462706.0
10.0,3.0,7.0,8.0,24.0,28.0,8.0,4.0,1650819800462706.0
-2.0,-2.0,-12.0,-7.0,-3.0,-2.0,4.0,1.0,1650819800462706.0
0.0,1.0,15.0,4.0,-6.0,-10.0,-3.0,-3.0,1650819800462706.0
1.0,-4.0,-6.0,-10.0,-15.0,-11.0,-7.0,-2.0,1650819800485702.0
-6.0,-4.0,-7.0,-4.0,-12.0,-15.0,-5.0,-3.0,1650819800485702.0
-1.0,2.0,11.0,10.0,2.0,1.0,2.0,-1.0,1650819800486701.0
-1.0,0.0,-3.0,-4.0,3.0,-1.0,-2.0,1.0,1650819800486701.0
-2.0,2.0,-6.0,-5.0,3.0,4.0,2.0,0.0,1650819800507931.0
5.0,0.0,-1.0,2.0,-3.0,-4.0,-3.0,-3.0,1650819800507931.0
3.0,1.0,2.0,-1.0,-2.0,-11.0,-3.0,-1.0,1650819800508926.0
2.0,3.0,4.0,8.0,-1.0,8.0,0.0,0.0,1650819800508926.0
2.0,-1.0,-4.0,-5.0,11.0,17.0,6.0,-1.0,1650819800521921.0
-4.0,-3.0,-3.0,-6.0,0.0,4.0,2.0,0.0,1650819800521921.0
4.0,4.0,12.0,8.0,-5.0,-10.0,-1.0,0.0,1650819800522853.0
1.0,1.0,-4.0,-3.0,-4.0,-13.0,-4.0,-3.0,1650819800522853.0
-1.0,-1.0,-2.0,-6.0,-2.0,-3.0,-4.0,-1.0,1650819800545026.0
1.0,-1.0,4.0,1.0,-3.0,1.0,1.0,0.0,1650819800545026.0
-2.0,-1.0,1.0,4.0,0.0,3.0,1.0,-1.0,1650819800545969.0
-3.0,-1.0,-3.0,2.0,8.0,1.0,1.0,1.0,1650819800545969.0
4.0,0.0,3.0,2.0,-4.0,-2.0,-2.0,-2.0,1650819800568860.0
-3.0,4.0,2.0,5.0,-7.0,-5.0,-3.0,1.0,1650819800568860.0
-2.0,2.0,0.0,1.0,11.0,14.0,3.0,1.0,1650819800568860.0
1.0,0.0,-4.0,-16.0,1.0,7.0,3.0,2.0,1650819800568860.0
-3.0,-3.0,10.0,17.0,2.0,-7.0,2.0,-3.0,1650819800581892.0
4.0,-3.0,1.0,0.0,-12.0,-3.0,-2.0,-3.0,1650819800581892.0
-2.0,-2.0,-3.0,-2.0,-1.0,-4.0,-2.0,1.0,1650819800582825.0
2.0,-2.0,1.0,3.0,0.0,0.0,1.0,3.0,1650819800582825.0
1.0,1.0,-9.0,-14.0,-1.0,-8.0,-2.0,2.0,1650819800605800.0
-4.0,-3.0,6.0,11.0,1.0,-1.0,-3.0,-1.0,1650819800605800.0
0.0,-2.0,-6.0,-7.0,3.0,10.0,2.0,-2.0,1650819800605800.0
2.0,2.0,4.0,5.0,4.0,1.0,-1.0,0.0,1650819800605800.0
1.0,0.0,-8.0,-11.0,-7.0,-11.0,-5.0,-2.0,1650819800627766.0
-4.0,-1.0,-6.0,-4.0,-12.0,-19.0,-4.0,-2.0,1650819800627766.0
2.0,-2.0,-4.0,-1.0,-6.0,7.0,-1.0,-1.0,1650819800628700.0
-2.0,3.0,6.0,6.0,12.0,20.0,2.0,1.0,1650819800628700.0
1.0,2.0,14.0,10.0,16.0,22.0,9.0,3.0,1650819800642659.0
0.0,-1.0,-5.0,5.0,11.0,-1.0,4.0,2.0,1650819800642659.0
1.0,0.0,-2.0,7.0,-8.0,-13.0,-3.0,-3.0,1650819800642659.0
-3.0,1.0,3.0,-3.0,-12.0,-14.0,-5.0,-4.0,1650819800642659.0
-2.0,-5.0,-9.0,-10.0,-12.0,-8.0,-4.0,0.0,1650819800665694.0
2.0,2.0,9.0,-3.0,-1.0,3.0,0.0,-1.0,1650819800665694.0
0.0,-2.0,-2.0,-4.0,1.0,-4.0,-2.0,-1.0,1650819800666725.0
-14.0,-3.0,-8.0,1.0,-6.0,-2.0,-3.0,-3.0,1650819800666725.0
8.0,5.0,2.0,-1.0,2.0,2.0,2.0,2.0,1650819800687665.0
-3.0,0.0,7.0,3.0,1.0,1.0,1.0,1.0,1650819800687665.0
-3.0,0.0,-9.0,-9.0,-2.0,2.0,-2.0,-3.0,1650819800688635.0
4.0,4.0,18.0,15.0,2.0,1.0,-1.0,1.0,1650819800688635.0
-2.0,-4.0,-2.0,1.0,-1.0,-1.0,-2.0,-1.0,1650819800701924.0
-3.0,-3.0,-11.0,-8.0,-2.0,-3.0,-2.0,-2.0,1650819800701924.0
-3.0,-1.0,0.0,-8.0,-2.0,-1.0,-2.0,0.0,1650819800717755.0
6.0,-4.0,-10.0,-13.0,-6.0,-14.0,-2.0,-1.0,1650819800717755.0
-11.0,3.0,16.0,21.0,1.0,11.0,0.0,-2.0,1650819800725740.0
1.0,0.0,2.0,-3.0,1.0,14.0,2.0,-1.0,1650819800725740.0
-2.0,0.0,-1.0,3.0,8.0,3.0,4.0,1.0,1650819800725740.0
3.0,-4.0,-12.0,-7.0,2.0,-4.0,0.0,-2.0,1650819800725740.0
0.0,3.0,2.0,-4.0,-7.0,-11.0,-2.0,-1.0,1650819800747860.0
-1.0,0.0,-7.0,-6.0,-4.0,-13.0,-5.0,-3.0,1650819800747860.0
1.0,3.0,21.0,16.0,4.0,5.0,0.0,1.0,1650819800748791.0
-6.0,2.0,11.0,13.0,11.0,14.0,3.0,3.0,1650819800748791.0
24.0,3.0,-9.0,-14.0,-4.0,10.0,3.0,-6.0,1650819800761822.0
0.0,-5.0,0.0,4.0,-2.0,-3.0,2.0,4.0,1650819800761822.0
-8.0,-1.0,5.0,8.0,-10.0,-17.0,-6.0,-1.0,1650819800769800.0
-5.0,-6.0,-19.0,-38.0,-16.0,-24.0,-8.0,-5.0,1650819800769800.0
-9.0,-3.0,-3.0,6.0,0.0,-6.0,-2.0,0.0,1650819800785869.0
9.0,5.0,12.0,10.0,12.0,24.0,4.0,0.0,1650819800785869.0
4.0,0.0,-5.0,-5.0,14.0,20.0,8.0,2.0,1650819800785869.0
-1.0,-1.0,6.0,8.0,-2.0,1.0,3.0,1.0,1650819800785869.0
-2.0,0.0,4.0,-4.0,-5.0,-16.0,-3.0,0.0,1650819800807978.0
-4.0,-3.0,-8.0,-9.0,-12.0,-20.0,-7.0,-5.0,1650819800807978.0
-4.0,-2.0,-2.0,-5.0,-11.0,-10.0,-4.0,0.0,1650819800808978.0
3.0,6.0,10.0,10.0,13.0,17.0,2.0,1.0,1650819800808978.0
2.0,-1.0,-7.0,6.0,4.0,7.0,2.0,0.0,1650819800822010.0
-4.0,-6.0,-17.0,-11.0,4.0,2.0,1.0,1.0,1650819800822010.0
0.0,2.0,6.0,-2.0,-1.0,3.0,-2.0,-3.0,1650819800829988.0
5.0,1.0,-9.0,-14.0,-10.0,-8.0,-1.0,-1.0,1650819800829988.0
-4.0,-6.0,0.0,4.0,-4.0,-10.0,-4.0,0.0,1650819800845813.0
-4.0,1.0,6.0,6.0,-6.0,0.0,-1.0,-1.0,1650819800845813.0
0.0,-3.0,-10.0,-7.0,-2.0,-10.0,-1.0,-2.0,1650819800846800.0
2.0,-3.0,-1.0,0.0,9.0,9.0,1.0,1.0,1650819800846800.0
-4.0,2.0,1.0,-5.0,2.0,19.0,4.0,3.0,1650819800867927.0
-2.0,-1.0,-3.0,-3.0,8.0,10.0,7.0,1.0,1650819800867927.0
1.0,-3.0,-10.0,-5.0,-6.0,-16.0,-5.0,0.0,1650819800868860.0
-7.0,0.0,12.0,10.0,-7.0,0.0,-2.0,-2.0,1650819800868860.0
3.0,-6.0,-14.0,-22.0,-1.0,-6.0,-3.0,-2.0,1650819800881920.0
7.0,-1.0,4.0,14.0,-2.0,-3.0,-4.0,-1.0,1650819800881920.0
-3.0,0.0,4.0,1.0,-1.0,-3.0,2.0,0.0,1650819800889589.0
1.0,0.0,-4.0,-6.0,8.0,4.0,2.0,1.0,1650819800889589.0
-1.0,-1.0,15.0,18.0,4.0,2.0,1.0,1.0,1650819800905071.0
-2.0,2.0,1.0,-1.0,-6.0,-7.0,-3.0,0.0,1650819800905071.0
2.0,-2.0,-5.0,-6.0,-3.0,5.0,0.0,0.0,1650819800905071.0
1.0,3.0,-6.0,1.0,0.0,-4.0,-2.0,-1.0,1650819800905071.0
-3.0,-1.0,2.0,-5.0,-4.0,-6.0,-3.0,-1.0,1650819800927992.0
-3.0,2.0,-3.0,-5.0,2.0,-3.0,1.0,2.0,1650819800927992.0
0.0,3.0,6.0,15.0,8.0,18.0,2.0,0.0,1650819800928923.0
2.0,-1.0,-2.0,-7.0,-3.0,-5.0,0.0,-1.0,1650819800928923.0
-3.0,-3.0,-9.0,2.0,-1.0,-5.0,-2.0,-1.0,1650819800941955.0
-2.0,-1.0,4.0,-2.0,0.0,1.0,-4.0,-3.0,1650819800941955.0
1.0,2.0,-4.0,-5.0,-3.0,1.0,1.0,1.0,1650819800949951.0
2.0,-2.0,-3.0,7.0,-1.0,-1.0,1.0,-2.0,1650819800949951.0
-2.0,-2.0,2.0,3.0,0.0,-4.0,-2.0,1.0,1650819800964912.0
-3.0,4.0,15.0,6.0,-1.0,-5.0,0.0,1.0,1650819800964912.0
1.0,-2.0,-5.0,-3.0,1.0,-5.0,-1.0,1.0,1650819800965843.0
-2.0,-1.0,-6.0,-1.0,-6.0,-6.0,-3.0,-1.0,1650819800965843.0
-3.0,-2.0,-4.0,-5.0,0.0,6.0,-1.0,-2.0,1650819800987904.0
1.0,2.0,6.0,3.0,-4.0,0.0,-1.0,-1.0,1650819800987904.0
-5.0,0.0,4.0,-4.0,8.0,12.0,3.0,1.0,1650819800988862.0
4.0,1.0,-2.0,-1.0,5.0,-1.0,1.0,2.0,1650819800988862.0
-1.0,4.0,1.0,1.0,-4.0,-2.0,0.0,-1.0,1650819801002756.0
1.0,-6.0,-15.0,-15.0,-3.0,0.0,-3.0,-3.0,1650819801002756.0
-2.0,-2.0,-1.0,-2.0,-8.0,-10.0,-3.0,-1.0,1650819801009788.0
-1.0,-3.0,0.0,7.0,-7.0,-10.0,-3.0,-2.0,1650819801009788.0
-2.0,5.0,13.0,-1.0,7.0,9.0,2.0,2.0,1650819801025061.0
-1.0,-4.0,-3.0,5.0,6.0,3.0,0.0,0.0,1650819801025061.0
0.0,-5.0,-10.0,-4.0,-6.0,-5.0,-1.0,-2.0,1650819801025992.0
-1.0,3.0,5.0,4.0,4.0,3.0,1.0,1.0,1650819801025992.0
2.0,0.0,4.0,11.0,-2.0,-3.0,0.0,0.0,1650819801048083.0
0.0,-1.0,-9.0,-14.0,-7.0,-9.0,-1.0,0.0,1650819801048083.0
-2.0,-2.0,1.0,7.0,-7.0,-5.0,-2.0,-1.0,1650819801049026.0
-1.0,2.0,5.0,4.0,11.0,20.0,2.0,1.0,1650819801049026.0
-1.0,-3.0,-4.0,-7.0,5.0,2.0,3.0,0.0,1650819801070216.0
-4.0,3.0,-2.0,0.0,5.0,6.0,1.0,0.0,1650819801070216.0
4.0,0.0,1.0,0.0,-2.0,-3.0,-2.0,-3.0,1650819801071148.0
-3.0,-5.0,-14.0,-21.0,-13.0,-14.0,-5.0,-1.0,1650819801071148.0
3.0,-1.0,3.0,8.0,-8.0,-5.0,-5.0,-1.0,1650819801084870.0
-5.0,0.0,0.0,6.0,0.0,4.0,2.0,1.0,1650819801084870.0
0.0,-1.0,-1.0,-4.0,5.0,1.0,0.0,0.0,1650819801085804.0
0.0,0.0,4.0,4.0,2.0,1.0,0.0,-1.0,1650819801085804.0
-2.0,2.0,-12.0,-16.0,-3.0,-5.0,0.0,-2.0,1650819801108404.0
2.0,-6.0,-11.0,-11.0,-9.0,-6.0,-2.0,-1.0,1650819801108404.0
-1.0,2.0,6.0,8.0,-4.0,1.0,-1.0,0.0,1650819801108794.0
-4.0,1.0,13.0,14.0,13.0,7.0,5.0,1.0,1650819801108794.0
3.0,2.0,-1.0,0.0,6.0,5.0,1.0,3.0,1650819801130908.0
0.0,3.0,3.0,-1.0,-7.0,-1.0,0.0,-1.0,1650819801130908.0
-1.0,-1.0,-1.0,-7.0,-2.0,-7.0,-2.0,-1.0,1650819801130908.0
-4.0,-4.0,-7.0,-6.0,-15.0,-15.0,-6.0,-1.0,1650819801130908.0
-1.0,-2.0,-3.0,-4.0,-1.0,8.0,1.0,-2.0,1650819801144885.0
0.0,4.0,6.0,6.0,9.0,7.0,-1.0,-1.0,1650819801144885.0
-2.0,-8.0,-7.0,-1.0,6.0,8.0,0.0,0.0,1650819801145818.0
1.0,1.0,4.0,2.0,-10.0,-7.0,-1.0,1.0,1650819801145818.0
-3.0,-4.0,-10.0,-19.0,-2.0,-9.0,-3.0,0.0,1650819801168094.0
-5.0,-4.0,0.0,11.0,-8.0,-3.0,-1.0,-2.0,1650819801168094.0
7.0,0.0,-5.0,-6.0,-2.0,2.0,1.0,0.0,1650819801169122.0
1.0,0.0,-2.0,0.0,12.0,13.0,5.0,1.0,1650819801169122.0
3.0,0.0,1.0,3.0,-4.0,-4.0,0.0,-1.0,1650819801189321.0
-2.0,-1.0,6.0,6.0,2.0,-1.0,-1.0,0.0,1650819801189321.0
-2.0,-3.0,-1.0,-11.0,1.0,2.0,0.0,1.0,1650819801197788.0
2.0,-3.0,1.0,7.0,-4.0,3.0,1.0,-1.0,1650819801197788.0
-4.0,-8.0,-9.0,-6.0,0.0,-4.0,0.0,-1.0,1650819801204838.0
1.0,0.0,-2.0,-1.0,-4.0,-10.0,-2.0,-2.0,1650819801204838.0
-2.0,-1.0,2.0,-1.0,-5.0,1.0,1.0,0.0,1650819801205769.0
1.0,2.0,1.0,-2.0,0.0,7.0,0.0,0.0,1650819801205769.0
-1.0,5.0,6.0,7.0,2.0,-3.0,-1.0,0.0,1650819801227936.0
0.0,-2.0,-8.0,-10.0,-11.0,-10.0,-4.0,-1.0,1650819801227936.0
-2.0,5.0,5.0,6.0,-1.0,-9.0,-3.0,-1.0,1650819801228867.0
-1.0,-3.0,-3.0,-2.0,11.0,12.0,0.0,1.0,1650819801228867.0
0.0,0.0,2.0,-1.0,0.0,6.0,1.0,-3.0,1650819801250978.0
1.0,-5.0,-17.0,-14.0,-1.0,-3.0,-2.0,-1.0,1650819801250978.0
-3.0,1.0,0.0,3.0,-5.0,-8.0,-3.0,0.0,1650819801250978.0
5.0,1.0,2.0,-2.0,-8.0,-9.0,-2.0,-2.0,1650819801250978.0
-1.0,-1.0,-3.0,-2.0,-3.0,-4.0,0.0,-2.0,1650819801265117.0
-2.0,1.0,5.0,5.0,5.0,14.0,3.0,2.0,1650819801265117.0
0.0,0.0,-1.0,0.0,18.0,13.0,2.0,0.0,1650819801265117.0
-1.0,-3.0,-1.0,-4.0,-1.0,-1.0,1.0,-1.0,1650819801265117.0
-3.0,1.0,-4.0,-5.0,-7.0,-9.0,-1.0,-1.0,1650819801288206.0
5.0,1.0,6.0,7.0,-2.0,-7.0,-3.0,0.0,1650819801288206.0
-3.0,-5.0,-7.0,-8.0,-5.0,-2.0,-2.0,-1.0,1650819801289247.0
0.0,0.0,-7.0,-9.0,0.0,0.0,-2.0,0.0,1650819801289247.0
1.0,-3.0,6.0,13.0,2.0,3.0,-1.0,-1.0,1650819801310453.0
-1.0,1.0,2.0,3.0,1.0,0.0,0.0,0.0,1650819801310453.0
-2.0,-3.0,-4.0,-5.0,-2.0,1.0,-3.0,0.0,1650819801311390.0
0.0,2.0,4.0,5.0,-1.0,-13.0,-2.0,-1.0,1650819801311390.0
-3.0,-1.0,0.0,-2.0,-1.0,6.0,0.0,1.0,1650819801324872.0
1.0,-2.0,1.0,-3.0,11.0,18.0,3.0,0.0,1650819801324872.0
1.0,1.0,2.0,6.0,2.0,1.0,1.0,0.0,1650819801325804.0
-4.0,0.0,-6.0,-6.0,-10.0,-10.0,1.0,-1.0,1650819801325804.0
0.0,-4.0,-7.0,-5.0,-6.0,-14.0,-7.0,-1.0,1650819801347910.0
-1.0,3.0,8.0,8.0,-8.0,-5.0,0.0,0.0,1650819801347910.0
1.0,1.0,3.0,2.0,6.0,5.0,3.0,0.0,1650819801348842.0
-1.0,-2.0,3.0,6.0,15.0,12.0,1.0,0.0,1650819801348842.0
0.0,-2.0,-1.0,-7.0,-9.0,-10.0,-3.0,-1.0,1650819801370847.0
-1.0,-1.0,-1.0,1.0,8.0,0.0,-2.0,0.0,1650819801370847.0
-3.0,0.0,2.0,0.0,-6.0,10.0,2.0,-2.0,1650819801370847.0
2.0,5.0,6.0,1.0,-3.0,-3.0,0.0,0.0,1650819801370847.0
0.0,-4.0,-2.0,12.0,6.0,1.0,-2.0,-2.0,1650819801384883.0
-6.0,-2.0,-2.0,0.0,-7.0,-9.0,-5.0,-2.0,1650819801384883.0
4.0,2.0,-1.0,-6.0,-3.0,-2.0,-1.0,-2.0,1650819801385883.0
-2.0,-1.0,0.0,-1.0,-8.0,-5.0,-2.0,0.0,1650819801385883.0
-1.0,-3.0,-11.0,-8.0,4.0,3.0,0.0,2.0,1650819801407894.0
-2.0,1.0,9.0,5.0,7.0,0.0,-1.0,1.0,1650819801407894.0
-1.0,-1.0,2.0,1.0,-3.0,2.0,3.0,-2.0,1650819801408895.0
-2.0,-3.0,-1.0,3.0,1.0,5.0,1.0,1.0,1650819801408895.0
0.0,1.0,0.0,-3.0,-1.0,-1.0,1.0,0.0,1650819801430906.0
2.0,-5.0,-9.0,-8.0,-1.0,-6.0,-1.0,-2.0,1650819801430906.0
-4.0,-4.0,-8.0,-4.0,-2.0,-2.0,-4.0,-2.0,1650819801430906.0
-1.0,-1.0,-2.0,-6.0,-5.0,-8.0,-2.0,-1.0,1650819801430906.0
-1.0,-1.0,0.0,5.0,2.0,6.0,1.0,0.0,1650819801443910.0
2.0,0.0,2.0,1.0,6.0,18.0,3.0,0.0,1650819801443910.0
2.0,3.0,-1.0,2.0,-3.0,-10.0,-1.0,0.0,1650819801452755.0
-4.0,-6.0,-6.0,-3.0,-8.0,-1.0,-3.0,-1.0,1650819801452755.0
3.0,2.0,2.0,-5.0,5.0,4.0,1.0,0.0,1650819801475708.0
-2.0,-3.0,5.0,7.0,-8.0,-11.0,-4.0,-1.0,1650819801475708.0
2.0,1.0,0.0,-4.0,4.0,-2.0,0.0,-1.0,1650819801476697.0
-1.0,-2.0,2.0,10.0,6.0,9.0,2.0,-1.0,1650819801476697.0
-2.0,0.0,2.0,-2.0,-3.0,2.0,0.0,0.0,1650819801490757.0
-1.0,-8.0,-10.0,-9.0,-5.0,0.0,0.0,-2.0,1650819801490757.0
-2.0,-1.0,2.0,2.0,-11.0,-16.0,-5.0,-1.0,1650819801491700.0
0.0,-1.0,0.0,-1.0,1.0,1.0,0.0,1.0,1650819801491700.0
-1.0,1.0,-9.0,-4.0,8.0,12.0,2.0,0.0,1650819801503721.0
-1.0,-2.0,3.0,-4.0,-2.0,0.0,-1.0,-1.0,1650819801503721.0
-2.0,-2.0,-5.0,-2.0,-6.0,-11.0,-4.0,0.0,1650819801513675.0
0.0,1.0,4.0,2.0,2.0,-3.0,-2.0,-3.0,1650819801513675.0
2.0,2.0,1.0,1.0,-4.0,0.0,0.0,2.0,1650819801528404.0
1.0,3.0,-5.0,-10.0,1.0,-2.0,3.0,-1.0,1650819801528404.0
-1.0,2.0,0.0,4.0,6.0,16.0,2.0,-2.0,1650819801529817.0
-1.0,-4.0,0.0,5.0,-1.0,1.0,1.0,1.0,1650819801529817.0
1.0,-2.0,1.0,2.0,-6.0,-8.0,1.0,0.0,1650819801550976.0
0.0,2.0,-5.0,-6.0,6.0,-3.0,0.0,1.0,1650819801550976.0
-2.0,-3.0,4.0,3.0,4.0,2.0,-3.0,-2.0,1650819801551970.0
-1.0,-1.0,-8.0,-10.0,-9.0,-2.0,-2.0,0.0,1650819801551970.0
-1.0,-1.0,0.0,-2.0,-3.0,-1.0,1.0,-3.0,1650819801564003.0
-2.0,1.0,5.0,4.0,2.0,1.0,0.0,-1.0,1650819801564003.0
-1.0,-3.0,-3.0,-3.0,0.0,-3.0,-1.0,0.0,1650819801573585.0
0.0,-1.0,-2.0,-4.0,-3.0,-5.0,-3.0,-1.0,1650819801573585.0
-2.0,1.0,3.0,5.0,-2.0,0.0,-3.0,-2.0,1650819801587810.0
0.0,3.0,0.0,-2.0,1.0,1.0,1.0,2.0,1650819801587810.0
2.0,1.0,2.0,2.0,0.0,2.0,-1.0,2.0,1650819801589739.0
-1.0,-2.0,-3.0,-5.0,-6.0,-9.0,-2.0,-2.0,1650819801589739.0
-2.0,1.0,5.0,5.0,6.0,0.0,0.0,1.0,1650819801610759.0
-2.0,-2.0,-6.0,-2.0,2.0,21.0,4.0,-3.0,1650819801610759.0
1.0,0.0,0.0,-2.0,-1.0,-2.0,1.0,0.0,1650819801611698.0
0.0,1.0,2.0,2.0,7.0,-3.0,0.0,0.0,1650819801611698.0
-2.0,-6.0,0.0,1.0,-2.0,-3.0,-2.0,-2.0,1650819801624656.0
-1.0,0.0,0.0,-3.0,-3.0,-9.0,-3.0,-1.0,1650819801624656.0
-2.0,-2.0,-6.0,-4.0,-12.0,-4.0,-1.0,-2.0,1650819801633632.0
-2.0,-2.0,-3.0,-2.0,-8.0,-8.0,-5.0,-2.0,1650819801633632.0
0.0,2.0,1.0,-4.0,6.0,-1.0,3.0,0.0,1650819801647740.0
1.0,1.0,0.0,2.0,0.0,8.0,2.0,2.0,1650819801647740.0
-1.0,0.0,-2.0,-3.0,9.0,11.0,2.0,0.0,1650819801649764.0
0.0,1.0,5.0,-1.0,2.0,-2.0,0.0,1.0,1650819801649764.0
-1.0,-2.0,-2.0,-2.0,-9.0,-9.0,-4.0,-1.0,1650819801669904.0
-1.0,-2.0,-5.0,2.0,-5.0,-6.0,0.0,-2.0,1650819801669904.0
-1.0,-1.0,-4.0,-4.0,-4.0,-12.0,-3.0,0.0,1650819801677815.0
1.0,0.0,1.0,1.0,-1.0,8.0,2.0,0.0,1650819801677815.0
-2.0,1.0,1.0,2.0,5.0,11.0,2.0,-1.0,1650819801683866.0
0.0,0.0,5.0,4.0,10.0,11.0,2.0,0.0,1650819801683866.0
1.0,1.0,-2.0,-1.0,3.0,0.0,2.0,3.0,1650819801692781.0
0.0,0.0,-4.0,-4.0,-5.0,-11.0,-3.0,0.0,1650819801692781.0
1.0,0.0,0.0,1.0,-11.0,-13.0,-3.0,-2.0,1650819801707774.0
0.0,0.0,-2.0,-2.0,-4.0,-3.0,-4.0,-2.0,1650819801707774.0
0.0,1.0,3.0,2.0,2.0,3.0,1.0,2.0,1650819801709703.0
1.0,-4.0,-5.0,1.0,7.0,6.0,3.0,0.0,1650819801709703.0
0.0,2.0,3.0,2.0,7.0,9.0,1.0,1.0,1650819801730712.0
-1.0,-5.0,-4.0,-4.0,-5.0,-5.0,1.0,-2.0,1650819801730712.0
-1.0,-2.0,1.0,-1.0,-6.0,-7.0,-2.0,-1.0,1650819801731690.0
0.0,1.0,-1.0,-2.0,-9.0,-17.0,-4.0,-2.0,1650819801731690.0
0.0,-4.0,-7.0,-5.0,-2.0,7.0,-1.0,0.0,1650819801752804.0
-2.0,5.0,5.0,5.0,-6.0,8.0,2.0,-1.0,1650819801752804.0
-1.0,-2.0,-1.0,2.0,11.0,5.0,3.0,0.0,1650819801754734.0
0.0,-1.0,-1.0,0.0,12.0,1.0,-4.0,-3.0,1650819801754734.0
0.0,-2.0,-2.0,-4.0,-9.0,-7.0,-2.0,1.0,1650819801768403.0
1.0,2.0,2.0,4.0,2.0,0.0,6.0,6.0,1650819801768403.0
0.0,-5.0,1.0,2.0,0.0,18.0,3.0,-1.0,1650819801769696.0
-2.0,1.0,-3.0,-5.0,1.0,-3.0,1.0,-3.0,1650819801769696.0
-1.0,-1.0,-1.0,-2.0,-6.0,-16.0,-3.0,-4.0,1650819801790752.0
-1.0,0.0,0.0,0.0,-9.0,-10.0,-3.0,1.0,1650819801790752.0
-1.0,-1.0,-5.0,-3.0,-3.0,-2.0,-1.0,-2.0,1650819801791698.0
0.0,-2.0,3.0,5.0,11.0,13.0,2.0,2.0,1650819801791698.0
0.0,0.0,2.0,4.0,5.0,8.0,2.0,3.0,1650819801804648.0
-2.0,-1.0,-3.0,-8.0,-8.0,-14.0,-2.0,1.0,1650819801804648.0
-2.0,-1.0,-2.0,-3.0,-14.0,-23.0,-7.0,-8.0,1650819801812693.0
0.0,3.0,8.0,9.0,4.0,17.0,2.0,9.0,1650819801812693.0
0.0,0.0,-9.0,-5.0,5.0,11.0,6.0,-6.0,1650819801828927.0
-1.0,-2.0,-1.0,1.0,15.0,21.0,6.0,1.0,1650819801828927.0
1.0,-1.0,4.0,2.0,17.0,9.0,3.0,3.0,1650819801829860.0
1.0,-2.0,-3.0,-4.0,-15.0,-11.0,-3.0,-2.0,1650819801829860.0
1.0,2.0,3.0,-3.0,-10.0,-17.0,-7.0,-2.0,1650819801850873.0
0.0,0.0,-3.0,-1.0,-5.0,-9.0,-5.0,-4.0,1650819801850873.0
-2.0,-5.0,-3.0,0.0,-9.0,-9.0,-5.0,5.0,1650819801851801.0
-1.0,-2.0,3.0,0.0,-4.0,0.0,1.0,-12.0,1650819801851801.0
-3.0,0.0,-2.0,2.0,6.0,10.0,5.0,4.0,1650819801864554.0
-2.0,0.0,-2.0,-3.0,-2.0,-12.0,-5.0,-6.0,1650819801864554.0
-1.0,0.0,2.0,2.0,-1.0,3.0,1.0,2.0,1650819801878998.0
0.0,0.0,-2.0,-3.0,1.0,4.0,5.0,8.0,1650819801878998.0
3.0,2.0,1.0,3.0,4.0,2.0,0.0,-2.0,1650819801887974.0
2.0,-1.0,0.0,-1.0,1.0,-3.0,-2.0,0.0,1650819801887974.0
-1.0,-1.0,0.0,-1.0,-3.0,1.0,-1.0,-2.0,1650819801889926.0
-2.0,-3.0,-6.0,-2.0,-4.0,0.0,-2.0,-4.0,1650819801889926.0
-3.0,-5.0,-1.0,-2.0,-2.0,-12.0,-4.0,-2.0,1650819801910934.0
1.0,3.0,3.0,1.0,4.0,7.0,-4.0,3.0,1650819801910934.0
4.0,4.0,2.0,2.0,5.0,15.0,2.0,-12.0,1650819801911855.0
0.0,0.0,1.0,0.0,-6.0,-4.0,4.0,7.0,1650819801911855.0
0.0,7.0,-3.0,0.0,-4.0,-4.0,5.0,11.0,1650819801924528.0
-10.0,-15.0,-7.0,-8.0,1.0,-8.0,-6.0,-7.0,1650819801924528.0
-4.0,-9.0,-5.0,-3.0,-5.0,-6.0,-5.0,-6.0,1650819801932817.0
0.0,-2.0,0.0,2.0,1.0,1.0,-7.0,-11.0,1650819801932817.0
-1.0,0.0,3.0,-5.0,-8.0,-12.0,-3.0,10.0,1650819801955873.0
5.0,11.0,2.0,5.0,-3.0,-11.0,3.0,-5.0,1650819801955873.0
-1.0,3.0,2.0,1.0,6.0,13.0,2.0,1.0,1650819801956870.0
-1.0,0.0,-2.0,-7.0,3.0,14.0,10.0,9.0,1650819801956870.0
0.0,-6.0,-2.0,-1.0,1.0,-1.0,-1.0,-3.0,1650819801970773.0
0.0,2.0,2.0,2.0,-3.0,-7.0,-9.0,-4.0,1650819801970773.0
1.0,2.0,-2.0,3.0,-2.0,-8.0,-1.0,-1.0,1650819801971704.0
-2.0,-2.0,1.0,3.0,1.0,-8.0,-6.0,-3.0,1650819801971704.0
-1.0,-4.0,-6.0,-7.0,-4.0,7.0,-3.0,-6.0,1650819801983742.0
6.0,9.0,0.0,1.0,3.0,8.0,9.0,13.0,1650819801983742.0
-11.0,10.0,3.0,-5.0,1.0,-5.0,-7.0,-8.0,1650819801993674.0
2.0,-4.0,-5.0,3.0,-2.0,-6.0,3.0,0.0,1650819801993674.0
-6.0,-16.0,-5.0,2.0,0.0,-5.0,-5.0,-8.0,1650819802007790.0
-2.0,-24.0,-14.0,-13.0,-11.0,-6.0,-4.0,-6.0,1650819802007790.0
5.0,7.0,5.0,6.0,-5.0,-6.0,0.0,6.0,1650819802009815.0
0.0,12.0,2.0,3.0,11.0,9.0,0.0,0.0,1650819802009815.0
3.0,11.0,8.0,5.0,13.0,22.0,5.0,-3.0,1650819802030884.0
-4.0,0.0,2.0,-2.0,1.0,-3.0,0.0,-5.0,1650819802030884.0
7.0,1.0,-2.0,0.0,1.0,4.0,9.0,19.0,1650819802032839.0
0.0,-6.0,-4.0,-7.0,-12.0,-11.0,-8.0,0.0,1650819802032839.0
-4.0,-5.0,0.0,-7.0,-11.0,-7.0,-4.0,-11.0,1650819802053803.0
-2.0,2.0,1.0,5.0,-1.0,4.0,-1.0,1.0,1650819802053803.0
-2.0,-4.0,-2.0,1.0,1.0,-2.0,-3.0,-3.0,1650819802058862.0
-7.0,-2.0,-2.0,1.0,-1.0,-3.0,-4.0,-4.0,1650819802058862.0
4.0,3.0,1.0,1.0,2.0,5.0,1.0,1.0,1650819802067703.0
3.0,6.0,8.0,9.0,1.0,1.0,0.0,-1.0,1650819802067703.0
9.0,3.0,-3.0,-8.0,6.0,3.0,1.0,-2.0,1650819802074553.0
0.0,-5.0,-6.0,-11.0,-4.0,5.0,4.0,1.0,1650819802074553.0
-5.0,-16.0,1.0,9.0,3.0,-1.0,-3.0,-3.0,1650819802090087.0
3.0,-1.0,-9.0,-6.0,-14.0,-23.0,-8.0,-5.0,1650819802090087.0
-11.0,-1.0,3.0,4.0,-7.0,-1.0,-5.0,-6.0,1650819802092026.0
1.0,7.0,15.0,11.0,8.0,13.0,2.0,-2.0,1650819802092026.0
5.0,17.0,6.0,7.0,26.0,32.0,15.0,11.0,1650819802112899.0
-11.0,-40.0,-29.0,-30.0,-4.0,-5.0,-11.0,-11.0,1650819802112899.0
6.0,-14.0,0.0,-2.0,-9.0,-13.0,8.0,15.0,1650819802114855.0
3.0,9.0,2.0,-3.0,-15.0,-16.0,-6.0,-2.0,1650819802114855.0
-5.0,5.0,-3.0,-4.0,-15.0,-19.0,-10.0,-3.0,1650819802127793.0
14.0,23.0,12.0,6.0,5.0,5.0,3.0,3.0,1650819802127793.0
-17.0,-12.0,-9.0,-10.0,-5.0,-1.0,-2.0,-6.0,1650819802129787.0
-10.0,-2.0,8.0,15.0,5.0,1.0,2.0,-1.0,1650819802129787.0
20.0,18.0,-2.0,-13.0,3.0,1.0,-1.0,0.0,1650819802158378.0
-15.0,-28.0,0.0,9.0,7.0,5.0,-2.0,-5.0,1650819802158378.0
2.0,-2.0,-5.0,1.0,-4.0,0.0,4.0,3.0,1650819802159832.0
-1.0,1.0,-3.0,-3.0,-5.0,-7.0,-1.0,2.0,1650819802159832.0
-7.0,-8.0,-5.0,2.0,0.0,5.0,0.0,5.0,1650819802172836.0
6.0,-2.0,14.0,20.0,11.0,14.0,13.0,12.0,1650819802172836.0
1.0,11.0,1.0,-16.0,-1.0,-3.0,0.0,-2.0,1650819802174764.0
-6.0,-28.0,-13.0,-29.0,-16.0,-8.0,-8.0,-11.0,1650819802174764.0
-1.0,24.0,0.0,13.0,-2.0,-7.0,-10.0,-11.0,1650819802187757.0
20.0,29.0,12.0,5.0,0.0,1.0,3.0,7.0,1650819802187757.0
-5.0,23.0,4.0,14.0,2.0,-1.0,-10.0,-18.0,1650819802194553.0
31.0,3.0,-22.0,2.0,10.0,11.0,25.0,36.0,1650819802194553.0
-63.0,-64.0,-10.0,-21.0,-14.0,-15.0,-17.0,-28.0,1650819802210933.0
4.0,-22.0,-13.0,-4.0,-7.0,-3.0,-3.0,1.0,1650819802210933.0
5.0,14.0,21.0,6.0,1.0,-3.0,-7.0,-8.0,1650819802211860.0
-1.0,49.0,-12.0,-6.0,-5.0,-3.0,-3.0,-9.0,1650819802211860.0
7.0,-67.0,-7.0,0.0,-4.0,0.0,9.0,18.0,1650819802233003.0
6.0,66.0,8.0,4.0,6.0,9.0,19.0,12.0,1650819802233003.0
-12.0,-29.0,2.0,6.0,4.0,1.0,-6.0,-4.0,1650819802234969.0
-15.0,18.0,5.0,-4.0,-2.0,-4.0,-18.0,-23.0,1650819802234969.0
20.0,17.0,0.0,2.0,1.0,3.0,17.0,18.0,1650819802247704.0
-18.0,12.0,7.0,-5.0,-9.0,-9.0,-15.0,-16.0,1650819802247704.0
12.0,-5.0,-12.0,3.0,4.0,2.0,3.0,-2.0,1650819802253991.0
3.0,-7.0,14.0,15.0,18.0,22.0,12.0,5.0,1650819802253991.0
-3.0,20.0,-15.0,-7.0,-3.0,0.0,-10.0,-15.0,1650819802270154.0
-13.0,-34.0,-3.0,-11.0,-14.0,-16.0,-16.0,-18.0,1650819802270154.0
6.0,2.0,-15.0,-1.0,-4.0,-2.0,13.0,10.0,1650819802272088.0
-1.0,-21.0,2.0,5.0,3.0,4.0,-4.0,-1.0,1650819802272088.0
8.0,16.0,-15.0,-8.0,-3.0,-2.0,2.0,11.0,1650819802293403.0
-1.0,11.0,12.0,9.0,13.0,10.0,4.0,2.0,1650819802293403.0
-2.0,1.0,6.0,-16.0,-5.0,1.0,-3.0,5.0,1650819802295023.0
0.0,-10.0,-18.0,-8.0,-10.0,-10.0,3.0,1.0,1650819802295023.0
18.0,14.0,23.0,14.0,6.0,-1.0,-7.0,2.0,1650819802307728.0
-13.0,-4.0,10.0,3.0,-9.0,-7.0,2.0,8.0,1650819802307728.0
1.0,-4.0,-20.0,-6.0,4.0,1.0,-4.0,1.0,1650819802314099.0
8.0,-5.0,-3.0,-3.0,0.0,5.0,23.0,42.0,1650819802314099.0
1.0,7.0,7.0,-8.0,-9.0,-9.0,-4.0,-4.0,1650819802330903.0
-19.0,-14.0,3.0,5.0,2.0,-3.0,7.0,0.0,1650819802330903.0
9.0,-7.0,-15.0,-14.0,-11.0,-7.0,-22.0,-31.0,1650819802331899.0
-2.0,18.0,22.0,15.0,7.0,7.0,0.0,3.0,1650819802331899.0
0.0,-19.0,-1.0,6.0,19.0,14.0,31.0,46.0,1650819802353803.0
3.0,-17.0,-5.0,-6.0,4.0,10.0,2.0,-2.0,1650819802353803.0
3.0,14.0,19.0,8.0,4.0,3.0,12.0,18.0,1650819802359065.0
-6.0,10.0,-5.0,-12.0,-20.0,-19.0,-40.0,-72.0,1650819802359065.0
2.0,0.0,2.0,12.0,-9.0,-11.0,2.0,33.0,1650819802367761.0
1.0,-12.0,-6.0,-2.0,5.0,5.0,20.0,23.0,1650819802367761.0
-13.0,9.0,15.0,11.0,7.0,3.0,-8.0,-20.0,1650819802373832.0
12.0,-29.0,-6.0,4.0,8.0,2.0,-1.0,5.0,1650819802373832.0
10.0,41.0,9.0,-2.0,3.0,0.0,-3.0,-25.0,1650819802390100.0
0.0,4.0,7.0,-5.0,-13.0,-12.0,-14.0,-13.0,1650819802390100.0
-7.0,1.0,1.0,5.0,-6.0,-6.0,-4.0,1.0,1650819802392028.0
-8.0,1.0,13.0,3.0,9.0,13.0,4.0,-1.0,1650819802392028.0
-7.0,-16.0,6.0,4.0,5.0,4.0,-5.0,-15.0,1650819802412967.0
5.0,12.0,-5.0,10.0,9.0,16.0,-4.0,-11.0,1650819802412967.0
-6.0,3.0,-4.0,-20.0,-10.0,-3.0,5.0,15.0,1650819802414932.0
-8.0,-29.0,-21.0,-7.0,-4.0,-11.0,-5.0,-3.0,1650819802414932.0
1.0,3.0,4.0,-2.0,-7.0,-8.0,-8.0,-4.0,1650819802427019.0
12.0,2.0,-6.0,-8.0,-10.0,-9.0,14.0,12.0,1650819802427019.0
-1.0,-11.0,-18.0,5.0,3.0,1.0,26.0,40.0,1650819802434000.0
3.0,9.0,13.0,1.0,-4.0,0.0,1.0,-9.0,1650819802434000.0
-8.0,-3.0,8.0,2.0,2.0,3.0,-14.0,-20.0,1650819802450895.0
8.0,17.0,5.0,-2.0,10.0,18.0,16.0,8.0,1650819802450895.0
3.0,-16.0,-12.0,-2.0,1.0,3.0,-8.0,-8.0,1650819802451853.0
-3.0,0.0,-10.0,-7.0,5.0,0.0,6.0,5.0,1650819802451853.0
-5.0,0.0,8.0,6.0,0.0,-2.0,-6.0,-23.0,1650819802473035.0
5.0,4.0,-7.0,-3.0,-3.0,-9.0,-11.0,6.0,1650819802473035.0
-9.0,-1.0,-10.0,-6.0,-8.0,-10.0,-5.0,-10.0,1650819802474990.0
-8.0,-22.0,21.0,16.0,6.0,3.0,0.0,14.0,1650819802474990.0
-2.0,4.0,-10.0,-8.0,9.0,13.0,-4.0,-31.0,1650819802487113.0
-2.0,-12.0,1.0,1.0,-5.0,-9.0,-15.0,-28.0,1650819802487113.0
6.0,16.0,11.0,-2.0,-12.0,-8.0,14.0,32.0,1650819802494096.0
-3.0,3.0,-11.0,-7.0,2.0,7.0,0.0,16.0,1650819802494096.0
5.0,9.0,10.0,-2.0,-13.0,-5.0,16.0,33.0,1650819802510136.0
3.0,-1.0,-8.0,0.0,2.0,-2.0,4.0,0.0,1650819802510136.0
3.0,-4.0,13.0,1.0,1.0,-3.0,-1.0,-3.0,1650819802512065.0
-8.0,-1.0,3.0,0.0,1.0,-4.0,-15.0,-21.0,1650819802512065.0
-1.0,-2.0,-19.0,-6.0,-10.0,-9.0,8.0,9.0,1650819802540428.0
0.0,-2.0,-16.0,-2.0,3.0,2.0,1.0,6.0,1650819802540428.0
-1.0,-6.0,15.0,8.0,4.0,12.0,-6.0,-10.0,1650819802542384.0
-4.0,9.0,-2.0,-9.0,-10.0,-1.0,-5.0,-14.0,1650819802542384.0
9.0,13.0,16.0,5.0,4.0,-5.0,2.0,-2.0,1650819802546346.0
-6.0,-24.0,-23.0,-9.0,-11.0,-17.0,-2.0,18.0,1650819802546346.0
-4.0,-22.0,-7.0,1.0,5.0,6.0,-11.0,-25.0,1650819802555336.0
0.0,17.0,-14.0,-7.0,-1.0,4.0,6.0,12.0,1650819802555336.0
9.0,3.0,11.0,5.0,-5.0,-4.0,2.0,5.0,1650819802570349.0
-12.0,-8.0,-24.0,-6.0,-2.0,-2.0,-11.0,-8.0,1650819802570349.0
0.0,5.0,5.0,-6.0,-1.0,-2.0,-5.0,-6.0,1650819802572300.0
-2.0,-7.0,-1.0,1.0,-2.0,-3.0,-12.0,-48.0,1650819802572300.0
-8.0,-12.0,-1.0,5.0,5.0,0.0,7.0,57.0,1650819802593393.0
6.0,17.0,21.0,4.0,10.0,18.0,0.0,-22.0,1650819802593393.0
-2.0,-3.0,-20.0,-15.0,-10.0,-3.0,-10.0,-8.0,1650819802594403.0
0.0,-6.0,1.0,9.0,4.0,-9.0,8.0,1.0,1650819802594403.0
2.0,-3.0,-20.0,-10.0,-4.0,-1.0,7.0,16.0,1650819802607087.0
-5.0,-4.0,15.0,-7.0,-12.0,-9.0,1.0,13.0,1650819802607087.0
0.0,0.0,14.0,16.0,9.0,0.0,-3.0,-9.0,1650819802616089.0
0.0,14.0,2.0,8.0,2.0,-3.0,-9.0,-22.0,1650819802616089.0
-10.0,-24.0,1.0,-2.0,-2.0,14.0,1.0,7.0,1650819802630120.0
12.0,12.0,2.0,6.0,17.0,21.0,28.0,22.0,1650819802630120.0
-1.0,3.0,-21.0,-10.0,-3.0,-9.0,-7.0,-25.0,1650819802632049.0
3.0,7.0,8.0,2.0,-9.0,-12.0,-4.0,36.0,1650819802632049.0
5.0,4.0,-7.0,0.0,5.0,4.0,0.0,-18.0,1650819802653241.0
-13.0,-13.0,6.0,7.0,-1.0,-1.0,-19.0,-14.0,1650819802653241.0
-10.0,3.0,17.0,5.0,-1.0,-3.0,-12.0,-35.0,1650819802659294.0
4.0,-12.0,-20.0,-12.0,-7.0,-7.0,-1.0,-20.0,1650819802659294.0
-1.0,-3.0,6.0,4.0,8.0,5.0,3.0,15.0,1650819802666398.0
0.0,10.0,10.0,4.0,7.0,3.0,6.0,14.0,1650819802666398.0
2.0,-10.0,-17.0,-11.0,-2.0,6.0,14.0,28.0,1650819802675306.0
-8.0,4.0,22.0,14.0,0.0,3.0,-30.0,-52.0,1650819802675306.0
2.0,9.0,-5.0,0.0,-10.0,-12.0,-4.0,-19.0,1650819802690482.0
9.0,-4.0,1.0,-6.0,-4.0,-4.0,13.0,20.0,1650819802690482.0
-2.0,-7.0,6.0,9.0,7.0,6.0,9.0,16.0,1650819802692439.0
0.0,-9.0,-2.0,-6.0,-6.0,-2.0,10.0,19.0,1650819802692439.0
-6.0,0.0,-15.0,-8.0,-4.0,-4.0,-21.0,-34.0,1650819802713101.0
-1.0,5.0,2.0,4.0,6.0,-1.0,-14.0,-18.0,1650819802713101.0
3.0,17.0,12.0,0.0,-11.0,-18.0,6.0,22.0,1650819802714986.0
9.0,8.0,0.0,2.0,7.0,8.0,15.0,27.0,1650819802714986.0
-8.0,-17.0,-10.0,-3.0,-4.0,9.0,-11.0,-21.0,1650819802727060.0
-4.0,8.0,5.0,-7.0,5.0,9.0,-3.0,-16.0,1650819802727060.0
7.0,-2.0,-22.0,2.0,5.0,8.0,24.0,14.0,1650819802741948.0
1.0,4.0,9.0,0.0,-4.0,-11.0,5.0,42.0,1650819802741948.0
-5.0,10.0,-7.0,-9.0,-6.0,-12.0,-18.0,-8.0,1650819802750905.0
6.0,7.0,11.0,7.0,-4.0,1.0,25.0,26.0,1650819802750905.0
-1.0,-3.0,-11.0,-10.0,-1.0,8.0,-8.0,-21.0,1650819802751862.0
-3.0,-4.0,-8.0,-6.0,-4.0,-14.0,-9.0,1.0,1650819802751862.0
-4.0,-1.0,3.0,0.0,0.0,-2.0,0.0,-7.0,1650819802773377.0
-16.0,-14.0,-11.0,0.0,-13.0,-8.0,-38.0,-43.0,1650819802773377.0
-2.0,16.0,3.0,3.0,11.0,0.0,17.0,39.0,1650819802774904.0
22.0,1.0,-6.0,-15.0,2.0,22.0,34.0,44.0,1650819802774904.0
-7.0,-13.0,-7.0,-4.0,1.0,-1.0,-7.0,-17.0,1650819802786952.0
-1.0,-1.0,-6.0,-1.0,-1.0,-8.0,-15.0,-6.0,1650819802786952.0
-7.0,3.0,15.0,0.0,-13.0,-8.0,-11.0,-33.0,1650819802795052.0
-5.0,-4.0,-10.0,3.0,4.0,-6.0,-10.0,-12.0,1650819802795052.0
1.0,15.0,11.0,-1.0,-6.0,-6.0,-3.0,-10.0,1650819802810903.0
-4.0,-16.0,-19.0,-12.0,-9.0,-15.0,-6.0,23.0,1650819802810903.0
5.0,-9.0,-7.0,-4.0,-3.0,7.0,5.0,-2.0,1650819802811875.0
-8.0,-7.0,4.0,6.0,0.0,-4.0,-10.0,-14.0,1650819802811875.0
12.0,-2.0,2.0,10.0,16.0,22.0,28.0,30.0,1650819802833029.0
2.0,5.0,4.0,8.0,11.0,-6.0,3.0,-8.0,1650819802833029.0
4.0,-12.0,-9.0,-6.0,0.0,12.0,-1.0,4.0,1650819802834984.0
1.0,3.0,-1.0,-3.0,-5.0,6.0,8.0,13.0,1650819802834984.0
0.0,4.0,2.0,-8.0,-7.0,-2.0,-12.0,-15.0,1650819802846937.0
-4.0,7.0,20.0,12.0,1.0,0.0,3.0,3.0,1650819802846937.0
6.0,4.0,-16.0,-8.0,2.0,-5.0,3.0,13.0,1650819802861920.0
2.0,6.0,18.0,9.0,6.0,3.0,6.0,4.0,1650819802861920.0
-4.0,-2.0,3.0,3.0,-3.0,-5.0,3.0,6.0,1650819802870933.0
6.0,-12.0,-28.0,-6.0,-1.0,-2.0,5.0,3.0,1650819802870933.0
-5.0,3.0,15.0,4.0,2.0,5.0,-4.0,-3.0,1650819802872544.0
0.0,-20.0,-3.0,-5.0,-5.0,2.0,-7.0,-45.0,1650819802872544.0
-1.0,-6.0,2.0,14.0,6.0,-6.0,-8.0,54.0,1650819802892712.0
10.0,17.0,19.0,-3.0,4.0,14.0,48.0,38.0,1650819802892712.0
1.0,-4.0,-8.0,-3.0,-13.0,-15.0,-12.0,-30.0,1650819802894668.0
-9.0,-9.0,-3.0,-5.0,0.0,-6.0,0.0,34.0,1650819802894668.0
2.0,3.0,4.0,7.0,12.0,14.0,-13.0,-52.0,1650819802906717.0
-5.0,-2.0,-3.0,-8.0,-10.0,-3.0,-14.0,-16.0,1650819802906717.0
-2.0,4.0,10.0,14.0,13.0,4.0,5.0,15.0,1650819802915695.0
0.0,9.0,24.0,10.0,8.0,11.0,1.0,-9.0,1650819802915695.0
5.0,2.0,-15.0,-16.0,-12.0,-5.0,0.0,-7.0,1650819802938088.0
-8.0,-3.0,-2.0,0.0,-8.0,-8.0,-20.0,-19.0,1650819802938088.0
-4.0,-10.0,-8.0,-5.0,2.0,-13.0,-10.0,-11.0,1650819802939115.0
-1.0,-2.0,-11.0,-6.0,-11.0,2.0,4.0,1.0,1650819802939115.0
5.0,13.0,12.0,-1.0,0.0,5.0,12.0,11.0,1650819802953439.0
-2.0,-19.0,-17.0,0.0,6.0,2.0,-10.0,-14.0,1650819802953439.0
-3.0,10.0,21.0,2.0,-4.0,-9.0,-28.0,-61.0,1650819802954441.0
2.0,1.0,2.0,6.0,-8.0,-11.0,16.0,66.0,1650819802954441.0
0.0,-8.0,-6.0,-8.0,4.0,5.0,15.0,0.0,1650819802975924.0
7.0,9.0,11.0,8.0,7.0,15.0,10.0,17.0,1650819802975924.0
-12.0,-10.0,-10.0,-14.0,-2.0,-3.0,-18.0,-36.0,1650819802976926.0
-2.0,4.0,-1.0,15.0,5.0,-3.0,-15.0,-45.0,1650819802976926.0
-2.0,-36.0,23.0,7.0,-5.0,-9.0,31.0,69.0,1650819802991006.0
-15.0,-13.0,-6.0,-8.0,-8.0,-7.0,-9.0,-9.0,1650819802991006.0
14.0,-4.0,3.0,-4.0,-4.0,6.0,8.0,21.0,1650819802991997.0
-6.0,-1.0,2.0,-1.0,-4.0,-3.0,-8.0,-26.0,1650819802991997.0
-8.0,3.0,0.0,10.0,-2.0,-9.0,-7.0,-1.0,1650819803013092.0
5.0,11.0,-11.0,-6.0,9.0,10.0,-2.0,-13.0,1650819803013092.0
-6.0,10.0,27.0,11.0,12.0,23.0,1.0,16.0,1650819803014062.0
-2.0,-6.0,-10.0,-15.0,-2.0,-8.0,-7.0,-28.0,1650819803014062.0
-3.0,2.0,-17.0,-6.0,-7.0,-12.0,-20.0,-16.0,1650819803035288.0
-1.0,-14.0,-7.0,-7.0,-19.0,-20.0,4.0,16.0,1650819803035288.0
8.0,18.0,13.0,17.0,1.0,7.0,21.0,21.0,1650819803037217.0
-3.0,5.0,7.0,-4.0,2.0,12.0,-9.0,-17.0,1650819803037217.0
-1.0,1.0,-6.0,-9.0,8.0,8.0,18.0,20.0,1650819803050908.0
4.0,3.0,3.0,6.0,3.0,-5.0,-8.0,-15.0,1650819803050908.0
-2.0,-5.0,-20.0,-2.0,-5.0,-9.0,-2.0,10.0,1650819803051852.0
0.0,-13.0,-10.0,0.0,4.0,-4.0,3.0,12.0,1650819803051852.0
-2.0,10.0,26.0,2.0,-6.0,-1.0,-11.0,-21.0,1650819803073356.0
-7.0,-3.0,-3.0,-3.0,-3.0,-2.0,-20.0,-52.0,1650819803073356.0
2.0,-11.0,-8.0,-1.0,-4.0,-3.0,19.0,70.0,1650819803074910.0
1.0,9.0,4.0,9.0,8.0,7.0,17.0,9.0,1650819803074910.0
8.0,10.0,-15.0,-1.0,4.0,4.0,-2.0,-6.0,1650819803095843.0
2.0,5.0,1.0,-5.0,8.0,11.0,11.0,22.0,1650819803095843.0
-1.0,-8.0,-6.0,-9.0,-13.0,-8.0,-9.0,-6.0,1650819803096838.0
-9.0,4.0,3.0,-6.0,-6.0,-6.0,-29.0,-46.0,1650819803096838.0
-1.0,-5.0,-18.0,0.0,-6.0,1.0,2.0,-7.0,1650819803109928.0
-3.0,-3.0,6.0,5.0,-4.0,-21.0,-15.0,-41.0,1650819803109928.0
0.0,-16.0,-7.0,2.0,-4.0,-5.0,6.0,40.0,1650819803116905.0
5.0,10.0,-7.0,-17.0,-3.0,18.0,12.0,18.0,1650819803116905.0
-4.0,1.0,3.0,3.0,9.0,3.0,-9.0,-27.0,1650819803133828.0
7.0,8.0,15.0,6.0,-5.0,1.0,2.0,-1.0,1650819803133828.0
-9.0,-1.0,-7.0,3.0,6.0,-2.0,-21.0,-27.0,1650819803138831.0
1.0,1.0,-8.0,6.0,10.0,1.0,24.0,31.0,1650819803138831.0
-1.0,-12.0,-12.0,-16.0,-19.0,-7.0,-9.0,-21.0,1650819803155794.0
4.0,2.0,-21.0,-1.0,9.0,5.0,0.0,10.0,1650819803155794.0
2.0,5.0,27.0,9.0,1.0,-2.0,1.0,-16.0,1650819803156801.0
2.0,-8.0,9.0,5.0,-1.0,-1.0,-4.0,10.0,1650819803156801.0
0.0,2.0,-13.0,-11.0,-1.0,0.0,15.0,27.0,1650819803169928.0
-1.0,5.0,-1.0,0.0,-4.0,-4.0,1.0,12.0,1650819803169928.0
6.0,8.0,24.0,8.0,6.0,5.0,-1.0,-7.0,1650819803176805.0
-1.0,6.0,-13.0,-8.0,-11.0,-6.0,1.0,-4.0,1650819803176805.0
-12.0,3.0,15.0,0.0,0.0,-10.0,-32.0,-45.0,1650819803192877.0
7.0,-18.0,-22.0,-3.0,-2.0,5.0,14.0,36.0,1650819803192877.0
-10.0,-4.0,-16.0,-15.0,-4.0,0.0,-12.0,-34.0,1650819803194833.0
4.0,-2.0,3.0,5.0,1.0,-8.0,20.0,34.0,1650819803194833.0
-2.0,-1.0,8.0,4.0,1.0,1.0,-12.0,-15.0,1650819803215887.0
-3.0,-9.0,18.0,2.0,13.0,21.0,0.0,-3.0,1650819803215887.0
-11.0,-2.0,-1.0,-4.0,-4.0,-6.0,-26.0,-60.0,1650819803217910.0
-3.0,-2.0,-9.0,-2.0,-9.0,-12.0,-15.0,14.0,1650819803217910.0
10.0,-3.0,-6.0,3.0,2.0,4.0,37.0,38.0,1650819803229913.0
-5.0,7.0,14.0,-5.0,-9.0,-9.0,-12.0,12.0,1650819803229913.0
5.0,1.0,-6.0,0.0,8.0,10.0,11.0,14.0,1650819803236896.0
2.0,14.0,-9.0,-7.0,3.0,9.0,-21.0,-36.0,1650819803236896.0
-4.0,-6.0,-42.0,-6.0,-8.0,-1.0,6.0,9.0,1650819803252932.0
-3.0,3.0,17.0,7.0,-5.0,-12.0,-2.0,0.0,1650819803252932.0
5.0,6.0,0.0,3.0,7.0,1.0,8.0,10.0,1650819803254886.0
-4.0,-9.0,-10.0,1.0,1.0,-2.0,-4.0,-13.0,1650819803254886.0
3.0,4.0,25.0,6.0,6.0,1.0,-10.0,-9.0,1650819803275066.0
-6.0,-8.0,-17.0,-21.0,-15.0,-7.0,-4.0,-25.0,1650819803275066.0
2.0,-3.0,-23.0,2.0,-8.0,-3.0,14.0,37.0,1650819803276995.0
-4.0,-12.0,30.0,-1.0,-7.0,-6.0,3.0,9.0,1650819803276995.0
7.0,0.0,-27.0,4.0,0.0,7.0,29.0,34.0,1650819803290026.0
-2.0,0.0,4.0,-8.0,8.0,13.0,9.0,8.0,1650819803290026.0
6.0,-6.0,13.0,3.0,7.0,9.0,2.0,-8.0,1650819803297032.0
2.0,-2.0,0.0,4.0,-3.0,-3.0,-4.0,-3.0,1650819803297032.0
-1.0,10.0,20.0,0.0,-8.0,-15.0,-20.0,-5.0,1650819803313436.0
-5.0,4.0,-11.0,-3.0,-12.0,-16.0,4.0,-11.0,1650819803313436.0
2.0,3.0,5.0,12.0,11.0,14.0,4.0,9.0,1650819803314436.0
-1.0,-6.0,-7.0,-3.0,6.0,9.0,3.0,4.0,1650819803314436.0
0.0,-2.0,5.0,-3.0,0.0,1.0,-7.0,-10.0,1650819803335446.0
4.0,6.0,2.0,2.0,-6.0,-13.0,-1.0,4.0,1650819803335446.0
-4.0,-8.0,-4.0,-2.0,0.0,-3.0,-1.0,-1.0,1650819803341429.0
1.0,2.0,-2.0,1.0,-1.0,7.0,0.0,0.0,1650819803341429.0
2.0,-5.0,-5.0,-6.0,16.0,21.0,5.0,-6.0,1650819803349520.0
1.0,2.0,7.0,12.0,7.0,9.0,3.0,4.0,1650819803349520.0
1.0,10.0,-6.0,-13.0,-12.0,-15.0,8.0,11.0,1650819803358431.0
0.0,0.0,-4.0,-8.0,-14.0,-21.0,-10.0,-6.0,1650819803358431.0
6.0,2.0,2.0,7.0,-5.0,-6.0,-6.0,-5.0,1650819803373461.0
0.0,2.0,-1.0,2.0,2.0,6.0,4.0,6.0,1650819803373461.0
1.0,-1.0,3.0,-2.0,6.0,6.0,-2.0,-6.0,1650819803374461.0
-2.0,0.0,-3.0,1.0,-2.0,-11.0,-6.0,1.0,1650819803374461.0
-5.0,2.0,7.0,3.0,1.0,8.0,10.0,0.0,1650819803395627.0
0.0,3.0,1.0,0.0,3.0,10.0,3.0,-3.0,1650819803395627.0
0.0,5.0,4.0,4.0,2.0,6.0,2.0,-3.0,1650819803396557.0
-1.0,-3.0,2.0,7.0,15.0,4.0,14.0,8.0,1650819803396557.0
-5.0,-9.0,-5.0,-6.0,-8.0,-11.0,-15.0,-29.0,1650819803409676.0
4.0,1.0,-5.0,-5.0,-13.0,-6.0,-2.0,24.0,1650819803409676.0
-2.0,0.0,1.0,2.0,-5.0,-10.0,-5.0,-7.0,1650819803417730.0
2.0,3.0,4.0,8.0,16.0,19.0,-2.0,-3.0,1650819803417730.0
1.0,0.0,4.0,-3.0,0.0,-9.0,1.0,0.0,1650819803432846.0
-1.0,1.0,1.0,2.0,5.0,4.0,-5.0,-9.0,1650819803432846.0
-2.0,-3.0,-4.0,-4.0,-11.0,-6.0,-3.0,1.0,1650819803434775.0
0.0,-5.0,-6.0,-6.0,-9.0,-15.0,-3.0,-1.0,1650819803434775.0
0.0,5.0,5.0,5.0,4.0,-7.0,-4.0,-1.0,1650819803455059.0
-1.0,-1.0,-4.0,-2.0,-1.0,-5.0,-8.0,-1.0,1650819803455059.0
0.0,-2.0,-3.0,-2.0,3.0,18.0,6.0,4.0,1650819803456987.0
1.0,1.0,1.0,2.0,2.0,16.0,9.0,-3.0,1650819803456987.0
1.0,4.0,4.0,3.0,7.0,6.0,4.0,10.0,1650819803469020.0
-2.0,-2.0,-2.0,-4.0,-5.0,-15.0,-4.0,-5.0,1650819803469020.0
-6.0,-5.0,-4.0,-4.0,-7.0,-15.0,-9.0,-4.0,1650819803477930.0
9.0,-1.0,-2.0,0.0,-6.0,1.0,10.0,9.0,1650819803477930.0
-6.0,1.0,4.0,3.0,2.0,-4.0,-3.0,-2.0,1650819803492933.0
10.0,-3.0,-2.0,-3.0,2.0,3.0,1.0,20.0,1650819803492933.0
-9.0,0.0,-2.0,-1.0,2.0,1.0,-1.0,-39.0,1650819803494889.0
-3.0,0.0,-1.0,-2.0,5.0,10.0,-2.0,7.0,1650819803494889.0
2.0,4.0,3.0,3.0,-3.0,6.0,1.0,2.0,1650819803515189.0
-1.0,3.0,8.0,4.0,-5.0,-8.0,-1.0,-4.0,1650819803515189.0
0.0,-3.0,-12.0,-14.0,-9.0,-12.0,4.0,11.0,1650819803517119.0
-2.0,1.0,1.0,5.0,-4.0,-5.0,-6.0,-3.0,1650819803517119.0
-3.0,-5.0,-9.0,-7.0,1.0,-3.0,4.0,-4.0,1650819803529152.0
0.0,1.0,-1.0,2.0,11.0,20.0,3.0,0.0,1650819803529152.0
4.0,0.0,9.0,7.0,11.0,14.0,1.0,10.0,1650819803537755.0
0.0,-1.0,-2.0,-3.0,-8.0,-13.0,-1.0,-6.0,1650819803537755.0
-1.0,-1.0,3.0,5.0,0.0,-3.0,-5.0,3.0,1650819803553381.0
-2.0,-2.0,-2.0,-3.0,-2.0,-6.0,2.0,-5.0,1650819803553381.0
1.0,-5.0,6.0,-1.0,-6.0,-10.0,-3.0,5.0,1650819803554369.0
-2.0,1.0,1.0,6.0,7.0,12.0,0.0,-3.0,1650819803554369.0
-2.0,-3.0,-11.0,2.0,0.0,1.0,0.0,-1.0,1650819803575987.0
1.0,-2.0,-3.0,-14.0,-13.0,-7.0,-3.0,-4.0,1650819803575987.0
2.0,-2.0,-7.0,-16.0,-4.0,1.0,5.0,4.0,1650819803576999.0
-7.0,-4.0,-1.0,4.0,7.0,-2.0,-2.0,-1.0,1650819803576999.0
8.0,4.0,8.0,3.0,-1.0,-2.0,-1.0,1.0,1650819803588864.0
-3.0,5.0,3.0,9.0,4.0,9.0,2.0,-2.0,1650819803588864.0
2.0,0.0,-1.0,5.0,-1.0,0.0,-5.0,1.0,1650819803597755.0
-2.0,0.0,-5.0,-20.0,-19.0,-14.0,-11.0,-5.0,1650819803597755.0
-7.0,-11.0,-3.0,1.0,3.0,-11.0,2.0,0.0,1650819803612587.0
-5.0,-6.0,-9.0,-1.0,12.0,21.0,0.0,-3.0,1650819803612587.0
3.0,1.0,5.0,14.0,1.0,10.0,8.0,3.0,1650819803620568.0
3.0,5.0,4.0,2.0,7.0,5.0,7.0,-1.0,1650819803620568.0
-1.0,1.0,-6.0,-22.0,-6.0,3.0,0.0,-3.0,1650819803635649.0
0.0,-4.0,4.0,6.0,-8.0,-20.0,-7.0,2.0,1650819803635649.0
0.0,7.0,16.0,18.0,2.0,-12.0,-17.0,-1.0,1650819803636622.0
-3.0,-3.0,-4.0,4.0,6.0,14.0,20.0,1.0,1650819803636622.0
10.0,-1.0,-15.0,-22.0,-2.0,9.0,3.0,15.0,1650819803649560.0
-9.0,-4.0,1.0,-3.0,-11.0,-10.0,-1.0,-21.0,1650819803649560.0
-2.0,-3.0,0.0,15.0,3.0,-2.0,-4.0,3.0,1650819803657733.0
3.0,2.0,6.0,11.0,-1.0,-11.0,-7.0,-1.0,1650819803657733.0
-2.0,1.0,2.0,-18.0,-5.0,-1.0,-8.0,2.0,1650819803672752.0
0.0,3.0,-3.0,2.0,2.0,0.0,-2.0,1.0,1650819803672752.0
6.0,0.0,11.0,7.0,4.0,8.0,13.0,6.0,1650819803674684.0
-10.0,-4.0,-1.0,2.0,10.0,12.0,7.0,1.0,1650819803674684.0
-1.0,4.0,4.0,18.0,10.0,11.0,2.0,-5.0,1650819803695846.0
4.0,1.0,1.0,-2.0,-2.0,-7.0,-3.0,0.0,1650819803695846.0
-4.0,-4.0,-12.0,-28.0,-13.0,-15.0,-7.0,-5.0,1650819803696823.0
3.0,0.0,-7.0,-10.0,-2.0,2.0,-3.0,4.0,1650819803696823.0
-1.0,-1.0,9.0,20.0,1.0,-6.0,-5.0,-2.0,1650819803708853.0
-3.0,-9.0,-6.0,-6.0,-3.0,8.0,3.0,-2.0,1650819803708853.0
1.0,2.0,16.0,7.0,0.0,2.0,-3.0,4.0,1650819803717754.0
3.0,3.0,6.0,7.0,2.0,-6.0,-2.0,-2.0,1650819803717754.0
-6.0,-8.0,-27.0,-27.0,-13.0,-12.0,-7.0,-9.0,1650819803732783.0
1.0,2.0,7.0,10.0,-2.0,-2.0,2.0,2.0,1650819803732783.0
-3.0,-6.0,-16.0,-1.0,1.0,1.0,-1.0,-3.0,1650819803734739.0
-1.0,-2.0,7.0,-3.0,-12.0,-7.0,-6.0,-3.0,1650819803734739.0
-1.0,4.0,10.0,16.0,11.0,7.0,1.0,-2.0,1650819803755070.0
2.0,-3.0,0.0,-2.0,9.0,6.0,2.0,3.0,1650819803755070.0
-2.0,-5.0,-9.0,-14.0,-3.0,2.0,3.0,-2.0,1650819803756998.0
-2.0,-2.0,-15.0,-10.0,-9.0,-13.0,-6.0,-5.0,1650819803756998.0
2.0,2.0,1.0,-2.0,-3.0,-5.0,-1.0,1.0,1650819803769088.0
2.0,3.0,9.0,5.0,0.0,3.0,2.0,1.0,1650819803769088.0
-2.0,-4.0,-10.0,-6.0,2.0,7.0,7.0,0.0,1650819803778040.0
-1.0,-3.0,-7.0,-2.0,8.0,7.0,2.0,-1.0,1650819803778040.0
-3.0,-2.0,14.0,3.0,-6.0,-4.0,1.0,-3.0,1650819803793438.0
2.0,-4.0,-25.0,-33.0,-12.0,-10.0,-2.0,0.0,1650819803793438.0
-1.0,1.0,12.0,19.0,0.0,-3.0,-2.0,-1.0,1650819803794442.0
2.0,0.0,1.0,4.0,0.0,-1.0,-5.0,-3.0,1650819803794442.0
-6.0,2.0,5.0,-3.0,-12.0,-5.0,-2.0,-1.0,1650819803815643.0
0.0,-1.0,-9.0,1.0,3.0,-6.0,0.0,0.0,1650819803815643.0
2.0,4.0,0.0,-6.0,6.0,16.0,3.0,3.0,1650819803817513.0
2.0,-1.0,-2.0,11.0,6.0,11.0,3.0,2.0,1650819803817513.0
-1.0,-2.0,-1.0,-4.0,-2.0,-2.0,-2.0,-4.0,1650819803829520.0
-4.0,3.0,8.0,5.0,-6.0,-14.0,-4.0,-2.0,1650819803829520.0
0.0,4.0,-8.0,-6.0,-11.0,-14.0,-9.0,-2.0,1650819803838460.0
2.0,-1.0,1.0,0.0,0.0,5.0,5.0,1.0,1650819803838460.0
-4.0,-2.0,-5.0,-4.0,5.0,9.0,-3.0,-3.0,1650819803852812.0
6.0,-1.0,-10.0,-11.0,2.0,6.0,10.0,4.0,1650819803852812.0
-1.0,0.0,-4.0,-1.0,3.0,-3.0,2.0,-1.0,1650819803858858.0
-1.0,-4.0,-1.0,-6.0,-12.0,-13.0,-6.0,-3.0,1650819803858858.0
1.0,5.0,5.0,11.0,-6.0,-4.0,0.0,2.0,1650819803875897.0
-4.0,-3.0,-6.0,-3.0,5.0,7.0,0.0,-2.0,1650819803875897.0
1.0,-4.0,-5.0,-11.0,2.0,1.0,0.0,0.0,1650819803876898.0
1.0,2.0,3.0,-1.0,-5.0,2.0,-1.0,0.0,1650819803876898.0
0.0,-1.0,-9.0,-1.0,3.0,2.0,2.0,0.0,1650819803898172.0
2.0,6.0,21.0,12.0,12.0,9.0,-1.0,2.0,1650819803898172.0
-1.0,-4.0,-22.0,-15.0,-2.0,0.0,1.0,-1.0,1650819803899130.0
-4.0,-6.0,0.0,4.0,-2.0,-4.0,-2.0,-1.0,1650819803899130.0
4.0,0.0,5.0,-1.0,-10.0,-9.0,-3.0,-4.0,1650819803913131.0
-10.0,-2.0,9.0,12.0,1.0,-2.0,-3.0,1.0,1650819803913131.0
2.0,3.0,-1.0,3.0,7.0,5.0,1.0,1.0,1650819803914090.0
-1.0,-1.0,-10.0,-23.0,1.0,1.0,0.0,-1.0,1650819803914090.0
-3.0,-5.0,5.0,17.0,-7.0,-6.0,-4.0,-3.0,1650819803935883.0
-2.0,0.0,-5.0,4.0,0.0,1.0,1.0,-5.0,1650819803935883.0
4.0,5.0,13.0,7.0,-1.0,-1.0,-1.0,-1.0,1650819803936879.0
-2.0,-5.0,-7.0,-11.0,-2.0,-2.0,-2.0,0.0,1650819803936879.0
-3.0,1.0,6.0,4.0,1.0,-1.0,3.0,0.0,1650819803958353.0
5.0,-5.0,-4.0,-3.0,-4.0,-6.0,-3.0,1.0,1650819803958353.0
-5.0,4.0,10.0,7.0,0.0,12.0,2.0,0.0,1650819803959822.0
1.0,1.0,0.0,-6.0,-4.0,-6.0,-1.0,-1.0,1650819803959822.0
-2.0,-3.0,-9.0,-6.0,0.0,-3.0,-2.0,0.0,1650819803972841.0
-2.0,-1.0,-7.0,1.0,-7.0,2.0,-1.0,0.0,1650819803972841.0
-1.0,-4.0,-4.0,-3.0,19.0,8.0,3.0,0.0,1650819803974772.0
3.0,0.0,3.0,1.0,-1.0,-1.0,0.0,0.0,1650819803974772.0
-1.0,-1.0,-2.0,-1.0,-4.0,0.0,1.0,-1.0,1650819803995266.0
-1.0,-2.0,3.0,2.0,0.0,-5.0,0.0,0.0,1650819803995266.0
-1.0,0.0,3.0,1.0,-8.0,-8.0,0.0,-1.0,1650819803997194.0
-5.0,3.0,-3.0,-5.0,-3.0,-6.0,-4.0,-1.0,1650819803997194.0
0.0,-2.0,9.0,16.0,2.0,-12.0,-6.0,-3.0,1650819804018371.0
2.0,3.0,-6.0,-11.0,-3.0,10.0,2.0,-1.0,1650819804018371.0
-3.0,-6.0,4.0,15.0,2.0,10.0,1.0,0.0,1650819804019301.0
3.0,3.0,-1.0,-2.0,7.0,2.0,4.0,0.0,1650819804019301.0
5.0,4.0,-3.0,-15.0,-4.0,-4.0,0.0,1.0,1650819804033341.0
-4.0,-5.0,-2.0,1.0,-1.0,5.0,0.0,1.0,1650819804033341.0
-1.0,2.0,-1.0,-8.0,-8.0,-12.0,-3.0,0.0,1650819804034354.0
0.0,-7.0,-2.0,16.0,5.0,1.0,-3.0,0.0,1650819804034354.0
-2.0,-2.0,-4.0,-5.0,6.0,4.0,2.0,-2.0,1650819804055873.0
1.0,4.0,5.0,-1.0,-1.0,-10.0,-4.0,-3.0,1650819804055873.0
-2.0,-2.0,-2.0,-6.0,-5.0,-6.0,-4.0,-1.0,1650819804056869.0
-4.0,1.0,4.0,-2.0,-3.0,7.0,3.0,-1.0,1650819804056869.0
2.0,0.0,-2.0,1.0,-1.0,1.0,0.0,1.0,1650819804077953.0
7.0,1.0,-3.0,0.0,2.0,3.0,1.0,2.0,1650819804077953.0
-2.0,-2.0,-3.0,-3.0,-6.0,2.0,0.0,-2.0,1650819804079910.0
0.0,4.0,8.0,6.0,-3.0,-10.0,-2.0,0.0,1650819804079910.0
-2.0,0.0,1.0,2.0,4.0,6.0,0.0,-1.0,1650819804091917.0
-2.0,4.0,10.0,6.0,-4.0,-9.0,-2.0,-2.0,1650819804091917.0
2.0,-4.0,-7.0,-4.0,2.0,7.0,1.0,-1.0,1650819804100837.0
1.0,-6.0,3.0,6.0,-3.0,3.0,1.0,-2.0,1650819804100837.0
0.0,9.0,8.0,6.0,3.0,5.0,4.0,1.0,1650819804115697.0
0.0,-4.0,-8.0,0.0,4.0,2.0,0.0,0.0,1650819804115697.0
2.0,-1.0,5.0,3.0,-3.0,-13.0,-3.0,0.0,1650819804116717.0
-1.0,0.0,-3.0,-2.0,-1.0,-2.0,-2.0,2.0,1650819804116717.0
1.0,1.0,-6.0,-7.0,-7.0,4.0,3.0,0.0,1650819804137789.0
-1.0,-3.0,-4.0,-5.0,-1.0,0.0,1.0,0.0,1650819804137789.0
-2.0,-5.0,-3.0,0.0,3.0,0.0,-1.0,0.0,1650819804139787.0
0.0,0.0,5.0,-2.0,2.0,4.0,1.0,-1.0,1650819804139787.0
-3.0,-6.0,-12.0,-4.0,-5.0,-5.0,-4.0,-2.0,1650819804152855.0
-2.0,-1.0,-4.0,1.0,0.0,-2.0,-1.0,-3.0,1650819804152855.0
2.0,1.0,-3.0,-7.0,-1.0,-2.0,0.0,-1.0,1650819804158889.0
0.0,3.0,3.0,1.0,-1.0,1.0,1.0,0.0,1650819804158889.0
5.0,0.0,1.0,-3.0,5.0,1.0,-4.0,1.0,1650819804175777.0
-12.0,-3.0,1.0,6.0,-6.0,-4.0,-2.0,1.0,1650819804175777.0
0.0,1.0,-5.0,-7.0,1.0,-4.0,-1.0,0.0,1650819804176775.0
1.0,1.0,-1.0,2.0,3.0,3.0,1.0,-1.0,1650819804176775.0
1.0,-4.0,4.0,1.0,3.0,3.0,0.0,-3.0,1650819804198377.0
2.0,3.0,-8.0,-14.0,-8.0,4.0,0.0,0.0,1650819804198377.0
0.0,0.0,1.0,13.0,-3.0,-1.0,4.0,1.0,1650819804199830.0
-2.0,-1.0,3.0,9.0,8.0,6.0,-1.0,-1.0,1650819804199830.0
0.0,-1.0,-3.0,-17.0,-1.0,-2.0,1.0,0.0,1650819804212789.0
2.0,6.0,13.0,17.0,8.0,-5.0,-1.0,-2.0,1650819804212789.0
-5.0,4.0,6.0,0.0,-4.0,-2.0,-1.0,-1.0,1650819804218818.0
3.0,-2.0,-9.0,-3.0,-10.0,-11.0,-3.0,-4.0,1650819804218818.0
-3.0,0.0,6.0,3.0,-3.0,-5.0,-1.0,0.0,1650819804235877.0
1.0,1.0,2.0,-2.0,2.0,7.0,-1.0,2.0,1650819804235877.0
1.0,4.0,1.0,-4.0,5.0,8.0,2.0,-1.0,1650819804236878.0
0.0,5.0,11.0,8.0,0.0,-6.0,-1.0,0.0,1650819804236878.0
-1.0,-1.0,-6.0,0.0,-4.0,-9.0,-3.0,0.0,1650819804258072.0
0.0,-5.0,-6.0,-6.0,4.0,3.0,0.0,-1.0,1650819804258072.0
0.0,0.0,2.0,2.0,-1.0,6.0,3.0,1.0,1650819804259098.0
-3.0,-7.0,-12.0,-12.0,-3.0,-6.0,-1.0,0.0,1650819804259098.0
1.0,-3.0,-1.0,-1.0,6.0,7.0,1.0,-1.0,1650819804280080.0
-2.0,-3.0,-9.0,-4.0,-3.0,-9.0,-3.0,-3.0,1650819804280080.0
1.0,-1.0,1.0,1.0,-4.0,-7.0,-3.0,-2.0,1650819804282011.0
-1.0,-6.0,-5.0,-5.0,0.0,3.0,0.0,1.0,1650819804282011.0
1.0,-1.0,4.0,5.0,1.0,-2.0,-1.0,1.0,1650819804295871.0
0.0,-1.0,3.0,-10.0,-8.0,-6.0,-5.0,1.0,1650819804295871.0
5.0,-2.0,-6.0,3.0,5.0,-1.0,0.0,-3.0,1650819804296870.0
-2.0,-1.0,4.0,9.0,5.0,11.0,4.0,1.0,1650819804296870.0
-1.0,4.0,-5.0,-5.0,14.0,17.0,6.0,2.0,1650819804318030.0
3.0,-1.0,8.0,13.0,3.0,1.0,2.0,0.0,1650819804318030.0
-2.0,-1.0,-3.0,-3.0,-9.0,-16.0,-4.0,0.0,1650819804319982.0
-1.0,-4.0,-5.0,-11.0,-12.0,-11.0,-5.0,0.0,1650819804319982.0
0.0,-4.0,-10.0,1.0,-8.0,-8.0,-3.0,-2.0,1650819804331990.0
-1.0,0.0,-2.0,-3.0,3.0,9.0,2.0,-1.0,1650819804331990.0
-2.0,0.0,14.0,15.0,6.0,1.0,-1.0,1.0,1650819804338971.0
3.0,3.0,-2.0,-10.0,-4.0,-6.0,-2.0,-1.0,1650819804338971.0
-4.0,-2.0,-1.0,1.0,-8.0,0.0,-1.0,1.0,1650819804355867.0
-1.0,-3.0,-6.0,-10.0,-4.0,-3.0,0.0,-3.0,1650819804355867.0
-2.0,0.0,1.0,9.0,1.0,2.0,1.0,-1.0,1650819804356872.0
1.0,4.0,5.0,2.0,14.0,8.0,4.0,1.0,1650819804356872.0
1.0,-2.0,1.0,-3.0,-3.0,-6.0,-3.0,-3.0,1650819804378378.0
-4.0,-3.0,-4.0,-2.0,-4.0,-4.0,-1.0,1.0,1650819804378378.0
0.0,-3.0,-1.0,-9.0,-11.0,-3.0,-2.0,-1.0,1650819804379831.0
-2.0,4.0,-4.0,-1.0,5.0,10.0,2.0,1.0,1650819804379831.0
-2.0,0.0,6.0,16.0,7.0,3.0,2.0,0.0,1650819804391924.0
1.0,3.0,4.0,-5.0,6.0,4.0,-1.0,-1.0,1650819804391924.0
2.0,0.0,-5.0,-8.0,-10.0,-12.0,-4.0,-1.0,1650819804400859.0
-12.0,-9.0,-14.0,-1.0,-12.0,-14.0,-6.0,-3.0,1650819804400859.0
1.0,0.0,-1.0,-4.0,-5.0,-4.0,-1.0,1.0,1650819804415844.0
3.0,3.0,7.0,10.0,13.0,15.0,4.0,1.0,1650819804415844.0
-3.0,-2.0,-7.0,0.0,8.0,23.0,6.0,2.0,1650819804416843.0
1.0,5.0,4.0,-8.0,-4.0,-3.0,-1.0,-1.0,1650819804416843.0
1.0,-2.0,-1.0,0.0,-8.0,-10.0,-2.0,1.0,1650819804438402.0
-3.0,2.0,2.0,1.0,0.0,-15.0,-4.0,0.0,1650819804438402.0
4.0,-3.0,-2.0,-5.0,0.0,-6.0,-3.0,-1.0,1650819804439821.0
1.0,-2.0,3.0,11.0,-2.0,8.0,-1.0,-3.0,1650819804439821.0
-3.0,-1.0,-10.0,-13.0,3.0,6.0,3.0,-2.0,1650819804451827.0
-2.0,2.0,2.0,11.0,1.0,2.0,0.0,-2.0,1650819804451827.0
-1.0,2.0,-1.0,-6.0,-3.0,-3.0,-2.0,0.0,1650819804460739.0
2.0,2.0,2.0,2.0,3.0,2.0,0.0,1.0,1650819804460739.0
-1.0,4.0,9.0,7.0,2.0,-1.0,1.0,-1.0,1650819804475872.0
2.0,-4.0,-2.0,1.0,0.0,1.0,0.0,0.0,1650819804475872.0
-3.0,-2.0,-7.0,-9.0,-11.0,-16.0,-4.0,-2.0,1650819804476871.0
-2.0,-1.0,4.0,6.0,-2.0,-3.0,-2.0,-1.0,1650819804476871.0
-1.0,0.0,0.0,-4.0,2.0,5.0,0.0,-1.0,1650819804498034.0
1.0,0.0,-3.0,-8.0,-5.0,-3.0,2.0,2.0,1650819804498034.0
-2.0,-4.0,-4.0,8.0,3.0,0.0,0.0,0.0,1650819804499061.0
0.0,4.0,8.0,9.0,7.0,14.0,1.0,-1.0,1650819804499061.0
1.0,1.0,-1.0,-7.0,5.0,13.0,4.0,1.0,1650819804512057.0
0.0,0.0,7.0,3.0,-6.0,-2.0,0.0,0.0,1650819804512057.0
-2.0,4.0,0.0,-4.0,-4.0,-16.0,-3.0,2.0,1650819804527001.0
4.0,-5.0,-17.0,-9.0,-10.0,-13.0,-3.0,-4.0,1650819804527001.0
-1.0,0.0,-1.0,5.0,-2.0,-4.0,-3.0,-1.0,1650819804535048.0
-1.0,-1.0,2.0,4.0,8.0,10.0,-1.0,-1.0,1650819804535048.0
0.0,0.0,5.0,-1.0,2.0,4.0,1.0,-1.0,1650819804536979.0
0.0,-2.0,2.0,-2.0,-4.0,-4.0,-1.0,-1.0,1650819804536979.0
-1.0,-2.0,-1.0,3.0,-9.0,-16.0,-2.0,-2.0,1650819804558377.0
2.0,2.0,-4.0,-2.0,2.0,11.0,1.0,0.0,1650819804558377.0
-1.0,-3.0,-6.0,-5.0,5.0,13.0,2.0,0.0,1650819804559827.0
-2.0,-1.0,2.0,-1.0,-5.0,-3.0,-1.0,-1.0,1650819804559827.0
-1.0,1.0,1.0,-1.0,2.0,-1.0,1.0,0.0,1650819804571919.0
-3.0,-4.0,-6.0,-10.0,-5.0,-7.0,-1.0,-2.0,1650819804571919.0
-1.0,-1.0,2.0,4.0,0.0,-6.0,-2.0,-2.0,1650819804580858.0
1.0,-2.0,-2.0,-2.0,-3.0,2.0,1.0,0.0,1650819804580858.0
0.0,-2.0,1.0,0.0,-1.0,1.0,4.0,1.0,1650819804594888.0
2.0,6.0,6.0,8.0,3.0,2.0,1.0,2.0,1650819804594888.0
-2.0,-1.0,-10.0,-17.0,-4.0,-7.0,-5.0,0.0,1650819804602812.0
-3.0,-8.0,-4.0,1.0,-6.0,-19.0,-5.0,-1.0,1650819804602812.0
0.0,1.0,6.0,3.0,8.0,15.0,0.0,0.0,1650819804617948.0
2.0,-3.0,-3.0,-1.0,9.0,25.0,5.0,0.0,1650819804617948.0
0.0,-1.0,0.0,-1.0,4.0,2.0,1.0,-1.0,1650819804619904.0
-1.0,-1.0,-2.0,-5.0,-6.0,-14.0,-1.0,0.0,1650819804619904.0
0.0,-3.0,-4.0,-4.0,-7.0,-10.0,-3.0,0.0,1650819804631910.0
-1.0,-3.0,-4.0,-7.0,-12.0,-10.0,-4.0,-3.0,1650819804631910.0
-1.0,1.0,6.0,11.0,1.0,-1.0,1.0,1.0,1650819804641043.0
-1.0,1.0,-2.0,-5.0,9.0,8.0,0.0,-1.0,1650819804641043.0
0.0,0.0,-3.0,5.0,2.0,5.0,2.0,0.0,1650819804656438.0
-1.0,0.0,3.0,6.0,-2.0,-11.0,-3.0,-2.0,1650819804656438.0
-2.0,-3.0,-1.0,-4.0,-8.0,0.0,-1.0,1.0,1650819804657440.0
0.0,3.0,3.0,-2.0,-5.0,-3.0,0.0,-2.0,1650819804657440.0
-5.0,0.0,-4.0,0.0,5.0,13.0,-4.0,-4.0,1650819804677859.0
0.0,-1.0,-3.0,-4.0,10.0,9.0,5.0,1.0,1650819804677859.0
9.0,2.0,0.0,-2.0,-3.0,0.0,2.0,0.0,1650819804679885.0
-8.0,-2.0,4.0,5.0,2.0,-12.0,-3.0,-2.0,1650819804679885.0
-3.0,0.0,-4.0,-6.0,-4.0,4.0,-2.0,-2.0,1650819804691893.0
0.0,0.0,-5.0,-5.0,-8.0,-13.0,-6.0,-1.0,1650819804691893.0
-3.0,1.0,4.0,5.0,-3.0,-2.0,2.0,-1.0,1650819804700800.0
3.0,-3.0,2.0,3.0,15.0,17.0,5.0,3.0,1650819804700800.0
-1.0,-2.0,1.0,-3.0,-5.0,-3.0,-4.0,-7.0,1650819804715760.0
0.0,3.0,-2.0,-3.0,-4.0,-9.0,-1.0,0.0,1650819804715760.0
-4.0,-3.0,-3.0,1.0,3.0,-2.0,-3.0,0.0,1650819804716767.0
9.0,12.0,0.0,-4.0,-3.0,0.0,0.0,-1.0,1650819804716767.0
-1.0,-2.0,-5.0,-11.0,-2.0,-6.0,0.0,15.0,1650819804738078.0
-12.0,-8.0,11.0,27.0,-3.0,1.0,-3.0,-30.0,1650819804738078.0
8.0,5.0,-1.0,-2.0,0.0,-10.0,-4.0,6.0,1650819804739107.0
-4.0,0.0,-1.0,-3.0,-4.0,0.0,-3.0,-9.0,1650819804739107.0
3.0,-1.0,-7.0,-2.0,4.0,22.0,7.0,2.0,1650819804752091.0
0.0,8.0,-1.0,-1.0,3.0,10.0,6.0,7.0,1650819804752091.0
-4.0,-6.0,3.0,2.0,9.0,11.0,3.0,1.0,1650819804761086.0
-1.0,-2.0,-2.0,-2.0,2.0,-5.0,-2.0,1.0,1650819804761086.0
1.0,1.0,0.0,0.0,-14.0,-28.0,-11.0,-2.0,1650819804775747.0
-1.0,0.0,-1.0,-7.0,-13.0,-11.0,-1.0,3.0,1650819804775747.0
0.0,-2.0,-1.0,3.0,7.0,8.0,2.0,-4.0,1650819804776752.0
0.0,1.0,-5.0,-4.0,5.0,11.0,0.0,5.0,1650819804776752.0
0.0,-2.0,0.0,2.0,-4.0,-8.0,-3.0,-5.0,1650819804797934.0
2.0,-4.0,-2.0,-4.0,-2.0,-8.0,-3.0,-4.0,1650819804797934.0
1.0,4.0,2.0,-1.0,-4.0,-2.0,-2.0,3.0,1650819804805847.0
2.0,-3.0,0.0,3.0,2.0,13.0,9.0,9.0,1650819804805847.0
-7.0,-2.0,3.0,4.0,14.0,14.0,4.0,1.0,1650819804811897.0
3.0,-2.0,-2.0,-4.0,-6.0,-17.0,-4.0,-16.0,1650819804811897.0
-6.0,0.0,-6.0,-4.0,-9.0,-6.0,0.0,1.0,1650819804820916.0
-3.0,-1.0,0.0,3.0,9.0,25.0,4.0,7.0,1650819804820916.0
12.0,6.0,6.0,2.0,7.0,7.0,-3.0,-5.0,1650819804835639.0
2.0,-2.0,-3.0,-6.0,-2.0,-11.0,-4.0,9.0,1650819804835639.0
-3.0,-5.0,3.0,-3.0,-12.0,-18.0,1.0,5.0,1650819804836638.0
-8.0,-10.0,-7.0,-6.0,-13.0,-16.0,-5.0,-3.0,1650819804836638.0
5.0,-1.0,-3.0,7.0,2.0,6.0,-2.0,-1.0,1650819804858377.0
0.0,3.0,-1.0,1.0,9.0,5.0,-1.0,5.0,1650819804858377.0
1.0,3.0,5.0,0.0,-5.0,3.0,0.0,-9.0,1650819804859777.0
1.0,-8.0,2.0,0.0,2.0,2.0,2.0,10.0,1650819804859777.0
-7.0,-1.0,3.0,5.0,4.0,-2.0,0.0,-15.0,1650819804880932.0
1.0,-1.0,-4.0,-5.0,-8.0,-8.0,-4.0,3.0,1650819804880932.0
0.0,4.0,-5.0,1.0,9.0,12.0,0.0,2.0,1650819804881885.0
6.0,-6.0,3.0,-1.0,1.0,3.0,1.0,-4.0,1650819804881885.0
-1.0,3.0,-1.0,1.0,2.0,-12.0,-1.0,2.0,1650819804895861.0
-2.0,9.0,3.0,-1.0,-8.0,2.0,1.0,7.0,1650819804895861.0
-2.0,-12.0,-3.0,0.0,-1.0,7.0,-2.0,-9.0,1650819804896844.0
-1.0,1.0,-1.0,-1.0,3.0,5.0,-3.0,0.0,1650819804896844.0
1.0,-18.0,-9.0,-7.0,-4.0,-5.0,4.0,5.0,1650819804918028.0
0.0,1.0,3.0,0.0,4.0,3.0,-1.0,2.0,1650819804918028.0
2.0,13.0,0.0,2.0,-5.0,-16.0,-6.0,-5.0,1650819804919990.0
-6.0,1.0,-2.0,-1.0,-13.0,-23.0,-10.0,-8.0,1650819804919990.0
-6.0,-22.0,-3.0,-2.0,-9.0,-1.0,5.0,4.0,1650819804940906.0
-3.0,-6.0,-7.0,-7.0,11.0,27.0,6.0,6.0,1650819804940906.0
5.0,0.0,0.0,4.0,16.0,2.0,1.0,0.0,1650819804941894.0
2.0,4.0,-1.0,-4.0,-10.0,-16.0,-3.0,-3.0,1650819804941894.0
-2.0,8.0,4.0,3.0,-5.0,4.0,0.0,1.0,1650819804955870.0
2.0,-3.0,1.0,3.0,8.0,14.0,0.0,-1.0,1650819804955870.0
-2.0,2.0,5.0,1.0,7.0,5.0,3.0,3.0,1650819804956869.0
-1.0,-6.0,-2.0,-3.0,-5.0,-18.0,-3.0,-4.0,1650819804956869.0
2.0,6.0,-1.0,-4.0,-9.0,-12.0,-2.0,0.0,1650819804978353.0
-1.0,-3.0,-7.0,-5.0,-11.0,1.0,-2.0,-2.0,1650819804978353.0
-4.0,2.0,9.0,3.0,0.0,7.0,3.0,0.0,1650819804979819.0
3.0,-2.0,-5.0,4.0,14.0,8.0,2.0,0.0,1650819804979819.0
-2.0,-11.0,-7.0,-8.0,-5.0,-19.0,-7.0,-3.0,1650819805000749.0
-6.0,-10.0,5.0,3.0,-1.0,3.0,1.0,1.0,1650819805000749.0
-3.0,-5.0,-9.0,-3.0,0.0,12.0,2.0,2.0,1650819805001715.0
7.0,9.0,7.0,2.0,0.0,-1.0,2.0,-2.0,1650819805001715.0
-7.0,4.0,5.0,-3.0,-10.0,-10.0,-4.0,0.0,1650819805014704.0
7.0,2.0,-6.0,3.0,11.0,4.0,0.0,1.0,1650819805014704.0
1.0,-1.0,11.0,4.0,-5.0,-1.0,-2.0,-5.0,1650819805021688.0
5.0,2.0,-3.0,-1.0,8.0,13.0,3.0,2.0,1650819805021688.0
3.0,6.0,-1.0,1.0,1.0,-5.0,-2.0,0.0,1650819805037736.0
-3.0,3.0,3.0,-2.0,-11.0,-27.0,-2.0,8.0,1650819805037736.0
-3.0,-3.0,-6.0,-3.0,-1.0,13.0,1.0,-6.0,1650819805039761.0
-6.0,-12.0,-8.0,-5.0,-2.0,-3.0,-2.0,-2.0,1650819805039761.0
-1.0,10.0,6.0,1.0,4.0,13.0,-1.0,-5.0,1650819805060934.0
-2.0,-6.0,-3.0,-1.0,-8.0,-9.0,0.0,3.0,1650819805060934.0
-1.0,1.0,-2.0,-2.0,7.0,4.0,-4.0,-3.0,1650819805061857.0
4.0,9.0,6.0,5.0,1.0,3.0,5.0,8.0,1650819805061857.0
-7.0,7.0,3.0,0.0,1.0,-2.0,-1.0,-5.0,1650819805082937.0
-5.0,-13.0,-4.0,-3.0,6.0,4.0,-4.0,-7.0,1650819805082937.0
4.0,1.0,-7.0,-5.0,-4.0,-6.0,3.0,7.0,1650819805084891.0
-4.0,-12.0,7.0,7.0,-6.0,-7.0,-2.0,-2.0,1650819805084891.0
3.0,1.0,-8.0,-4.0,-3.0,-3.0,-1.0,3.0,1650819805097974.0
-2.0,-6.0,-9.0,-8.0,-5.0,10.0,-2.0,-3.0,1650819805097974.0
-6.0,1.0,2.0,3.0,-4.0,-12.0,-2.0,1.0,1650819805099971.0
4.0,10.0,4.0,4.0,3.0,7.0,5.0,2.0,1650819805099971.0
-3.0,-4.0,5.0,-1.0,0.0,6.0,2.0,1.0,1650819805120932.0
10.0,8.0,4.0,0.0,-2.0,-8.0,3.0,20.0,1650819805120932.0
-12.0,-6.0,-9.0,-8.0,0.0,1.0,-11.0,-32.0,1650819805121871.0
0.0,10.0,6.0,8.0,7.0,3.0,2.0,2.0,1650819805121871.0
16.0,-2.0,-2.0,3.0,-2.0,-4.0,0.0,2.0,1650819805135059.0
-35.0,-5.0,-9.0,-23.0,-9.0,-2.0,-5.0,1.0,1650819805135059.0
15.0,2.0,-5.0,1.0,-2.0,4.0,0.0,10.0,1650819805142058.0
-4.0,3.0,3.0,-3.0,-5.0,0.0,-3.0,-1.0,1650819805142058.0
-4.0,3.0,4.0,10.0,4.0,-2.0,-3.0,-11.0,1650819805158377.0
1.0,9.0,15.0,19.0,9.0,-2.0,-2.0,-5.0,1650819805158377.0
3.0,-7.0,-9.0,-8.0,-3.0,0.0,7.0,6.0,1650819805159836.0
2.0,-10.0,-14.0,-16.0,-8.0,-4.0,-8.0,-11.0,1650819805159836.0
9.0,3.0,-6.0,-10.0,-6.0,3.0,6.0,17.0,1650819805180905.0
-5.0,-26.0,-1.0,2.0,-4.0,-8.0,2.0,-2.0,1650819805180905.0
-22.0,12.0,11.0,6.0,-1.0,-5.0,-4.0,-5.0,1650819805181895.0
22.0,4.0,6.0,12.0,12.0,14.0,0.0,1.0,1650819805181895.0
-7.0,-6.0,0.0,-2.0,10.0,12.0,8.0,7.0,1650819805194927.0
7.0,11.0,-4.0,-6.0,-4.0,-13.0,-3.0,-15.0,1650819805194927.0
2.0,5.0,3.0,0.0,-11.0,-21.0,-2.0,4.0,1650819805201908.0
-18.0,-9.0,-5.0,-3.0,-9.0,8.0,-5.0,-5.0,1650819805201908.0
3.0,-9.0,-5.0,-8.0,7.0,21.0,2.0,0.0,1650819805217830.0
5.0,13.0,11.0,19.0,26.0,23.0,9.0,1.0,1650819805217830.0
12.0,9.0,18.0,34.0,15.0,0.0,0.0,6.0,1650819805219791.0
-10.0,-2.0,-22.0,-29.0,-13.0,-16.0,-4.0,-6.0,1650819805219791.0
-9.0,-34.0,-19.0,-40.0,-35.0,-24.0,-8.0,-6.0,1650819805240888.0
-8.0,-5.0,-4.0,5.0,-8.0,-5.0,-3.0,-7.0,1650819805240888.0
1.0,5.0,1.0,-6.0,-5.0,-3.0,-3.0,4.0,1650819805241839.0
6.0,26.0,29.0,31.0,13.0,5.0,-2.0,2.0,1650819805241839.0
14.0,0.0,-9.0,14.0,14.0,9.0,7.0,2.0,1650819805254983.0
-14.0,-3.0,-20.0,-34.0,-16.0,-4.0,1.0,-4.0,1650819805254983.0
-41.0,-85.0,-20.0,-4.0,-4.0,-3.0,-5.0,-6.0,1650819805261966.0
-4.0,-5.0,-7.0,-6.0,-2.0,1.0,3.0,-2.0,1650819805261966.0
1.0,20.0,-6.0,-15.0,-3.0,-1.0,-4.0,-3.0,1650819805285889.0
16.0,16.0,4.0,11.0,-5.0,-8.0,-3.0,-2.0,1650819805285889.0
7.0,39.0,18.0,-9.0,0.0,4.0,-3.0,-6.0,1650819805286884.0
5.0,11.0,-13.0,3.0,-2.0,0.0,4.0,6.0,1650819805286884.0
-25.0,-21.0,15.0,14.0,2.0,-6.0,3.0,6.0,1650819805300041.0
-8.0,9.0,-14.0,-7.0,-2.0,-5.0,-13.0,-17.0,1650819805300041.0
14.0,28.0,-12.0,2.0,4.0,12.0,4.0,7.0,1650819805307043.0
-6.0,-7.0,-11.0,-5.0,-2.0,0.0,-3.0,-11.0,1650819805307043.0
43.0,-8.0,18.0,13.0,8.0,2.0,17.0,22.0,1650819805315138.0
-28.0,-2.0,6.0,-6.0,-4.0,-2.0,5.0,23.0,1650819805315138.0
-7.0,-26.0,-2.0,-5.0,2.0,2.0,8.0,9.0,1650819805322128.0
17.0,23.0,14.0,1.0,0.0,-2.0,-12.0,-14.0,1650819805322128.0
-19.0,12.0,-24.0,-11.0,-7.0,-6.0,-18.0,-34.0,1650819805338428.0
15.0,17.0,4.0,12.0,2.0,-6.0,-7.0,0.0,1650819805338428.0
21.0,-3.0,24.0,-8.0,-13.0,-12.0,3.0,16.0,1650819805339437.0
-21.0,-22.0,-32.0,-9.0,-1.0,9.0,17.0,9.0,1650819805339437.0
-9.0,-17.0,-1.0,14.0,21.0,25.0,14.0,17.0,1650819805360590.0
6.0,-7.0,9.0,-2.0,3.0,3.0,-7.0,-21.0,1650819805360590.0
3.0,8.0,-18.0,-11.0,-7.0,-14.0,-10.0,-9.0,1650819805362518.0
1.0,-4.0,5.0,-4.0,-10.0,-19.0,-5.0,9.0,1650819805362518.0
-5.0,1.0,-9.0,0.0,-4.0,11.0,-20.0,-42.0,1650819805374531.0
16.0,7.0,-5.0,1.0,14.0,24.0,24.0,38.0,1650819805374531.0
3.0,-28.0,-4.0,-6.0,2.0,-2.0,2.0,-6.0,1650819805382747.0
-7.0,-5.0,26.0,6.0,-11.0,-23.0,-6.0,2.0,1650819805382747.0
3.0,6.0,-1.0,-1.0,-11.0,-14.0,-10.0,-5.0,1650819805398378.0
9.0,4.0,8.0,11.0,6.0,13.0,4.0,-2.0,1650819805398378.0
-7.0,10.0,3.0,11.0,12.0,17.0,0.0,1.0,1650819805399833.0
2.0,-2.0,1.0,-3.0,2.0,-3.0,-1.0,1.0,1650819805399833.0
-2.0,11.0,7.0,2.0,-8.0,-17.0,-15.0,-23.0,1650819805420896.0
-8.0,-21.0,31.0,6.0,-2.0,4.0,-3.0,-9.0,1650819805420896.0
10.0,18.0,0.0,6.0,12.0,12.0,6.0,9.0,1650819805421865.0
-4.0,-15.0,3.0,0.0,0.0,1.0,-4.0,-17.0,1650819805421865.0
-8.0,-2.0,-6.0,-1.0,14.0,8.0,7.0,19.0,1650819805433899.0
3.0,1.0,-6.0,-6.0,-12.0,-9.0,0.0,-7.0,1650819805433899.0
6.0,11.0,-7.0,3.0,-4.0,-6.0,-3.0,-1.0,1650819805442856.0
0.0,8.0,11.0,-2.0,-5.0,-4.0,-3.0,7.0,1650819805442856.0
-8.0,10.0,17.0,-11.0,-14.0,-7.0,-6.0,-11.0,1650819805458402.0
18.0,-2.0,-30.0,-1.0,9.0,2.0,18.0,25.0,1650819805458402.0
-6.0,-3.0,7.0,-2.0,-4.0,11.0,10.0,-4.0,1650819805459821.0
0.0,-4.0,3.0,9.0,13.0,11.0,1.0,3.0,1650819805459821.0
-5.0,5.0,-5.0,-1.0,-6.0,-16.0,-6.0,3.0,1650819805479959.0
12.0,-7.0,2.0,-2.0,-3.0,-7.0,-12.0,-31.0,1650819805479959.0
-23.0,10.0,-14.0,-10.0,-14.0,-14.0,-29.0,-12.0,1650819805487788.0
2.0,-19.0,1.0,1.0,1.0,-3.0,2.0,-5.0,1650819805487788.0
9.0,7.0,4.0,8.0,10.0,26.0,7.0,4.0,1650819805493843.0
5.0,-3.0,-2.0,-4.0,17.0,22.0,12.0,31.0,1650819805493843.0
-12.0,-31.0,-11.0,1.0,4.0,-3.0,-6.0,-28.0,1650819805502777.0
-2.0,7.0,3.0,1.0,-6.0,-12.0,-2.0,17.0,1650819805502777.0
-7.0,-1.0,-1.0,-6.0,-17.0,-23.0,-6.0,1.0,1650819805517770.0
3.0,15.0,6.0,14.0,-5.0,-10.0,-3.0,-3.0,1650819805517770.0
5.0,8.0,4.0,-5.0,-4.0,1.0,1.0,3.0,1650819805519735.0
0.0,0.0,0.0,0.0,6.0,12.0,2.0,5.0,1650819805519735.0
-1.0,-31.0,14.0,9.0,5.0,4.0,24.0,30.0,1650819805540751.0
-8.0,5.0,3.0,-2.0,-4.0,-8.0,-5.0,-7.0,1650819805540751.0
-1.0,-6.0,-6.0,-9.0,-5.0,-9.0,-5.0,-5.0,1650819805541715.0
3.0,6.0,-6.0,-6.0,3.0,6.0,-22.0,-53.0,1650819805541715.0
-7.0,5.0,-18.0,-4.0,-9.0,-14.0,1.0,-5.0,1650819805553718.0
-2.0,-21.0,15.0,4.0,10.0,20.0,15.0,44.0,1650819805553718.0
6.0,-2.0,0.0,-6.0,3.0,16.0,19.0,21.0,1650819805563648.0
6.0,16.0,-11.0,1.0,2.0,4.0,3.0,-5.0,1650819805563648.0
4.0,16.0,-1.0,2.0,-3.0,-10.0,-4.0,2.0,1650819805577775.0
-15.0,-37.0,2.0,-2.0,-15.0,-23.0,-22.0,-34.0,1650819805577775.0
4.0,15.0,-4.0,3.0,-4.0,0.0,2.0,0.0,1650819805579731.0
2.0,1.0,4.0,0.0,4.0,11.0,6.0,16.0,1650819805579731.0
0.0,1.0,0.0,-7.0,-2.0,-8.0,-12.0,-13.0,1650819805600828.0
0.0,9.0,1.0,8.0,-3.0,-3.0,10.0,5.0,1650819805600828.0
-2.0,1.0,0.0,-9.0,-5.0,2.0,-8.0,-4.0,1650819805601788.0
-3.0,-13.0,-9.0,2.0,8.0,12.0,14.0,7.0,1650819805601788.0
5.0,10.0,-9.0,-9.0,-4.0,-7.0,-16.0,-35.0,1650819805613879.0
-6.0,4.0,-13.0,-4.0,-7.0,-8.0,2.0,29.0,1650819805613879.0
3.0,-11.0,7.0,1.0,-2.0,-7.0,-7.0,-30.0,1650819805622819.0
-8.0,2.0,-8.0,-7.0,-7.0,-7.0,4.0,38.0,1650819805622819.0
7.0,-2.0,12.0,7.0,7.0,4.0,14.0,6.0,1650819805637940.0
-1.0,12.0,-1.0,0.0,-9.0,0.0,-16.0,-36.0,1650819805637940.0
0.0,-11.0,-29.0,-6.0,9.0,9.0,-1.0,-5.0,1650819805639965.0
-2.0,-8.0,5.0,4.0,11.0,6.0,10.0,15.0,1650819805639965.0
4.0,6.0,18.0,18.0,13.0,20.0,2.0,11.0,1650819805660883.0
2.0,-3.0,-16.0,-20.0,-5.0,-6.0,2.0,-14.0,1650819805660883.0
-1.0,9.0,2.0,0.0,-13.0,-13.0,0.0,28.0,1650819805661855.0
0.0,4.0,7.0,1.0,-7.0,-8.0,-5.0,-21.0,1650819805661855.0
-1.0,-12.0,-11.0,2.0,2.0,6.0,0.0,4.0,1650819805673892.0
0.0,4.0,5.0,3.0,13.0,13.0,9.0,-2.0,1650819805673892.0
-2.0,5.0,-4.0,1.0,1.0,-4.0,4.0,0.0,1650819805688956.0
2.0,-17.0,4.0,4.0,-1.0,1.0,1.0,3.0,1650819805688956.0
-1.0,13.0,7.0,2.0,0.0,-1.0,-2.0,4.0,1650819805697986.0
-1.0,-1.0,10.0,1.0,-14.0,-24.0,-21.0,-30.0,1650819805697986.0
9.0,13.0,11.0,10.0,9.0,14.0,14.0,28.0,1650819805699945.0
-6.0,-4.0,-20.0,-3.0,8.0,16.0,7.0,-9.0,1650819805699945.0
-2.0,-13.0,3.0,1.0,8.0,13.0,6.0,8.0,1650819805721012.0
-1.0,-3.0,-15.0,-15.0,-11.0,-15.0,-16.0,-41.0,1650819805721012.0
-7.0,-16.0,5.0,6.0,-9.0,-21.0,8.0,45.0,1650819805722010.0
1.0,4.0,-16.0,-15.0,-12.0,-7.0,-8.0,-17.0,1650819805722010.0
0.0,3.0,3.0,6.0,12.0,22.0,16.0,12.0,1650819805734045.0
-4.0,7.0,11.0,10.0,11.0,5.0,0.0,-1.0,1650819805734045.0
13.0,-3.0,-22.0,-13.0,-11.0,-10.0,-7.0,-14.0,1650819805742821.0
-2.0,0.0,16.0,7.0,-9.0,-5.0,-8.0,-16.0,1650819805742821.0
-2.0,5.0,5.0,2.0,-2.0,-5.0,-3.0,-21.0,1650819805757931.0
-4.0,-4.0,-5.0,-1.0,2.0,6.0,2.0,45.0,1650819805757931.0
-3.0,-10.0,-2.0,-6.0,-1.0,6.0,-6.0,-42.0,1650819805759928.0
2.0,2.0,6.0,8.0,7.0,-6.0,-8.0,9.0,1650819805759928.0
0.0,6.0,-12.0,-18.0,-10.0,-5.0,16.0,28.0,1650819805780111.0
-3.0,-5.0,-10.0,-5.0,-7.0,1.0,7.0,8.0,1650819805780111.0
1.0,6.0,29.0,13.0,8.0,8.0,10.0,7.0,1650819805782048.0
-1.0,0.0,-9.0,-8.0,-9.0,-6.0,-4.0,-11.0,1650819805782048.0
-4.0,-9.0,10.0,5.0,-6.0,-11.0,-27.0,-35.0,1650819805803111.0
4.0,2.0,1.0,-3.0,5.0,2.0,27.0,51.0,1650819805803111.0
-2.0,1.0,-8.0,-1.0,7.0,15.0,3.0,-3.0,1650819805804122.0
8.0,10.0,9.0,1.0,7.0,7.0,23.0,30.0,1650819805804122.0
-6.0,-19.0,-12.0,-9.0,-12.0,-11.0,-3.0,8.0,1650819805818377.0
1.0,11.0,17.0,9.0,-4.0,-3.0,-9.0,-13.0,1650819805818377.0
-1.0,3.0,5.0,-4.0,-1.0,-6.0,-2.0,-4.0,1650819805819793.0
-1.0,1.0,-1.0,0.0,2.0,11.0,4.0,8.0,1650819805819793.0
-4.0,0.0,-7.0,6.0,8.0,13.0,2.0,-14.0,1650819805840982.0
4.0,4.0,5.0,4.0,4.0,2.0,-6.0,3.0,1650819805840982.0
1.0,-8.0,-6.0,-5.0,-5.0,-12.0,6.0,8.0,1650819805841982.0
-3.0,-6.0,-8.0,-11.0,-16.0,-16.0,-10.0,1.0,1650819805841982.0
3.0,12.0,17.0,9.0,11.0,18.0,14.0,19.0,1650819805863135.0
-7.0,-16.0,-34.0,-17.0,-9.0,-3.0,-23.0,-46.0,1650819805863135.0
2.0,0.0,10.0,4.0,1.0,1.0,6.0,9.0,1650819805864066.0
-2.0,1.0,3.0,0.0,-4.0,-5.0,-3.0,-16.0,1650819805864066.0
-2.0,-11.0,-1.0,2.0,-8.0,-10.0,9.0,20.0,1650819805878179.0
3.0,2.0,-12.0,-8.0,3.0,-1.0,-6.0,-9.0,1650819805878179.0
-3.0,1.0,1.0,2.0,-7.0,-5.0,-1.0,3.0,1650819805879179.0
3.0,-5.0,-7.0,-5.0,-1.0,-6.0,-7.0,-12.0,1650819805879179.0
-1.0,8.0,4.0,6.0,15.0,19.0,-16.0,-21.0,1650819805900932.0
-2.0,-1.0,6.0,-4.0,-4.0,5.0,-7.0,-30.0,1650819805900932.0
0.0,-9.0,-1.0,4.0,5.0,2.0,21.0,51.0,1650819805901873.0
1.0,5.0,-1.0,-5.0,-6.0,-6.0,4.0,-5.0,1650819805901873.0
-4.0,-4.0,-10.0,-4.0,-16.0,-35.0,-26.0,-29.0,1650819805923436.0
-5.0,3.0,21.0,7.0,3.0,5.0,26.0,29.0,1650819805923436.0
-1.0,8.0,-15.0,-9.0,1.0,14.0,-22.0,-49.0,1650819805924436.0
-2.0,3.0,2.0,2.0,8.0,13.0,3.0,1.0,1650819805924436.0
8.0,5.0,6.0,6.0,12.0,16.0,15.0,20.0,1650819805937761.0
3.0,-3.0,-7.0,3.0,0.0,-11.0,-11.0,-17.0,1650819805937761.0
1.0,7.0,20.0,4.0,-7.0,-8.0,-6.0,1.0,1650819805944552.0
-6.0,-6.0,-7.0,2.0,-2.0,-10.0,-4.0,9.0,1650819805944552.0
1.0,-5.0,-18.0,-5.0,-2.0,-3.0,3.0,-11.0,1650819805960906.0
1.0,-6.0,8.0,0.0,-3.0,2.0,5.0,25.0,1650819805960906.0
1.0,5.0,1.0,-1.0,-1.0,-9.0,10.0,11.0,1650819805961913.0
-5.0,-1.0,5.0,-1.0,2.0,12.0,-14.0,-25.0,1650819805961913.0
6.0,-1.0,8.0,15.0,19.0,21.0,11.0,17.0,1650819805983437.0
2.0,0.0,-13.0,-14.0,-8.0,-4.0,10.0,11.0,1650819805983437.0
-1.0,-5.0,-6.0,0.0,-3.0,-9.0,-30.0,-64.0,1650819805984438.0
-1.0,-8.0,-9.0,-1.0,-8.0,-7.0,10.0,56.0,1650819805984438.0
-8.0,1.0,21.0,-3.0,-8.0,-12.0,-5.0,-18.0,1650819805997761.0
2.0,-2.0,-9.0,-3.0,-1.0,0.0,0.0,6.0,1650819805997761.0
-3.0,0.0,-1.0,1.0,-5.0,-7.0,-15.0,-19.0,1650819806003812.0
-1.0,-3.0,2.0,6.0,3.0,3.0,-2.0,-20.0,1650819806003812.0
1.0,11.0,4.0,1.0,2.0,11.0,4.0,29.0,1650819806020959.0
-1.0,3.0,0.0,3.0,8.0,7.0,-2.0,-28.0,1650819806020959.0
-6.0,-11.0,2.0,2.0,-1.0,-6.0,5.0,37.0,1650819806021850.0
3.0,7.0,1.0,-6.0,2.0,6.0,1.0,-10.0,1650819806021850.0
1.0,1.0,7.0,0.0,-5.0,-12.0,-5.0,2.0,1650819806043907.0
-2.0,-1.0,-11.0,0.0,1.0,-1.0,-5.0,-8.0,1650819806043907.0
1.0,3.0,6.0,-3.0,2.0,0.0,-6.0,-28.0,1650819806044846.0
3.0,0.0,9.0,4.0,-8.0,0.0,7.0,40.0,1650819806044846.0
-3.0,1.0,-9.0,-7.0,1.0,-2.0,3.0,-6.0,1650819806056933.0
0.0,-10.0,-6.0,1.0,2.0,-8.0,0.0,-1.0,1650819806056933.0
2.0,4.0,-3.0,-2.0,-1.0,-4.0,6.0,11.0,1650819806064520.0
-2.0,-8.0,-1.0,2.0,-4.0,1.0,12.0,1.0,1650819806064520.0
-2.0,4.0,-6.0,-4.0,-7.0,-1.0,-22.0,-39.0,1650819806080978.0
3.0,9.0,2.0,0.0,7.0,10.0,9.0,24.0,1650819806080978.0
1.0,-14.0,-18.0,-5.0,3.0,2.0,6.0,17.0,1650819806081935.0
-7.0,1.0,15.0,0.0,-5.0,-9.0,-22.0,-43.0,1650819806081935.0
-1.0,-7.0,-19.0,-7.0,-5.0,-9.0,4.0,5.0,1650819806102834.0
-2.0,4.0,12.0,5.0,2.0,5.0,-6.0,-18.0,1650819806102834.0
2.0,7.0,8.0,-1.0,5.0,8.0,12.0,23.0,1650819806104861.0
-4.0,-14.0,-13.0,-12.0,-6.0,-8.0,-17.0,-28.0,1650819806104861.0
-2.0,-2.0,-26.0,-18.0,-15.0,-12.0,-6.0,-18.0,1650819806117859.0
-4.0,-3.0,7.0,7.0,-2.0,-6.0,-5.0,34.0,1650819806117859.0
2.0,-4.0,-2.0,-1.0,-5.0,7.0,13.0,-6.0,1650819806123912.0
3.0,3.0,1.0,0.0,1.0,5.0,0.0,-6.0,1650819806123912.0
-3.0,5.0,12.0,3.0,2.0,3.0,3.0,19.0,1650819806140942.0
6.0,-5.0,-8.0,4.0,5.0,5.0,-11.0,-21.0,1650819806140942.0
0.0,10.0,0.0,1.0,13.0,7.0,-1.0,7.0,1650819806141953.0
-3.0,-12.0,-25.0,-10.0,-5.0,-2.0,1.0,5.0,1650819806141953.0
5.0,8.0,23.0,7.0,-4.0,-18.0,22.0,60.0,1650819806163443.0
-2.0,-8.0,-7.0,-2.0,-14.0,-10.0,-6.0,-13.0,1650819806163443.0
-3.0,-2.0,1.0,6.0,-1.0,13.0,6.0,23.0,1650819806164452.0
6.0,8.0,-1.0,-2.0,12.0,14.0,7.0,-12.0,1650819806164452.0
-3.0,0.0,-7.0,3.0,3.0,7.0,-8.0,-5.0,1650819806177731.0
4.0,10.0,20.0,7.0,5.0,-2.0,16.0,20.0,1650819806177731.0
0.0,-7.0,-18.0,-13.0,-10.0,-11.0,-16.0,-28.0,1650819806184553.0
-7.0,3.0,-1.0,6.0,2.0,-6.0,3.0,9.0,1650819806184553.0
8.0,0.0,4.0,3.0,0.0,2.0,13.0,20.0,1650819806200932.0
0.0,2.0,-6.0,-2.0,0.0,4.0,-4.0,-13.0,1650819806200932.0
-1.0,9.0,31.0,16.0,9.0,10.0,3.0,10.0,1650819806201853.0
-3.0,13.0,-11.0,-9.0,-7.0,-10.0,-2.0,6.0,1650819806201853.0
-1.0,-14.0,-10.0,-8.0,-8.0,-4.0,-2.0,2.0,1650819806223377.0
-2.0,0.0,5.0,-3.0,-2.0,8.0,0.0,-16.0,1650819806223377.0
1.0,0.0,-13.0,-4.0,2.0,8.0,6.0,6.0,1650819806224998.0
0.0,4.0,10.0,2.0,-1.0,-7.0,-1.0,7.0,1650819806224998.0
-7.0,-2.0,5.0,2.0,4.0,-7.0,-22.0,-39.0,1650819806237762.0
1.0,0.0,16.0,10.0,2.0,7.0,1.0,-1.0,1650819806237762.0
-2.0,-12.0,-25.0,-5.0,-7.0,0.0,9.0,35.0,1650819806243858.0
4.0,-3.0,10.0,2.0,5.0,-2.0,11.0,14.0,1650819806243858.0
-1.0,-3.0,-8.0,-3.0,3.0,0.0,-6.0,-19.0,1650819806260035.0
-3.0,-6.0,-5.0,-9.0,-8.0,-7.0,-6.0,-8.0,1650819806260035.0
-3.0,-4.0,-1.0,1.0,-4.0,-7.0,-15.0,-23.0,1650819806267019.0
0.0,-7.0,-7.0,-2.0,-4.0,-1.0,-2.0,-5.0,1650819806267019.0
-1.0,-4.0,-5.0,-1.0,-5.0,0.0,10.0,25.0,1650819806282710.0
-2.0,-1.0,2.0,-3.0,8.0,3.0,2.0,4.0,1650819806282710.0
0.0,4.0,7.0,2.0,2.0,1.0,-4.0,-12.0,1650819806284639.0
2.0,3.0,1.0,5.0,-1.0,-1.0,3.0,7.0,1650819806284639.0
0.0,-2.0,0.0,-2.0,5.0,8.0,-2.0,-8.0,1650819806297087.0
-2.0,2.0,-5.0,-3.0,-5.0,-7.0,-2.0,6.0,1650819806297087.0
-2.0,-5.0,-2.0,1.0,-9.0,-10.0,-4.0,-10.0,1650819806305728.0
-1.0,2.0,7.0,2.0,4.0,10.0,1.0,-4.0,1650819806305728.0
0.0,2.0,-4.0,-4.0,-4.0,-1.0,0.0,0.0,1650819806327903.0
-3.0,-8.0,-9.0,-2.0,-7.0,-9.0,-1.0,5.0,1650819806327903.0
-1.0,0.0,5.0,1.0,3.0,-6.0,-7.0,-8.0,1650819806329831.0
0.0,-1.0,-2.0,-3.0,-5.0,3.0,0.0,0.0,1650819806329831.0
-1.0,2.0,3.0,2.0,-3.0,-7.0,-17.0,-2.0,1650819806343416.0
0.0,2.0,-4.0,0.0,-3.0,-2.0,0.0,1.0,1650819806343416.0
1.0,2.0,-1.0,-6.0,1.0,-1.0,10.0,-6.0,1650819806344428.0
0.0,-2.0,0.0,5.0,5.0,11.0,1.0,3.0,1650819806344428.0
0.0,-1.0,1.0,1.0,7.0,7.0,-2.0,-2.0,1650819806357090.0
2.0,-1.0,1.0,1.0,2.0,-2.0,9.0,2.0,1650819806357090.0
-1.0,-4.0,1.0,-2.0,-6.0,-1.0,-4.0,-2.0,1650819806366824.0
-2.0,0.0,0.0,-3.0,-2.0,-1.0,0.0,-2.0,1650819806366824.0
0.0,0.0,-3.0,-1.0,-1.0,-8.0,-3.0,-2.0,1650819806380935.0
0.0,-1.0,-2.0,1.0,-4.0,7.0,-2.0,2.0,1650819806380935.0
0.0,3.0,2.0,3.0,7.0,2.0,2.0,-3.0,1650819806381843.0
1.0,-1.0,1.0,0.0,1.0,-7.0,0.0,0.0,1650819806381843.0
-3.0,0.0,-1.0,-7.0,-11.0,-4.0,-2.0,-5.0,1650819806403377.0
-1.0,2.0,-2.0,-1.0,-5.0,-10.0,-1.0,2.0,1650819806403377.0
-3.0,-2.0,1.0,4.0,0.0,3.0,-1.0,-4.0,1650819806404381.0
0.0,-1.0,0.0,-6.0,0.0,-2.0,-3.0,-1.0,1650819806404381.0
0.0,-7.0,-4.0,-3.0,-7.0,1.0,4.0,1.0,1650819806416980.0
2.0,1.0,1.0,3.0,15.0,8.0,4.0,1.0,1650819806416980.0
0.0,-1.0,2.0,7.0,-1.0,3.0,-3.0,-1.0,1650819806425130.0
-1.0,-2.0,-3.0,-6.0,5.0,11.0,2.0,-2.0,1650819806425130.0
2.0,6.0,2.0,-6.0,-5.0,-9.0,1.0,2.0,1650819806439939.0
0.0,1.0,-1.0,5.0,0.0,8.0,3.0,-1.0,1650819806439939.0
1.0,-2.0,-4.0,-6.0,-1.0,-6.0,-6.0,-2.0,1650819806446965.0
-1.0,3.0,2.0,3.0,-12.0,-16.0,-1.0,0.0,1650819806446965.0
-2.0,-4.0,0.0,4.0,10.0,11.0,-1.0,1.0,1650819806470879.0
0.0,-2.0,-3.0,-6.0,6.0,11.0,4.0,0.0,1650819806470879.0
1.0,1.0,-1.0,-5.0,-6.0,-10.0,0.0,-1.0,1650819806471865.0
-2.0,0.0,0.0,1.0,-10.0,-17.0,-6.0,-2.0,1650819806471865.0
-1.0,0.0,-2.0,2.0,-7.0,-11.0,-2.0,-1.0,1650819806476871.0
-1.0,0.0,-2.0,1.0,2.0,6.0,-4.0,0.0,1650819806476871.0
-2.0,-4.0,-1.0,0.0,14.0,29.0,5.0,0.0,1650819806485826.0
1.0,1.0,-1.0,-6.0,-4.0,-6.0,1.0,0.0,1650819806485826.0
0.0,-5.0,-7.0,-6.0,-10.0,-14.0,-1.0,-2.0,1650819806500907.0
-1.0,0.0,-1.0,3.0,2.0,-4.0,0.0,2.0,1650819806500907.0
-2.0,-4.0,5.0,6.0,2.0,-9.0,-2.0,-1.0,1650819806501851.0
-1.0,0.0,-2.0,-2.0,-4.0,10.0,-1.0,-1.0,1650819806501851.0
-1.0,2.0,0.0,0.0,-1.0,3.0,1.0,1.0,1650819806522860.0
1.0,1.0,-1.0,-4.0,3.0,-4.0,-1.0,0.0,1650819806522860.0
1.0,4.0,2.0,-4.0,1.0,-3.0,-5.0,-2.0,1650819806524817.0
-1.0,-6.0,0.0,0.0,2.0,-8.0,-2.0,-2.0,1650819806524817.0
0.0,2.0,-1.0,0.0,-2.0,6.0,3.0,-2.0,1650819806536823.0
-1.0,2.0,5.0,-4.0,-14.0,-3.0,0.0,-1.0,1650819806536823.0
0.0,2.0,3.0,-1.0,7.0,0.0,2.0,-2.0,1650819806545898.0
1.0,2.0,4.0,6.0,5.0,4.0,0.0,2.0,1650819806545898.0
0.0,-1.0,-1.0,2.0,7.0,10.0,3.0,1.0,1650819806560940.0
-1.0,-3.0,-5.0,-7.0,-16.0,-24.0,-5.0,-2.0,1650819806560940.0
-2.0,-4.0,-7.0,-3.0,-15.0,-14.0,-3.0,0.0,1650819806561893.0
-1.0,2.0,4.0,7.0,13.0,19.0,2.0,-1.0,1650819806561893.0
1.0,-3.0,-3.0,0.0,10.0,21.0,2.0,0.0,1650819806583377.0
0.0,0.0,-1.0,-7.0,2.0,1.0,2.0,2.0,1650819806583377.0
0.0,5.0,1.0,-7.0,-12.0,-13.0,-4.0,0.0,1650819806584098.0
-1.0,-10.0,2.0,6.0,-6.0,-10.0,0.0,-3.0,1650819806584098.0
1.0,-1.0,2.0,1.0,5.0,0.0,0.0,0.0,1650819806597157.0
0.0,-2.0,-1.0,4.0,6.0,5.0,-3.0,-1.0,1650819806597157.0
-2.0,-1.0,-6.0,-6.0,-6.0,-8.0,-2.0,-1.0,1650819806605205.0
2.0,5.0,-1.0,-5.0,-3.0,5.0,0.0,0.0,1650819806605205.0
-2.0,-3.0,1.0,-1.0,-5.0,-1.0,0.0,-2.0,1650819806620330.0
1.0,1.0,-3.0,-1.0,2.0,-1.0,2.0,1.0,1650819806620330.0
0.0,1.0,3.0,2.0,7.0,1.0,0.0,-3.0,1650819806622282.0
1.0,4.0,4.0,3.0,3.0,-3.0,-5.0,0.0,1650819806622282.0
-1.0,0.0,2.0,3.0,2.0,11.0,4.0,2.0,1650819806643262.0
-2.0,-3.0,-4.0,-3.0,-4.0,2.0,0.0,-1.0,1650819806643262.0
0.0,-2.0,-3.0,-2.0,-7.0,-7.0,-7.0,-2.0,1650819806644199.0
-1.0,-1.0,-5.0,-2.0,-2.0,-6.0,3.0,-1.0,1650819806644199.0
-2.0,1.0,3.0,1.0,-7.0,-6.0,-2.0,-1.0,1650819806656354.0
0.0,-2.0,1.0,3.0,5.0,1.0,-1.0,0.0,1650819806656354.0
-3.0,-1.0,-1.0,-2.0,6.0,9.0,-1.0,-2.0,1650819806665878.0
2.0,-5.0,-10.0,-5.0,1.0,0.0,-1.0,-1.0,1650819806665878.0
0.0,-6.0,-9.0,-15.0,-6.0,-9.0,-11.0,-2.0,1650819806680874.0
-1.0,-4.0,-8.0,-7.0,-14.0,-8.0,-6.0,-5.0,1650819806680874.0
-2.0,2.0,8.0,16.0,1.0,5.0,18.0,3.0,1650819806681806.0
-4.0,1.0,3.0,1.0,4.0,-3.0,-4.0,0.0,1650819806681806.0
3.0,1.0,1.0,-1.0,8.0,3.0,2.0,1.0,1650819806702837.0
2.0,3.0,11.0,17.0,4.0,-1.0,-10.0,-2.0,1650819806702837.0
-2.0,-1.0,-12.0,-14.0,-1.0,2.0,-3.0,-1.0,1650819806704773.0
-3.0,-8.0,-17.0,-20.0,-11.0,2.0,1.0,-2.0,1650819806704773.0
-1.0,-5.0,-11.0,-6.0,-14.0,-10.0,-3.0,-3.0,1650819806716935.0
0.0,2.0,10.0,11.0,7.0,-2.0,0.0,1.0,1650819806716935.0
2.0,7.0,28.0,24.0,11.0,6.0,-7.0,-1.0,1650819806725850.0
0.0,2.0,-14.0,-10.0,2.0,7.0,11.0,3.0,1650819806725850.0
-6.0,-8.0,-9.0,-11.0,-3.0,-8.0,-2.0,-6.0,1650819806740426.0
0.0,-3.0,-14.0,-1.0,-6.0,-2.0,0.0,-1.0,1650819806740426.0
3.0,-4.0,-10.0,-16.0,-8.0,1.0,0.0,1.0,1650819806742381.0
-1.0,4.0,14.0,18.0,6.0,-7.0,-13.0,-1.0,1650819806742381.0
6.0,5.0,14.0,4.0,5.0,7.0,21.0,6.0,1650819806763453.0
1.0,3.0,4.0,-7.0,-5.0,5.0,6.0,0.0,1650819806763453.0
-1.0,-2.0,-7.0,-4.0,0.0,-1.0,-14.0,-2.0,1650819806764461.0
0.0,-11.0,-44.0,-37.0,-11.0,-22.0,15.0,-2.0,1650819806764461.0
-6.0,0.0,15.0,30.0,2.0,3.0,-3.0,0.0,1650819806785891.0
8.0,1.0,-6.0,-19.0,0.0,13.0,6.0,-3.0,1650819806785891.0
4.0,1.0,15.0,17.0,16.0,16.0,3.0,4.0,1650819806786867.0
1.0,3.0,13.0,6.0,6.0,4.0,-8.0,-3.0,1650819806786867.0
-4.0,-4.0,-9.0,-9.0,-4.0,-8.0,-8.0,-4.0,1650819806800916.0
-7.0,1.0,16.0,16.0,1.0,-8.0,7.0,4.0,1650819806800916.0
16.0,-4.0,-5.0,-18.0,-24.0,-16.0,-7.0,-7.0,1650819806801883.0
-4.0,-8.0,-41.0,-36.0,-16.0,-10.0,-9.0,-5.0,1650819806801883.0
0.0,-5.0,-21.0,-7.0,3.0,2.0,0.0,0.0,1650819806823101.0
-7.0,-4.0,-4.0,-3.0,3.0,5.0,-6.0,0.0,1650819806823101.0
-3.0,6.0,9.0,17.0,26.0,14.0,3.0,3.0,1650819806824101.0
10.0,6.0,35.0,16.0,7.0,14.0,17.0,7.0,1650819806824101.0
-1.0,1.0,9.0,11.0,-11.0,-10.0,-4.0,-3.0,1650819806845138.0
1.0,-6.0,-3.0,0.0,-10.0,-11.0,-7.0,-2.0,1650819806845138.0
-7.0,-5.0,-15.0,-15.0,-7.0,-6.0,0.0,0.0,1650819806847071.0
-1.0,1.0,20.0,16.0,-1.0,1.0,-4.0,0.0,1650819806847071.0
-3.0,4.0,-3.0,-6.0,7.0,3.0,-4.0,0.0,1650819806860184.0
1.0,4.0,6.0,-1.0,-2.0,-11.0,1.0,0.0,1650819806860184.0
-3.0,-5.0,-8.0,-8.0,-8.0,-13.0,0.0,-3.0,1650819806862114.0
-7.0,-6.0,-16.0,-2.0,-5.0,13.0,-6.0,-2.0,1650819806862114.0
5.0,6.0,33.0,29.0,14.0,22.0,10.0,4.0,1650819806883429.0
-5.0,-5.0,-21.0,-5.0,6.0,3.0,0.0,-1.0,1650819806883429.0
