EMG_s0,EMG_s1,EMG_s2,EMG_s3,EMG_s4,EMG_s5,EMG_s6,EMG_s7,timestamp
3.0,-5.0,-9.0,-22.0,-25.0,-28.0,-6.0,-1.0,1650820174417561.0
-3.0,0.0,4.0,1.0,-5.0,-5.0,-4.0,-5.0,1650820174417561.0
-2.0,5.0,6.0,16.0,9.0,12.0,-1.0,0.0,1650820174418548.0
4.0,1.0,3.0,0.0,0.0,8.0,1.0,0.0,1650820174418548.0
3.0,1.0,0.0,-3.0,8.0,9.0,3.0,2.0,1650820174419567.0
-4.0,1.0,-6.0,-4.0,-3.0,-14.0,-2.0,1.0,1650820174419567.0
2.0,0.0,2.0,-1.0,-9.0,-5.0,-2.0,0.0,1650820174420543.0
-3.0,-1.0,1.0,3.0,0.0,2.0,-3.0,-3.0,1650820174420543.0
0.0,-1.0,-3.0,-2.0,1.0,0.0,-2.0,0.0,1650820174435510.0
4.0,-3.0,-1.0,-4.0,-2.0,2.0,-1.0,1.0,1650820174435510.0
-2.0,-2.0,-5.0,-4.0,-1.0,-6.0,-1.0,-1.0,1650820174443546.0
-1.0,-1.0,-4.0,-6.0,-9.0,-14.0,-5.0,-1.0,1650820174443546.0
1.0,-1.0,0.0,0.0,-3.0,2.0,-3.0,-1.0,1650820174449492.0
-1.0,2.0,6.0,10.0,7.0,18.0,4.0,2.0,1650820174449492.0
2.0,1.0,-2.0,2.0,7.0,8.0,3.0,3.0,1650820174457458.0
2.0,0.0,2.0,-6.0,1.0,-1.0,2.0,1.0,1650820174457458.0
-1.0,1.0,2.0,3.0,4.0,2.0,1.0,-1.0,1650820174473178.0
-2.0,1.0,1.0,1.0,-3.0,-7.0,-4.0,-1.0,1650820174473178.0
0.0,-4.0,-6.0,-9.0,-13.0,-8.0,-2.0,-1.0,1650820174487262.0
-1.0,1.0,1.0,1.0,-4.0,-1.0,1.0,1.0,1650820174487262.0
-1.0,-3.0,1.0,-2.0,-15.0,-22.0,-5.0,-2.0,1650820174527534.0
-2.0,0.0,0.0,-2.0,-8.0,-5.0,0.0,1.0,1650820174527534.0
-1.0,-1.0,0.0,4.0,3.0,15.0,2.0,0.0,1650820174528517.0
-1.0,-1.0,-3.0,-4.0,9.0,10.0,3.0,-1.0,1650820174528517.0
0.0,-2.0,0.0,2.0,1.0,1.0,2.0,2.0,1650820174531514.0
-1.0,-1.0,-3.0,-4.0,-5.0,-10.0,-4.0,-3.0,1650820174531514.0
-1.0,-2.0,-6.0,-7.0,-10.0,-17.0,-6.0,-4.0,1650820174532542.0
2.0,-2.0,0.0,3.0,-2.0,-10.0,0.0,0.0,1650820174532542.0
-1.0,0.0,-1.0,0.0,8.0,20.0,3.0,-1.0,1650820174538490.0
0.0,-2.0,2.0,2.0,-2.0,0.0,0.0,-1.0,1650820174538490.0
0.0,0.0,0.0,-5.0,-4.0,-4.0,-3.0,0.0,1650820174547475.0
-1.0,0.0,0.0,0.0,-5.0,-1.0,-2.0,-1.0,1650820174547475.0
1.0,1.0,-1.0,1.0,4.0,0.0,2.0,2.0,1650820174553452.0
0.0,-1.0,0.0,1.0,6.0,5.0,2.0,1.0,1650820174553452.0
-1.0,-2.0,-4.0,-3.0,1.0,-1.0,-1.0,-1.0,1650820174568564.0
-1.0,-1.0,-2.0,-3.0,-16.0,-16.0,-6.0,-2.0,1650820174568564.0
-3.0,0.0,3.0,-2.0,-1.0,0.0,-1.0,-2.0,1650820174576612.0
0.0,-1.0,-2.0,-3.0,4.0,9.0,2.0,2.0,1650820174576612.0
0.0,0.0,1.0,2.0,3.0,6.0,4.0,-1.0,1650820174599816.0
-2.0,0.0,5.0,6.0,5.0,9.0,-1.0,0.0,1650820174599816.0
0.0,0.0,-2.0,-4.0,-7.0,-9.0,-3.0,-1.0,1650820174599816.0
0.0,1.0,0.0,-3.0,-1.0,-3.0,-3.0,-2.0,1650820174599816.0
-2.0,2.0,4.0,4.0,0.0,6.0,1.0,1.0,1650820174614744.0
-2.0,-3.0,-4.0,1.0,-1.0,1.0,0.0,-3.0,1650820174614744.0
1.0,1.0,0.0,-1.0,0.0,0.0,0.0,0.0,1650820174614744.0
0.0,-1.0,-2.0,-2.0,-3.0,-13.0,-3.0,-1.0,1650820174614744.0
0.0,1.0,-4.0,-6.0,-4.0,-2.0,-1.0,-1.0,1650820174637433.0
-2.0,3.0,2.0,1.0,3.0,9.0,-2.0,-3.0,1650820174637433.0
-1.0,-3.0,0.0,2.0,2.0,7.0,3.0,1.0,1650820174637999.0
0.0,0.0,-1.0,-3.0,-3.0,-4.0,1.0,0.0,1650820174637999.0
0.0,-1.0,4.0,3.0,-7.0,-6.0,-2.0,0.0,1650820174659913.0
2.0,1.0,-2.0,-4.0,4.0,-2.0,-1.0,-1.0,1650820174659913.0
-3.0,-2.0,-2.0,-4.0,2.0,4.0,-2.0,-1.0,1650820174659913.0
-1.0,-2.0,0.0,2.0,-1.0,0.0,0.0,-2.0,1650820174659913.0
0.0,-1.0,-1.0,-3.0,-3.0,-5.0,-1.0,-1.0,1650820174674870.0
-1.0,-1.0,1.0,0.0,-9.0,-6.0,-2.0,-1.0,1650820174674870.0
1.0,1.0,-1.0,0.0,0.0,-1.0,0.0,0.0,1650820174674870.0
0.0,-1.0,0.0,3.0,5.0,10.0,4.0,2.0,1650820174674870.0
0.0,1.0,1.0,1.0,10.0,5.0,2.0,1.0,1650820174697055.0
2.0,0.0,3.0,-1.0,-1.0,-6.0,0.0,1.0,1650820174697055.0
-2.0,-1.0,-1.0,-3.0,-9.0,-3.0,-4.0,-2.0,1650820174698014.0
-1.0,0.0,-1.0,-1.0,-3.0,-9.0,-4.0,-4.0,1650820174698014.0
-1.0,-2.0,0.0,1.0,6.0,11.0,1.0,1.0,1650820174719919.0
2.0,-1.0,-2.0,-2.0,4.0,8.0,4.0,2.0,1650820174719919.0
-1.0,0.0,6.0,2.0,-6.0,-3.0,-2.0,1.0,1650820174719919.0
2.0,0.0,-3.0,2.0,-2.0,-10.0,-2.0,0.0,1650820174719919.0
0.0,-1.0,0.0,-2.0,-1.0,-6.0,-2.0,-2.0,1650820174734914.0
-2.0,0.0,-1.0,-4.0,-4.0,-7.0,0.0,-1.0,1650820174734914.0
0.0,-3.0,-3.0,-2.0,3.0,5.0,1.0,0.0,1650820174734914.0
-2.0,2.0,6.0,4.0,3.0,14.0,2.0,0.0,1650820174734914.0
1.0,-4.0,0.0,0.0,0.0,0.0,2.0,0.0,1650820174757432.0
-1.0,0.0,0.0,0.0,2.0,3.0,2.0,0.0,1650820174757432.0
0.0,0.0,-2.0,-1.0,1.0,-8.0,0.0,0.0,1650820174757936.0
0.0,2.0,1.0,1.0,-1.0,2.0,-1.0,-1.0,1650820174757936.0
-1.0,0.0,0.0,0.0,-2.0,-7.0,-3.0,0.0,1650820174779909.0
-1.0,-3.0,-6.0,-5.0,-5.0,-2.0,0.0,-1.0,1650820174779909.0
0.0,0.0,1.0,-1.0,-8.0,-7.0,-4.0,-1.0,1650820174779909.0
0.0,-2.0,1.0,4.0,1.0,3.0,1.0,2.0,1650820174779909.0
-1.0,1.0,0.0,3.0,5.0,4.0,0.0,-1.0,1650820174794115.0
0.0,-1.0,-2.0,-1.0,-1.0,-4.0,-2.0,0.0,1650820174794115.0
1.0,0.0,-4.0,-4.0,-9.0,-11.0,-2.0,-1.0,1650820174795048.0
-1.0,-2.0,-1.0,-6.0,-7.0,11.0,1.0,-2.0,1650820174795048.0
-1.0,-1.0,0.0,2.0,4.0,9.0,2.0,1.0,1650820174817357.0
1.0,1.0,0.0,1.0,10.0,9.0,4.0,2.0,1650820174817357.0
1.0,2.0,1.0,4.0,6.0,0.0,2.0,-1.0,1650820174818082.0
-1.0,1.0,-1.0,-4.0,-10.0,-22.0,-6.0,-2.0,1650820174818082.0
-2.0,-1.0,-2.0,-1.0,-11.0,-1.0,-2.0,-1.0,1650820174840176.0
-2.0,-1.0,4.0,6.0,10.0,13.0,2.0,0.0,1650820174840176.0
0.0,0.0,-2.0,0.0,0.0,1.0,2.0,1.0,1650820174840176.0
0.0,-2.0,-4.0,-5.0,-4.0,-7.0,-2.0,-1.0,1650820174840176.0
0.0,-1.0,-3.0,-6.0,-9.0,-9.0,-5.0,-1.0,1650820174854211.0
-2.0,-1.0,1.0,1.0,-8.0,-8.0,-4.0,-2.0,1650820174854211.0
-1.0,-2.0,-2.0,-7.0,-5.0,-11.0,-4.0,-2.0,1650820174861853.0
-2.0,2.0,4.0,7.0,10.0,15.0,4.0,-1.0,1650820174861853.0
1.0,1.0,1.0,5.0,13.0,17.0,5.0,0.0,1650820174876908.0
0.0,-1.0,-2.0,-1.0,-1.0,14.0,2.0,2.0,1650820174876908.0
0.0,-1.0,-4.0,-5.0,2.0,0.0,-1.0,1.0,1650820174877907.0
0.0,0.0,2.0,0.0,-6.0,-10.0,-2.0,0.0,1650820174877907.0
-3.0,0.0,0.0,-1.0,-4.0,-16.0,-2.0,-1.0,1650820174899183.0
0.0,0.0,-1.0,-2.0,-4.0,-10.0,-4.0,-2.0,1650820174899183.0
-2.0,-1.0,-5.0,-3.0,-4.0,2.0,-1.0,-2.0,1650820174900165.0
-2.0,-2.0,-4.0,-5.0,-4.0,-5.0,-2.0,0.0,1650820174900165.0
-3.0,-1.0,-1.0,0.0,-5.0,-7.0,-2.0,-1.0,1650820174914192.0
-1.0,0.0,3.0,4.0,6.0,7.0,0.0,0.0,1650820174914192.0
0.0,1.0,2.0,2.0,10.0,15.0,4.0,0.0,1650820174922170.0
0.0,0.0,0.0,-2.0,7.0,6.0,2.0,1.0,1650820174922170.0
1.0,-3.0,-2.0,1.0,-2.0,-5.0,1.0,0.0,1650820174944936.0
-1.0,-3.0,-4.0,-7.0,-13.0,-12.0,-3.0,-1.0,1650820174944936.0
0.0,-1.0,-1.0,-1.0,-2.0,-3.0,-2.0,-1.0,1650820174945937.0
-1.0,-3.0,3.0,5.0,-5.0,-2.0,-3.0,-1.0,1650820174945937.0
1.0,1.0,-4.0,-10.0,0.0,1.0,0.0,0.0,1650820174959860.0
1.0,2.0,6.0,8.0,7.0,3.0,2.0,-1.0,1650820174959860.0
1.0,0.0,-1.0,3.0,8.0,8.0,2.0,0.0,1650820174959860.0
1.0,-1.0,-2.0,-2.0,-1.0,-2.0,0.0,0.0,1650820174959860.0
-1.0,-1.0,-1.0,-5.0,-8.0,-10.0,-6.0,-2.0,1650820174973898.0
1.0,-1.0,-5.0,-6.0,-13.0,-12.0,-4.0,-2.0,1650820174973898.0
-3.0,-3.0,0.0,1.0,-5.0,-17.0,-5.0,-2.0,1650820174982905.0
-1.0,0.0,2.0,5.0,10.0,25.0,4.0,1.0,1650820174982905.0
1.0,0.0,4.0,6.0,12.0,20.0,5.0,2.0,1650820174996904.0
0.0,-1.0,-1.0,-3.0,2.0,1.0,2.0,1.0,1650820174996904.0
0.0,0.0,0.0,-2.0,-8.0,-10.0,-2.0,-1.0,1650820174997837.0
-2.0,-1.0,-6.0,-7.0,-6.0,-15.0,-3.0,-4.0,1650820174997837.0
-1.0,0.0,3.0,5.0,0.0,-4.0,-1.0,0.0,1650820175019939.0
-1.0,0.0,0.0,0.0,2.0,3.0,0.0,0.0,1650820175019939.0
0.0,-2.0,-2.0,0.0,0.0,3.0,-2.0,-1.0,1650820175019939.0
-3.0,-2.0,-4.0,-3.0,-6.0,-6.0,-1.0,0.0,1650820175019939.0
-1.0,0.0,-1.0,1.0,-7.0,-3.0,-2.0,0.0,1650820175033940.0
-1.0,-1.0,-7.0,-9.0,3.0,-5.0,0.0,-1.0,1650820175033940.0
-3.0,-1.0,6.0,8.0,5.0,16.0,1.0,0.0,1650820175041918.0
1.0,1.0,1.0,2.0,8.0,6.0,3.0,-1.0,1650820175041918.0
1.0,1.0,1.0,0.0,-3.0,-3.0,1.0,1.0,1650820175057407.0
-1.0,-1.0,-1.0,0.0,-6.0,-3.0,-2.0,1.0,1650820175057407.0
0.0,1.0,-2.0,-1.0,5.0,2.0,1.0,-1.0,1650820175057893.0
-1.0,-1.0,-3.0,-3.0,-2.0,-3.0,-2.0,-2.0,1650820175057893.0
-1.0,1.0,-3.0,-6.0,-6.0,-19.0,-7.0,-3.0,1650820175079094.0
-1.0,-2.0,6.0,6.0,-10.0,-3.0,-3.0,-1.0,1650820175079094.0
-1.0,-1.0,-1.0,0.0,2.0,3.0,0.0,2.0,1650820175080028.0
1.0,0.0,1.0,5.0,14.0,20.0,7.0,3.0,1650820175080028.0
-1.0,0.0,-2.0,-3.0,9.0,9.0,4.0,2.0,1650820175103162.0
-1.0,-1.0,0.0,-2.0,1.0,-2.0,1.0,-2.0,1650820175103162.0
-1.0,0.0,-1.0,-2.0,-10.0,-13.0,-2.0,0.0,1650820175103162.0
-1.0,-2.0,-2.0,-4.0,-13.0,-15.0,-6.0,-2.0,1650820175103162.0
-3.0,0.0,-4.0,-4.0,-6.0,-6.0,-3.0,-3.0,1650820175117773.0
1.0,0.0,-3.0,1.0,10.0,10.0,1.0,0.0,1650820175117773.0
-1.0,-1.0,2.0,5.0,7.0,9.0,2.0,0.0,1650820175117773.0
2.0,-1.0,-4.0,-5.0,-4.0,-6.0,0.0,0.0,1650820175117773.0
-1.0,0.0,0.0,-6.0,-1.0,0.0,0.0,0.0,1650820175139988.0
-2.0,1.0,3.0,7.0,-5.0,-6.0,-3.0,-1.0,1650820175139988.0
-2.0,-2.0,3.0,-1.0,-5.0,-5.0,-3.0,-3.0,1650820175139988.0
-2.0,0.0,0.0,-2.0,-6.0,-11.0,-3.0,0.0,1650820175139988.0
0.0,1.0,1.0,1.0,1.0,7.0,1.0,-1.0,1650820175153982.0
-1.0,0.0,-4.0,-2.0,14.0,17.0,4.0,1.0,1650820175153982.0
1.0,0.0,-1.0,0.0,8.0,12.0,5.0,2.0,1650820175161993.0
-3.0,-1.0,-1.0,-5.0,-7.0,-7.0,-4.0,-1.0,1650820175161993.0
0.0,-3.0,2.0,4.0,-11.0,-23.0,-6.0,-2.0,1650820175176952.0
-1.0,1.0,0.0,-1.0,0.0,4.0,-2.0,-2.0,1650820175176952.0
2.0,-1.0,-3.0,0.0,11.0,15.0,3.0,0.0,1650820175177884.0
0.0,-2.0,-1.0,0.0,0.0,2.0,2.0,-1.0,1650820175177884.0
-1.0,1.0,3.0,3.0,-5.0,-7.0,-2.0,0.0,1650820175199873.0
-2.0,-4.0,-2.0,-3.0,-8.0,-16.0,-4.0,-2.0,1650820175199873.0
-2.0,-2.0,0.0,-3.0,-7.0,-5.0,-5.0,-3.0,1650820175199873.0
0.0,-1.0,-2.0,-1.0,-2.0,4.0,0.0,-1.0,1650820175199873.0
-2.0,-4.0,-2.0,1.0,8.0,9.0,3.0,0.0,1650820175213833.0
1.0,2.0,3.0,4.0,4.0,1.0,0.0,1.0,1650820175213833.0
-1.0,-1.0,0.0,-3.0,-5.0,-5.0,-1.0,0.0,1650820175221883.0
-2.0,0.0,0.0,-1.0,-1.0,-4.0,-2.0,-2.0,1650820175221883.0
0.0,-3.0,-6.0,-5.0,-4.0,1.0,-1.0,-2.0,1650820175236938.0
0.0,0.0,4.0,2.0,-1.0,-6.0,-3.0,1.0,1650820175236938.0
1.0,1.0,-2.0,1.0,2.0,3.0,0.0,0.0,1650820175237939.0
1.0,1.0,-2.0,-2.0,1.0,9.0,2.0,-1.0,1650820175237939.0
0.0,-2.0,0.0,3.0,2.0,2.0,2.0,0.0,1650820175258989.0
-1.0,0.0,-2.0,-1.0,-4.0,-1.0,2.0,-1.0,1650820175258989.0
-1.0,-1.0,0.0,1.0,5.0,1.0,-2.0,-1.0,1650820175274076.0
1.0,-3.0,2.0,2.0,4.0,-12.0,0.0,-1.0,1650820175274076.0
0.0,0.0,-1.0,1.0,2.0,11.0,1.0,0.0,1650820175283138.0
-1.0,0.0,-5.0,-6.0,-3.0,1.0,1.0,0.0,1650820175283138.0
-1.0,-2.0,3.0,1.0,-12.0,-14.0,-3.0,-1.0,1650820175283138.0
-1.0,1.0,-2.0,0.0,3.0,0.0,-3.0,0.0,1650820175283138.0
-1.0,-1.0,0.0,0.0,3.0,-2.0,-3.0,-2.0,1650820175297146.0
0.0,1.0,-1.0,-6.0,-6.0,-1.0,0.0,-1.0,1650820175297146.0
-2.0,-4.0,-5.0,-4.0,-5.0,1.0,1.0,-2.0,1650820175297734.0
-1.0,1.0,2.0,4.0,7.0,1.0,0.0,0.0,1650820175297734.0
0.0,0.0,2.0,1.0,2.0,-4.0,-2.0,-1.0,1650820175319982.0
0.0,-2.0,-3.0,-3.0,0.0,1.0,-2.0,0.0,1650820175319982.0
-2.0,0.0,1.0,-1.0,-2.0,-1.0,0.0,0.0,1650820175319982.0
-1.0,-1.0,1.0,1.0,-4.0,2.0,1.0,0.0,1650820175319982.0
-2.0,-2.0,0.0,1.0,1.0,5.0,1.0,2.0,1650820175343083.0
-1.0,0.0,0.0,-3.0,-2.0,-8.0,-3.0,-2.0,1650820175343083.0
0.0,0.0,-2.0,-2.0,-11.0,-18.0,-3.0,0.0,1650820175343083.0
1.0,0.0,0.0,1.0,2.0,8.0,-1.0,1.0,1650820175343083.0
0.0,3.0,-2.0,-2.0,15.0,21.0,7.0,1.0,1650820175357488.0
-1.0,-2.0,-4.0,2.0,6.0,4.0,2.0,1.0,1650820175357488.0
-1.0,-1.0,-3.0,-1.0,1.0,-4.0,0.0,0.0,1650820175357488.0
-1.0,0.0,-2.0,-3.0,-7.0,-8.0,-3.0,-1.0,1650820175357488.0
-1.0,-2.0,6.0,4.0,-13.0,-12.0,-3.0,-3.0,1650820175379992.0
1.0,-3.0,-3.0,-4.0,1.0,-2.0,-4.0,-3.0,1650820175379992.0
0.0,1.0,-1.0,-1.0,1.0,5.0,2.0,-1.0,1650820175379992.0
1.0,-1.0,-2.0,-1.0,-4.0,-6.0,-2.0,0.0,1650820175379992.0
1.0,-1.0,-2.0,-1.0,8.0,10.0,0.0,1.0,1650820175403185.0
-1.0,-2.0,0.0,-2.0,-3.0,-5.0,-3.0,0.0,1650820175403185.0
0.0,2.0,-2.0,0.0,-3.0,0.0,3.0,2.0,1650820175403185.0
-1.0,0.0,-1.0,-1.0,9.0,22.0,6.0,0.0,1650820175403185.0
0.0,0.0,-1.0,-2.0,-5.0,-2.0,0.0,-1.0,1650820175417334.0
-1.0,-1.0,5.0,8.0,-1.0,-7.0,-1.0,-1.0,1650820175417334.0
1.0,1.0,-1.0,0.0,10.0,6.0,-4.0,-2.0,1650820175417334.0
0.0,-1.0,0.0,-1.0,-5.0,-12.0,-3.0,-1.0,1650820175417334.0
0.0,0.0,-1.0,-2.0,-3.0,-1.0,1.0,-1.0,1650820175439629.0
-1.0,-1.0,-3.0,-4.0,-1.0,-1.0,2.0,0.0,1650820175439629.0
0.0,2.0,-1.0,-4.0,-9.0,-10.0,-5.0,-1.0,1650820175440588.0
-1.0,-2.0,1.0,1.0,-3.0,-2.0,-2.0,-1.0,1650820175440588.0
-1.0,2.0,-3.0,0.0,-1.0,-2.0,1.0,0.0,1650820175462724.0
1.0,1.0,-2.0,-2.0,3.0,0.0,0.0,0.0,1650820175462724.0
0.0,-1.0,3.0,1.0,2.0,3.0,2.0,1.0,1650820175463678.0
0.0,-1.0,-1.0,-3.0,6.0,13.0,0.0,-2.0,1650820175463678.0
1.0,0.0,0.0,-2.0,-9.0,-8.0,0.0,-2.0,1650820175477489.0
0.0,0.0,1.0,5.0,0.0,-3.0,0.0,0.0,1650820175477489.0
0.0,-2.0,3.0,1.0,5.0,0.0,-1.0,-1.0,1650820175477489.0
0.0,1.0,-1.0,1.0,2.0,6.0,4.0,0.0,1650820175477489.0
-1.0,-1.0,-1.0,-3.0,1.0,-1.0,-1.0,-1.0,1650820175498940.0
1.0,1.0,-2.0,-3.0,0.0,6.0,3.0,0.0,1650820175498940.0
0.0,-3.0,-6.0,-4.0,-8.0,-14.0,-6.0,-2.0,1650820175507432.0
-2.0,0.0,0.0,0.0,-4.0,2.0,0.0,0.0,1650820175507432.0
0.0,-3.0,1.0,2.0,-5.0,-5.0,-4.0,-2.0,1650820175522985.0
0.0,-1.0,-3.0,-5.0,-3.0,1.0,0.0,1.0,1650820175522985.0
-1.0,-3.0,3.0,6.0,4.0,5.0,3.0,-1.0,1650820175522985.0
0.0,3.0,1.0,3.0,5.0,0.0,2.0,1.0,1650820175522985.0
0.0,1.0,-5.0,-3.0,5.0,2.0,-1.0,1.0,1650820175545448.0
-1.0,-2.0,-1.0,-2.0,-9.0,-7.0,-5.0,-3.0,1650820175545448.0
-1.0,0.0,-3.0,-4.0,-3.0,1.0,-1.0,-1.0,1650820175546387.0
-1.0,-1.0,0.0,-1.0,-5.0,-3.0,-1.0,0.0,1650820175546387.0
1.0,-2.0,-3.0,-2.0,6.0,4.0,2.0,0.0,1650820175558351.0
-1.0,0.0,1.0,1.0,0.0,0.0,-1.0,-1.0,1650820175558351.0
-1.0,1.0,-2.0,-4.0,-9.0,-4.0,-1.0,-3.0,1650820175567350.0
-1.0,-2.0,0.0,0.0,-5.0,-18.0,-2.0,-3.0,1650820175567350.0
1.0,1.0,2.0,6.0,9.0,31.0,5.0,1.0,1650820175582346.0
0.0,0.0,1.0,0.0,12.0,15.0,4.0,-2.0,1650820175582346.0
0.0,1.0,-1.0,-1.0,-1.0,-7.0,0.0,1.0,1650820175583280.0
-2.0,0.0,4.0,3.0,-9.0,-17.0,-6.0,-1.0,1650820175583280.0
-1.0,-2.0,-5.0,-4.0,-2.0,-2.0,-2.0,-1.0,1650820175605248.0
-2.0,1.0,-1.0,2.0,4.0,7.0,2.0,1.0,1650820175605248.0
-2.0,-2.0,1.0,1.0,-2.0,0.0,-1.0,-2.0,1650820175606228.0
-1.0,-2.0,-3.0,-7.0,-10.0,-19.0,-5.0,-2.0,1650820175606228.0
0.0,0.0,2.0,0.0,-10.0,-17.0,-5.0,-2.0,1650820175619218.0
-1.0,-3.0,-4.0,-3.0,1.0,18.0,1.0,0.0,1650820175619218.0
0.0,2.0,6.0,10.0,16.0,18.0,8.0,2.0,1650820175627162.0
1.0,-3.0,-14.0,-8.0,3.0,1.0,1.0,0.0,1650820175627162.0
1.0,-2.0,1.0,-4.0,0.0,-8.0,0.0,0.0,1650820175643141.0
-3.0,0.0,-1.0,0.0,-8.0,-16.0,-5.0,-3.0,1650820175643141.0
-7.0,0.0,2.0,2.0,-6.0,-4.0,-4.0,-4.0,1650820175643141.0
6.0,-2.0,1.0,3.0,5.0,8.0,2.0,10.0,1650820175643141.0
6.0,2.0,-11.0,-10.0,-4.0,-5.0,-2.0,-6.0,1650820175673081.0
1.0,1.0,-9.0,-9.0,-4.0,-7.0,0.0,2.0,1650820175673081.0
-1.0,-6.0,-7.0,-2.0,3.0,3.0,-2.0,-1.0,1650820175673081.0
-1.0,-1.0,3.0,3.0,1.0,6.0,0.0,1.0,1650820175673081.0
0.0,1.0,11.0,6.0,-3.0,-19.0,-3.0,4.0,1650820175679023.0
2.0,3.0,19.0,15.0,1.0,2.0,2.0,0.0,1650820175679023.0
0.0,-3.0,-11.0,-12.0,2.0,19.0,3.0,2.0,1650820175687023.0
-4.0,-3.0,-22.0,-12.0,10.0,11.0,3.0,-3.0,1650820175687023.0
2.0,3.0,13.0,7.0,-1.0,-7.0,0.0,14.0,1650820175702990.0
-11.0,-8.0,-10.0,-3.0,-14.0,-23.0,-8.0,-27.0,1650820175702990.0
4.0,3.0,8.0,5.0,-16.0,-24.0,-5.0,-2.0,1650820175702990.0
-2.0,2.0,7.0,1.0,8.0,29.0,2.0,-4.0,1650820175702990.0
-1.0,-4.0,-7.0,-3.0,14.0,26.0,6.0,-4.0,1650820175724962.0
5.0,5.0,6.0,5.0,12.0,7.0,7.0,13.0,1650820175724962.0
-4.0,-4.0,-5.0,-5.0,-6.0,-14.0,-4.0,-4.0,1650820175725928.0
3.0,2.0,12.0,4.0,-6.0,-11.0,-2.0,-1.0,1650820175725928.0
0.0,7.0,-2.0,-8.0,-4.0,4.0,1.0,3.0,1650820175747899.0
4.0,-1.0,-6.0,-6.0,-4.0,-4.0,-5.0,10.0,1650820175747899.0
-3.0,-7.0,-22.0,-12.0,-9.0,-2.0,-3.0,-7.0,1650820175748867.0
2.0,-5.0,6.0,9.0,-2.0,-6.0,0.0,26.0,1650820175748867.0
-6.0,-3.0,37.0,20.0,7.0,5.0,-1.0,-28.0,1650820175762830.0
6.0,7.0,-16.0,-16.0,-6.0,0.0,4.0,29.0,1650820175762830.0
13.0,-30.0,-13.0,-6.0,10.0,5.0,-3.0,-49.0,1650820175762830.0
-27.0,-18.0,22.0,11.0,0.0,1.0,1.0,-2.0,1650820175762830.0
2.0,16.0,-9.0,-11.0,-9.0,-8.0,-3.0,3.0,1650820175784805.0
-8.0,-6.0,0.0,-1.0,-10.0,-4.0,-2.0,0.0,1650820175784805.0
6.0,17.0,45.0,23.0,5.0,-5.0,3.0,28.0,1650820175785768.0
10.0,-17.0,-65.0,-28.0,-1.0,8.0,-2.0,-8.0,1650820175785768.0
-6.0,-2.0,23.0,5.0,5.0,8.0,5.0,0.0,1650820175807417.0
-4.0,-5.0,-4.0,17.0,11.0,3.0,2.0,-3.0,1650820175807417.0
-1.0,18.0,12.0,12.0,9.0,11.0,5.0,21.0,1650820175808381.0
13.0,45.0,25.0,1.0,-5.0,-7.0,-2.0,-15.0,1650820175808381.0
1.0,-5.0,-36.0,-14.0,-13.0,-12.0,-1.0,7.0,1650820175822377.0
-3.0,-34.0,-20.0,-14.0,-3.0,-3.0,2.0,37.0,1650820175822377.0
-18.0,-6.0,20.0,21.0,0.0,-2.0,-7.0,-41.0,1650820175823341.0
6.0,-6.0,-24.0,-21.0,-12.0,-11.0,-6.0,-20.0,1650820175823341.0
4.0,-9.0,-21.0,-4.0,-7.0,-8.0,-7.0,-6.0,1650820175845317.0
-2.0,39.0,32.0,8.0,-1.0,-3.0,-3.0,0.0,1650820175845317.0
-1.0,-30.0,-22.0,-6.0,-6.0,-2.0,2.0,8.0,1650820175846280.0
-14.0,15.0,8.0,-13.0,5.0,21.0,8.0,-5.0,1650820175846280.0
7.0,14.0,32.0,48.0,20.0,11.0,7.0,27.0,1650820175867251.0
-38.0,-13.0,-34.0,-36.0,10.0,10.0,0.0,-3.0,1650820175867251.0
22.0,-2.0,-14.0,-31.0,-15.0,-11.0,-6.0,7.0,1650820175869219.0
-7.0,-9.0,25.0,34.0,-7.0,-26.0,-8.0,-33.0,1650820175869219.0
-3.0,-9.0,-29.0,-10.0,-12.0,-9.0,-6.0,-23.0,1650820175881220.0
7.0,23.0,73.0,40.0,17.0,24.0,9.0,7.0,1650820175881220.0
28.0,20.0,1.0,6.0,17.0,25.0,13.0,65.0,1650820175890163.0
-28.0,16.0,28.0,3.0,6.0,-7.0,-1.0,-3.0,1650820175890163.0
-15.0,-22.0,-93.0,-25.0,-16.0,-20.0,-7.0,-5.0,1650820175905156.0
-4.0,-44.0,-5.0,-14.0,-14.0,-11.0,-9.0,-37.0,1650820175905156.0
-5.0,27.0,20.0,-1.0,-1.0,-1.0,0.0,4.0,1650820175907137.0
17.0,-12.0,-42.0,-8.0,2.0,2.0,3.0,25.0,1650820175907137.0
-13.0,0.0,54.0,9.0,11.0,13.0,0.0,23.0,1650820175928083.0
11.0,-4.0,-44.0,-17.0,-8.0,-7.0,-2.0,-52.0,1650820175928083.0
-12.0,1.0,0.0,-23.0,-9.0,-1.0,0.0,-7.0,1650820175929058.0
23.0,7.0,-43.0,-4.0,-18.0,-25.0,-7.0,23.0,1650820175929058.0
6.0,43.0,91.0,58.0,24.0,36.0,10.0,-18.0,1650820175941026.0
6.0,-10.0,27.0,0.0,16.0,18.0,7.0,38.0,1650820175941026.0
-11.0,-10.0,21.0,19.0,26.0,16.0,8.0,-7.0,1650820175950010.0
1.0,-11.0,43.0,31.0,-8.0,-16.0,-8.0,-51.0,1650820175950010.0
37.0,-12.0,-80.0,-43.0,-17.0,-21.0,-7.0,16.0,1650820175964995.0
-37.0,-42.0,-47.0,-18.0,-13.0,-7.0,-1.0,16.0,1650820175964995.0
-2.0,19.0,-7.0,-44.0,-19.0,-1.0,-1.0,-21.0,1650820175966991.0
6.0,16.0,27.0,12.0,17.0,22.0,8.0,34.0,1650820175966991.0
-6.0,-29.0,-4.0,0.0,-1.0,-1.0,6.0,-13.0,1650820175987900.0
17.0,41.0,86.0,39.0,8.0,-6.0,-2.0,-9.0,1650820175987900.0
-27.0,-41.0,-111.0,-25.0,-14.0,-18.0,-8.0,31.0,1650820175988898.0
3.0,5.0,-6.0,-11.0,3.0,11.0,-3.0,-19.0,1650820175988898.0
-4.0,-9.0,10.0,1.0,-7.0,-3.0,3.0,8.0,1650820176002861.0
22.0,-17.0,-26.0,14.0,-11.0,-29.0,-3.0,0.0,1650820176002861.0
-22.0,63.0,117.0,61.0,26.0,34.0,8.0,18.0,1650820176010883.0
0.0,-22.0,37.0,32.0,33.0,34.0,15.0,-3.0,1650820176010883.0
-15.0,-53.0,-114.0,-109.0,-48.0,-24.0,-16.0,-42.0,1650820176025800.0
12.0,24.0,53.0,51.0,-1.0,-7.0,3.0,12.0,1650820176025800.0
21.0,16.0,54.0,20.0,-18.0,-26.0,-5.0,-33.0,1650820176026817.0
-60.0,-14.0,-24.0,14.0,14.0,4.0,11.0,108.0,1650820176026817.0
6.0,52.0,88.0,68.0,32.0,21.0,1.0,-57.0,1650820176047775.0
-22.0,-29.0,-121.0,-112.0,-34.0,-3.0,-8.0,-31.0,1650820176047775.0
17.0,4.0,28.0,30.0,-3.0,-5.0,-3.0,-2.0,1650820176049739.0
-27.0,2.0,-17.0,-28.0,-8.0,-11.0,-8.0,-19.0,1650820176049739.0
11.0,-30.0,-46.0,-5.0,-4.0,-10.0,3.0,37.0,1650820176061724.0
-57.0,-26.0,-61.0,7.0,-4.0,-4.0,-11.0,-55.0,1650820176061724.0
48.0,21.0,37.0,26.0,29.0,20.0,3.0,-4.0,1650820176070680.0
2.0,-33.0,-53.0,-48.0,-22.0,-12.0,-5.0,-8.0,1650820176070680.0
-44.0,12.0,61.0,25.0,8.0,8.0,6.0,8.0,1650820176084662.0
86.0,55.0,59.0,19.0,-6.0,-1.0,1.0,-34.0,1650820176084662.0
-78.0,-70.0,-117.0,-75.0,-19.0,-19.0,-18.0,-22.0,1650820176086637.0
19.0,10.0,51.0,34.0,13.0,-2.0,-3.0,-28.0,1650820176086637.0
-31.0,-37.0,-69.0,-23.0,-15.0,-25.0,-11.0,9.0,1650820176107650.0
33.0,23.0,73.0,28.0,13.0,22.0,14.0,25.0,1650820176107650.0
4.0,-4.0,-41.0,-28.0,-25.0,-11.0,-8.0,-32.0,1650820176109647.0
33.0,57.0,112.0,69.0,17.0,14.0,4.0,6.0,1650820176109647.0
11.0,24.0,12.0,-20.0,24.0,21.0,6.0,19.0,1650820176121611.0
-19.0,-22.0,-47.0,-31.0,-4.0,-10.0,-11.0,8.0,1650820176121611.0
16.0,-21.0,45.0,59.0,5.0,-4.0,6.0,-9.0,1650820176130564.0
10.0,-33.0,-84.0,-44.0,-17.0,-10.0,4.0,80.0,1650820176130564.0
100.0,22.0,34.0,-6.0,-17.0,-15.0,-3.0,62.0,1650820176145548.0
-10.0,31.0,65.0,5.0,-5.0,-8.0,-2.0,-13.0,1650820176145548.0
-7.0,8.0,-2.0,-8.0,14.0,25.0,7.0,4.0,1650820176146514.0
-24.0,-83.0,-53.0,-6.0,3.0,5.0,-2.0,-16.0,1650820176146514.0
-16.0,16.0,109.0,44.0,22.0,13.0,14.0,19.0,1650820176167457.0
15.0,9.0,-5.0,-13.0,-9.0,-7.0,-3.0,0.0,1650820176167457.0
-1.0,35.0,58.0,54.0,17.0,-1.0,8.0,31.0,1650820176169452.0
31.0,-6.0,-59.0,-69.0,-17.0,-9.0,-7.0,-43.0,1650820176169452.0
-63.0,-4.0,-21.0,-23.0,-20.0,-8.0,-5.0,-18.0,1650820176181419.0
7.0,5.0,-17.0,-15.0,-1.0,-3.0,-4.0,14.0,1650820176181419.0
-7.0,-11.0,26.0,15.0,7.0,0.0,4.0,31.0,1650820176190396.0
-31.0,24.0,80.0,51.0,1.0,3.0,-4.0,-53.0,1650820176190396.0
2.0,1.0,-62.0,-15.0,3.0,17.0,5.0,1.0,1650820176205355.0
-19.0,-63.0,-47.0,-5.0,-9.0,-8.0,-8.0,10.0,1650820176205355.0
22.0,-8.0,-16.0,-6.0,7.0,8.0,7.0,15.0,1650820176206376.0
4.0,24.0,67.0,21.0,-5.0,-14.0,-5.0,10.0,1650820176206376.0
21.0,29.0,103.0,32.0,6.0,-10.0,-4.0,2.0,1650820176228328.0
-15.0,-27.0,-77.0,3.0,3.0,12.0,2.0,-2.0,1650820176228328.0
-1.0,-16.0,-55.0,-72.0,-28.0,-15.0,-10.0,0.0,1650820176229326.0
-7.0,17.0,-11.0,-3.0,0.0,0.0,-1.0,-5.0,1650820176229326.0
-13.0,0.0,-9.0,16.0,5.0,-3.0,-3.0,-21.0,1650820176241286.0
4.0,15.0,26.0,16.0,15.0,2.0,2.0,10.0,1650820176241286.0
4.0,12.0,16.0,-10.0,-9.0,-8.0,-4.0,-5.0,1650820176250235.0
-24.0,-27.0,-55.0,-15.0,-16.0,-4.0,-9.0,-60.0,1650820176250235.0
-34.0,-42.0,-65.0,-35.0,-5.0,-11.0,-3.0,-5.0,1650820176265227.0
-4.0,23.0,35.0,26.0,8.0,4.0,5.0,46.0,1650820176265227.0
11.0,-6.0,-61.0,-58.0,-20.0,-4.0,-7.0,4.0,1650820176267191.0
-6.0,-14.0,12.0,17.0,-4.0,-2.0,2.0,11.0,1650820176267191.0
31.0,-4.0,64.0,44.0,24.0,10.0,9.0,38.0,1650820176287164.0
-6.0,29.0,58.0,8.0,-18.0,-18.0,-5.0,-37.0,1650820176287164.0
-30.0,-40.0,-82.0,-22.0,-2.0,2.0,-8.0,-14.0,1650820176289134.0
26.0,4.0,-11.0,-9.0,15.0,16.0,8.0,14.0,1650820176289134.0
12.0,12.0,33.0,54.0,10.0,3.0,6.0,8.0,1650820176301128.0
-27.0,8.0,-25.0,-60.0,-4.0,12.0,1.0,-31.0,1650820176301128.0
8.0,-8.0,-19.0,19.0,-4.0,-8.0,-5.0,11.0,1650820176310076.0
10.0,27.0,57.0,14.0,-1.0,-4.0,3.0,-5.0,1650820176310076.0
20.0,8.0,14.0,42.0,11.0,-2.0,-2.0,-4.0,1650820176325070.0
-49.0,-12.0,-26.0,-38.0,3.0,3.0,-1.0,30.0,1650820176325070.0
-31.0,-20.0,-86.0,-51.0,-20.0,-10.0,-12.0,-53.0,1650820176327031.0
13.0,17.0,42.0,20.0,-6.0,0.0,6.0,29.0,1650820176327031.0
-8.0,8.0,28.0,-4.0,-6.0,-13.0,-5.0,-6.0,1650820176347974.0
14.0,-15.0,4.0,26.0,18.0,21.0,8.0,7.0,1650820176347974.0
-5.0,28.0,56.0,50.0,27.0,12.0,6.0,29.0,1650820176348971.0
-11.0,-35.0,-38.0,-40.0,-21.0,-24.0,-13.0,-57.0,1650820176348971.0
-15.0,-19.0,-27.0,-51.0,-37.0,-35.0,-10.0,23.0,1650820176360939.0
-21.0,15.0,25.0,32.0,14.0,23.0,5.0,-52.0,1650820176360939.0
32.0,8.0,67.0,59.0,24.0,22.0,10.0,19.0,1650820176375935.0
13.0,14.0,-26.0,-26.0,15.0,11.0,4.0,32.0,1650820176375935.0
7.0,4.0,-16.0,-40.0,-15.0,-7.0,-6.0,-62.0,1650820176384902.0
11.0,-5.0,80.0,76.0,-3.0,-27.0,-12.0,-2.0,1650820176384902.0
-27.0,-16.0,-6.0,-20.0,-20.0,-16.0,0.0,18.0,1650820176386871.0
8.0,28.0,15.0,26.0,9.0,9.0,-1.0,12.0,1650820176386871.0
17.0,24.0,29.0,18.0,15.0,17.0,14.0,46.0,1650820176407849.0
4.0,13.0,-15.0,-17.0,-22.0,-14.0,-1.0,-7.0,1650820176407849.0
9.0,-1.0,0.0,-6.0,20.0,15.0,5.0,-18.0,1650820176408832.0
48.0,23.0,29.0,20.0,33.0,21.0,8.0,24.0,1650820176408832.0
-15.0,-9.0,-29.0,-3.0,-7.0,-17.0,-5.0,-5.0,1650820176421776.0
25.0,-25.0,4.0,5.0,-1.0,22.0,5.0,12.0,1650820176421776.0
-38.0,-3.0,-1.0,1.0,1.0,-1.0,2.0,-3.0,1650820176430759.0
-11.0,-13.0,-91.0,-62.0,-22.0,-18.0,-12.0,-23.0,1650820176430759.0
2.0,9.0,16.0,34.0,12.0,9.0,1.0,10.0,1650820176444749.0
-18.0,-10.0,-46.0,-82.0,-29.0,-35.0,-12.0,4.0,1650820176444749.0
57.0,-2.0,38.0,35.0,-8.0,-16.0,-3.0,43.0,1650820176451750.0
-10.0,52.0,59.0,24.0,22.0,29.0,7.0,4.0,1650820176451750.0
-27.0,-11.0,-5.0,8.0,-8.0,6.0,-1.0,-30.0,1650820176467681.0
6.0,-14.0,-57.0,-22.0,-1.0,-7.0,-1.0,24.0,1650820176467681.0
11.0,9.0,6.0,-18.0,-3.0,-4.0,5.0,17.0,1650820176469649.0
-6.0,5.0,42.0,38.0,11.0,-5.0,0.0,-6.0,1650820176469649.0
4.0,35.0,13.0,-22.0,18.0,34.0,13.0,20.0,1650820176481643.0
-2.0,-18.0,27.0,42.0,4.0,-3.0,-4.0,-1.0,1650820176481643.0
13.0,12.0,21.0,-11.0,-12.0,-9.0,-3.0,-5.0,1650820176490627.0
-34.0,6.0,2.0,-14.0,-24.0,-28.0,-10.0,1.0,1650820176490627.0
-23.0,-7.0,-34.0,-9.0,-9.0,-3.0,-13.0,-71.0,1650820176505555.0
18.0,29.0,44.0,15.0,21.0,19.0,5.0,23.0,1650820176505555.0
-11.0,-16.0,-29.0,13.0,-1.0,-4.0,-1.0,-37.0,1650820176507568.0
-11.0,-54.0,3.0,2.0,0.0,5.0,0.0,12.0,1650820176507568.0
1.0,-45.0,-88.0,-39.0,-12.0,6.0,-1.0,35.0,1650820176527528.0
8.0,3.0,4.0,-9.0,3.0,0.0,3.0,-5.0,1650820176527528.0
-1.0,12.0,13.0,7.0,-16.0,-16.0,-4.0,-28.0,1650820176529509.0
17.0,-2.0,3.0,-16.0,-3.0,-9.0,-5.0,10.0,1650820176529509.0
-3.0,3.0,-32.0,-36.0,-3.0,-4.0,-8.0,-6.0,1650820176541491.0
7.0,-24.0,13.0,50.0,14.0,12.0,7.0,6.0,1650820176541491.0
-17.0,14.0,6.0,-6.0,-6.0,6.0,7.0,14.0,1650820176550433.0
55.0,-4.0,-13.0,-3.0,-9.0,-3.0,5.0,53.0,1650820176550433.0
-42.0,23.0,48.0,28.0,25.0,11.0,0.0,-78.0,1650820176565393.0
23.0,34.0,-33.0,-30.0,-11.0,-7.0,-8.0,4.0,1650820176565393.0
-12.0,-6.0,-2.0,-31.0,-9.0,-13.0,-9.0,1.0,1650820176566391.0
3.0,4.0,12.0,24.0,-6.0,-3.0,0.0,10.0,1650820176566391.0
3.0,-60.0,-109.0,-70.0,-23.0,-12.0,-5.0,22.0,1650820176587371.0
0.0,-22.0,-60.0,-6.0,9.0,-10.0,-2.0,-2.0,1650820176587371.0
0.0,30.0,90.0,36.0,21.0,20.0,6.0,-3.0,1650820176589350.0
-14.0,-19.0,-58.0,-35.0,-33.0,-8.0,-7.0,-20.0,1650820176589350.0
-4.0,-2.0,14.0,4.0,10.0,11.0,3.0,3.0,1650820176601332.0
21.0,32.0,66.0,42.0,19.0,10.0,3.0,-7.0,1650820176601332.0
-8.0,-29.0,-78.0,-22.0,5.0,-4.0,-1.0,-9.0,1650820176610273.0
-11.0,4.0,-46.0,-41.0,-22.0,-21.0,-9.0,15.0,1650820176610273.0
8.0,22.0,75.0,40.0,5.0,6.0,6.0,-6.0,1650820176625267.0
15.0,-34.0,-56.0,-53.0,-18.0,-4.0,-10.0,-76.0,1650820176625267.0
9.0,5.0,32.0,7.0,21.0,20.0,2.0,14.0,1650820176626231.0
0.0,23.0,44.0,48.0,15.0,5.0,5.0,-1.0,1650820176626231.0
-11.0,1.0,15.0,15.0,-22.0,-38.0,-15.0,-42.0,1650820176647208.0
0.0,20.0,86.0,43.0,9.0,25.0,14.0,37.0,1650820176647208.0
-18.0,-49.0,-90.0,-88.0,-23.0,-6.0,-10.0,-20.0,1650820176655153.0
-17.0,-68.0,-59.0,-10.0,11.0,6.0,-4.0,-35.0,1650820176655153.0
22.0,27.0,13.0,-3.0,-8.0,-11.0,-1.0,24.0,1650820176661170.0
14.0,-15.0,-27.0,11.0,0.0,-12.0,-1.0,13.0,1650820176661170.0
-58.0,32.0,24.0,23.0,18.0,18.0,2.0,-59.0,1650820176670113.0
15.0,46.0,60.0,-19.0,-19.0,-9.0,-6.0,6.0,1650820176670113.0
19.0,17.0,64.0,53.0,19.0,6.0,0.0,5.0,1650820176685106.0
-29.0,-53.0,-75.0,-41.0,-11.0,0.0,2.0,10.0,1650820176685106.0
24.0,7.0,19.0,45.0,18.0,17.0,10.0,35.0,1650820176687101.0
-9.0,-32.0,-53.0,-29.0,-5.0,1.0,4.0,-2.0,1650820176687101.0
-17.0,-8.0,-1.0,23.0,-1.0,-5.0,-6.0,-5.0,1650820176708050.0
10.0,43.0,35.0,15.0,6.0,-4.0,-1.0,4.0,1650820176708050.0
21.0,9.0,-23.0,-3.0,-8.0,-10.0,-1.0,22.0,1650820176709009.0
-28.0,-12.0,-10.0,-19.0,2.0,8.0,-1.0,-41.0,1650820176709009.0
47.0,-4.0,1.0,-21.0,-13.0,-23.0,-8.0,15.0,1650820176729986.0
-37.0,-20.0,-20.0,3.0,3.0,10.0,6.0,26.0,1650820176729986.0
52.0,-13.0,-15.0,0.0,8.0,10.0,-3.0,-13.0,1650820176731948.0
-29.0,17.0,42.0,23.0,11.0,2.0,7.0,-41.0,1650820176731948.0
38.0,2.0,-26.0,-9.0,-6.0,-7.0,1.0,36.0,1650820176744946.0
-36.0,-25.0,-26.0,-23.0,-12.0,-16.0,-13.0,-2.0,1650820176744946.0
1.0,11.0,24.0,1.0,0.0,-4.0,3.0,8.0,1650820176746909.0
2.0,-1.0,6.0,24.0,2.0,8.0,-5.0,-30.0,1650820176746909.0
-7.0,-62.0,-89.0,-60.0,-12.0,6.0,0.0,-9.0,1650820176767886.0
10.0,43.0,84.0,24.0,-4.0,-5.0,4.0,-2.0,1650820176767886.0
0.0,-10.0,34.0,27.0,0.0,-12.0,-4.0,4.0,1650820176768862.0
-3.0,-17.0,-107.0,-72.0,-15.0,-7.0,-9.0,4.0,1650820176768862.0
-15.0,-6.0,29.0,17.0,8.0,12.0,9.0,25.0,1650820176789828.0
11.0,-3.0,17.0,30.0,20.0,16.0,7.0,9.0,1650820176789828.0
3.0,3.0,-9.0,2.0,-10.0,-3.0,3.0,43.0,1650820176791788.0
12.0,14.0,61.0,37.0,11.0,-3.0,6.0,-7.0,1650820176791788.0
-7.0,27.0,-43.0,-31.0,-19.0,-8.0,-8.0,-16.0,1650820176803784.0
22.0,-18.0,-25.0,-15.0,-4.0,-12.0,-6.0,-16.0,1650820176803784.0
-40.0,0.0,44.0,16.0,10.0,7.0,4.0,23.0,1650820176812732.0
19.0,-3.0,21.0,36.0,22.0,19.0,3.0,5.0,1650820176812732.0
-18.0,-22.0,-46.0,-44.0,-11.0,5.0,2.0,0.0,1650820176827691.0
31.0,24.0,3.0,-21.0,-25.0,-37.0,-12.0,-14.0,1650820176827691.0
3.0,21.0,-3.0,15.0,-4.0,-2.0,-6.0,-25.0,1650820176829699.0
5.0,12.0,25.0,8.0,32.0,39.0,9.0,23.0,1650820176829699.0
-10.0,-18.0,-44.0,-8.0,1.0,9.0,-1.0,-19.0,1650820176849667.0
-9.0,15.0,69.0,31.0,-2.0,-11.0,4.0,30.0,1650820176849667.0
11.0,0.0,7.0,-5.0,-20.0,-26.0,-8.0,-14.0,1650820176851628.0
-3.0,-22.0,-31.0,-2.0,2.0,-2.0,-1.0,8.0,1650820176851628.0
14.0,27.0,63.0,34.0,25.0,14.0,7.0,20.0,1650820176864627.0
-19.0,2.0,-14.0,-22.0,-2.0,12.0,-1.0,-14.0,1650820176864627.0
10.0,2.0,-10.0,4.0,-5.0,7.0,2.0,-4.0,1650820176871608.0
4.0,24.0,101.0,52.0,21.0,5.0,12.0,17.0,1650820176871608.0
-15.0,-26.0,32.0,-19.0,-24.0,-17.0,-10.0,-14.0,1650820176887559.0
-69.0,-25.0,-26.0,2.0,1.0,2.0,5.0,27.0,1650820176887559.0
29.0,-12.0,36.0,13.0,9.0,0.0,-12.0,-84.0,1650820176889558.0
-6.0,34.0,48.0,2.0,-5.0,0.0,4.0,25.0,1650820176889558.0
-3.0,-1.0,29.0,27.0,11.0,0.0,-1.0,3.0,1650820176910504.0
14.0,6.0,-27.0,-26.0,-19.0,-2.0,-4.0,-16.0,1650820176910504.0
-11.0,14.0,-38.0,-10.0,6.0,9.0,8.0,13.0,1650820176911468.0
-19.0,-69.0,-57.0,-35.0,-25.0,-23.0,-13.0,-10.0,1650820176911468.0
16.0,22.0,42.0,32.0,23.0,9.0,10.0,26.0,1650820176933437.0
13.0,2.0,7.0,-4.0,-1.0,-2.0,-10.0,-10.0,1650820176933437.0
8.0,53.0,64.0,21.0,3.0,10.0,8.0,-1.0,1650820176938427.0
-7.0,-26.0,-102.0,-42.0,-12.0,-11.0,-9.0,1.0,1650820176938427.0
-14.0,-17.0,-53.0,-26.0,-17.0,-8.0,-1.0,1.0,1650820176947399.0
28.0,13.0,49.0,31.0,23.0,11.0,1.0,8.0,1650820176947399.0
-56.0,-11.0,-18.0,-18.0,-11.0,-13.0,-3.0,4.0,1650820176949368.0
24.0,28.0,58.0,14.0,-8.0,7.0,4.0,4.0,1650820176949368.0
-4.0,13.0,28.0,32.0,17.0,17.0,2.0,-32.0,1650820176970347.0
12.0,-6.0,-20.0,-12.0,-2.0,4.0,2.0,0.0,1650820176970347.0
19.0,0.0,7.0,-6.0,-6.0,-12.0,-2.0,2.0,1650820176971328.0
-21.0,-11.0,-75.0,-39.0,-17.0,-13.0,-5.0,-9.0,1650820176971328.0
18.0,20.0,74.0,42.0,22.0,17.0,6.0,15.0,1650820176984302.0
-9.0,-9.0,-22.0,-13.0,-6.0,-5.0,-4.0,-7.0,1650820176984302.0
-1.0,-26.0,-49.0,-32.0,-9.0,-8.0,-2.0,42.0,1650820176991254.0
3.0,16.0,20.0,37.0,7.0,2.0,0.0,-25.0,1650820176991254.0
9.0,3.0,-17.0,-21.0,-12.0,-3.0,-3.0,7.0,1650820177015224.0
-7.0,-3.0,-22.0,8.0,-8.0,-3.0,5.0,-1.0,1650820177015224.0
7.0,5.0,60.0,31.0,25.0,10.0,5.0,45.0,1650820177017188.0
-16.0,-24.0,-78.0,-59.0,-12.0,2.0,-3.0,-20.0,1650820177017188.0
-9.0,-17.0,-26.0,-2.0,-6.0,-7.0,-2.0,-14.0,1650820177030183.0
-3.0,8.0,-11.0,-20.0,3.0,7.0,3.0,1.0,1650820177030183.0
-5.0,4.0,7.0,16.0,-8.0,-13.0,-5.0,-11.0,1650820177032146.0
6.0,7.0,39.0,13.0,7.0,-3.0,0.0,14.0,1650820177032146.0
0.0,6.0,5.0,8.0,-1.0,6.0,1.0,5.0,1650820177044112.0
1.0,0.0,-12.0,-1.0,-1.0,-5.0,0.0,-5.0,1650820177044112.0
-4.0,-10.0,-30.0,-20.0,-5.0,-2.0,-4.0,-13.0,1650820177051094.0
7.0,13.0,27.0,24.0,7.0,-5.0,0.0,8.0,1650820177051094.0
-3.0,-6.0,-11.0,-16.0,-11.0,-3.0,-4.0,-6.0,1650820177068061.0
-1.0,1.0,6.0,0.0,2.0,9.0,2.0,6.0,1650820177068061.0
4.0,-5.0,-4.0,-3.0,-4.0,-2.0,1.0,-14.0,1650820177069047.0
3.0,3.0,12.0,6.0,2.0,10.0,3.0,8.0,1650820177069047.0
-5.0,0.0,-5.0,0.0,0.0,-8.0,-2.0,-4.0,1650820177090024.0
1.0,2.0,4.0,-13.0,-1.0,0.0,-1.0,-3.0,1650820177090024.0
0.0,-10.0,-12.0,-1.0,9.0,6.0,-1.0,-2.0,1650820177092006.0
2.0,1.0,7.0,8.0,-3.0,-4.0,0.0,5.0,1650820177092006.0
0.0,2.0,-4.0,-8.0,-5.0,-3.0,-2.0,-3.0,1650820177103982.0
1.0,3.0,4.0,6.0,2.0,-6.0,-2.0,-3.0,1650820177103982.0
-2.0,-14.0,-16.0,-11.0,-10.0,-1.0,-3.0,-4.0,1650820177112438.0
-2.0,3.0,16.0,7.0,0.0,-5.0,0.0,5.0,1650820177112438.0
0.0,0.0,-5.0,-4.0,-9.0,-13.0,-4.0,-5.0,1650820177127431.0
-2.0,-2.0,1.0,0.0,2.0,5.0,2.0,-1.0,1650820177127431.0
-1.0,-3.0,-7.0,1.0,8.0,26.0,6.0,-1.0,1650820177129421.0
1.0,8.0,12.0,4.0,12.0,10.0,6.0,4.0,1650820177129421.0
1.0,0.0,0.0,-1.0,-1.0,-3.0,1.0,-1.0,1650820177150372.0
-2.0,-2.0,-2.0,0.0,-9.0,-24.0,-7.0,-3.0,1650820177150372.0
-1.0,1.0,-6.0,-6.0,-11.0,-6.0,-6.0,-5.0,1650820177151367.0
1.0,-4.0,5.0,8.0,6.0,5.0,-2.0,3.0,1650820177151367.0
-1.0,-2.0,-1.0,0.0,6.0,2.0,1.0,-2.0,1650820177164334.0
0.0,2.0,3.0,-1.0,-6.0,-1.0,-1.0,1.0,1650820177164334.0
0.0,-1.0,-1.0,-1.0,7.0,11.0,1.0,-2.0,1650820177171315.0
1.0,4.0,6.0,1.0,1.0,-2.0,0.0,0.0,1650820177171315.0
-1.0,-2.0,-1.0,2.0,5.0,-2.0,1.0,0.0,1650820177187237.0
0.0,1.0,0.0,1.0,5.0,3.0,0.0,-2.0,1650820177187237.0
-2.0,-3.0,-2.0,-2.0,-10.0,-7.0,0.0,-1.0,1650820177189235.0
-1.0,2.0,2.0,-1.0,-17.0,-16.0,-3.0,2.0,1650820177189235.0
-3.0,0.0,-6.0,-8.0,3.0,3.0,-3.0,-4.0,1650820177212172.0
0.0,3.0,6.0,11.0,15.0,12.0,2.0,0.0,1650820177212172.0
-1.0,-2.0,-5.0,-5.0,-4.0,-4.0,0.0,-2.0,1650820177217158.0
0.0,1.0,-2.0,-7.0,-6.0,-6.0,-1.0,2.0,1650820177217158.0
-1.0,1.0,2.0,-3.0,-11.0,-9.0,-2.0,0.0,1650820177224166.0
-2.0,0.0,1.0,3.0,-3.0,-4.0,-2.0,0.0,1650820177224166.0
0.0,-3.0,-6.0,-3.0,7.0,22.0,1.0,0.0,1650820177233116.0
0.0,2.0,2.0,4.0,3.0,12.0,4.0,1.0,1650820177233116.0
0.0,1.0,-3.0,-2.0,6.0,1.0,4.0,2.0,1650820177248075.0
0.0,1.0,3.0,1.0,-1.0,-5.0,-2.0,-1.0,1650820177248075.0
-1.0,-4.0,-3.0,-4.0,-6.0,-22.0,-3.0,-2.0,1650820177249073.0
0.0,0.0,-1.0,0.0,-5.0,-8.0,-5.0,-2.0,1650820177249073.0
-2.0,-5.0,0.0,0.0,-6.0,10.0,0.0,0.0,1650820177270051.0
2.0,-1.0,0.0,1.0,7.0,9.0,2.0,2.0,1650820177270051.0
1.0,2.0,-3.0,2.0,6.0,-6.0,1.0,0.0,1650820177272012.0
0.0,-2.0,4.0,4.0,2.0,5.0,1.0,0.0,1650820177272012.0
0.0,2.0,0.0,-2.0,0.0,3.0,1.0,-1.0,1650820177283979.0
-1.0,-3.0,-1.0,-1.0,-9.0,-9.0,-4.0,0.0,1650820177283979.0
0.0,-3.0,-3.0,-3.0,0.0,-3.0,-3.0,-1.0,1650820177292955.0
0.0,1.0,1.0,-1.0,4.0,1.0,2.0,1.0,1650820177292955.0
-1.0,-1.0,-1.0,0.0,-5.0,2.0,1.0,0.0,1650820177307949.0
0.0,0.0,-2.0,-2.0,1.0,5.0,3.0,1.0,1650820177307949.0
0.0,0.0,0.0,0.0,7.0,-1.0,-2.0,-3.0,1650820177308916.0
-1.0,-1.0,1.0,0.0,-3.0,-1.0,0.0,0.0,1650820177308916.0
0.0,0.0,-2.0,-2.0,-3.0,0.0,0.0,-1.0,1650820177337900.0
0.0,0.0,-5.0,-6.0,0.0,-7.0,1.0,0.0,1650820177337900.0
-2.0,-4.0,2.0,3.0,-9.0,-7.0,-4.0,-2.0,1650820177338885.0
-1.0,0.0,-2.0,-2.0,-2.0,3.0,-1.0,-3.0,1650820177338885.0
0.0,-3.0,1.0,0.0,-1.0,-6.0,-3.0,-1.0,1650820177343857.0
0.0,-2.0,0.0,3.0,8.0,12.0,2.0,0.0,1650820177343857.0
0.0,1.0,-3.0,0.0,0.0,1.0,2.0,2.0,1650820177352834.0
0.0,-1.0,-3.0,-1.0,1.0,-1.0,-1.0,-1.0,1650820177352834.0
-1.0,-3.0,-2.0,1.0,2.0,2.0,-1.0,-1.0,1650820177367793.0
-1.0,3.0,-1.0,-3.0,1.0,-1.0,-1.0,-1.0,1650820177367793.0
-1.0,-1.0,2.0,-3.0,-7.0,-5.0,-2.0,-1.0,1650820177368790.0
-1.0,-4.0,2.0,-1.0,-12.0,-10.0,-4.0,-2.0,1650820177368790.0
-3.0,-2.0,-3.0,-2.0,-4.0,-15.0,-4.0,-3.0,1650820177389983.0
1.0,0.0,1.0,3.0,6.0,9.0,0.0,-1.0,1650820177389983.0
0.0,1.0,-1.0,0.0,4.0,11.0,3.0,0.0,1650820177391935.0
-1.0,3.0,-1.0,0.0,8.0,7.0,3.0,1.0,1650820177391935.0
1.0,1.0,2.0,2.0,-1.0,2.0,2.0,-1.0,1650820177403875.0
-1.0,-2.0,-4.0,-5.0,-11.0,-6.0,-4.0,-3.0,1650820177403875.0
-2.0,-3.0,3.0,5.0,-9.0,-15.0,-3.0,1.0,1650820177412876.0
0.0,-4.0,-1.0,0.0,4.0,1.0,-3.0,1.0,1650820177412876.0
-1.0,1.0,2.0,-1.0,11.0,27.0,3.0,2.0,1650820177428023.0
-1.0,-2.0,-5.0,-7.0,-13.0,-10.0,-2.0,-3.0,1650820177428023.0
-1.0,0.0,-2.0,-2.0,-1.0,-8.0,-2.0,-2.0,1650820177428954.0
1.0,2.0,-3.0,-2.0,1.0,4.0,1.0,0.0,1650820177428954.0
0.0,1.0,0.0,1.0,7.0,7.0,3.0,3.0,1650820177449964.0
-1.0,0.0,2.0,3.0,4.0,5.0,1.0,0.0,1650820177449964.0
-2.0,-4.0,-3.0,-4.0,-9.0,-8.0,-3.0,-2.0,1650820177451920.0
0.0,-2.0,0.0,2.0,-8.0,-13.0,-4.0,-3.0,1650820177451920.0
-1.0,0.0,-4.0,-3.0,-5.0,-4.0,-5.0,-4.0,1650820177463926.0
-1.0,-1.0,-1.0,-6.0,-1.0,4.0,1.0,-1.0,1650820177463926.0
3.0,-1.0,-3.0,2.0,1.0,-1.0,-2.0,-1.0,1650820177472851.0
0.0,1.0,2.0,1.0,8.0,7.0,1.0,1.0,1650820177472851.0
0.0,-2.0,-1.0,-2.0,-2.0,0.0,-1.0,-1.0,1650820177488108.0
-1.0,-2.0,-2.0,0.0,-2.0,-18.0,-5.0,-3.0,1650820177488108.0
0.0,0.0,-1.0,-3.0,-3.0,11.0,2.0,-2.0,1650820177488820.0
-2.0,-3.0,-5.0,-3.0,-6.0,1.0,1.0,-1.0,1650820177488820.0
1.0,-1.0,3.0,5.0,6.0,0.0,5.0,1.0,1650820177509929.0
0.0,2.0,4.0,3.0,9.0,13.0,4.0,2.0,1650820177509929.0
2.0,0.0,1.0,-1.0,1.0,2.0,0.0,1.0,1650820177511605.0
-1.0,-1.0,-4.0,-5.0,-7.0,-10.0,-3.0,-1.0,1650820177511605.0
-3.0,-4.0,-2.0,-3.0,-10.0,-11.0,-6.0,-2.0,1650820177523566.0
-3.0,0.0,-1.0,0.0,-2.0,11.0,-1.0,0.0,1650820177523566.0
-2.0,0.0,-1.0,-1.0,4.0,-1.0,0.0,1.0,1650820177532543.0
-2.0,0.0,0.0,-1.0,0.0,-7.0,1.0,-2.0,1650820177532543.0
0.0,-1.0,0.0,0.0,-4.0,-7.0,-2.0,-1.0,1650820177547619.0
-2.0,-3.0,-5.0,-4.0,-5.0,1.0,-2.0,-1.0,1650820177547619.0
-2.0,1.0,7.0,7.0,-3.0,9.0,1.0,1.0,1650820177549574.0
0.0,-1.0,-2.0,-3.0,11.0,1.0,1.0,-1.0,1650820177549574.0
0.0,2.0,3.0,7.0,11.0,7.0,2.0,0.0,1650820177570618.0
2.0,1.0,-2.0,-2.0,2.0,5.0,0.0,1.0,1650820177570618.0
-2.0,-3.0,-2.0,-7.0,-12.0,-9.0,-2.0,1.0,1650820177571551.0
-1.0,1.0,2.0,1.0,-5.0,-7.0,-3.0,-2.0,1650820177571551.0
-1.0,1.0,-5.0,-4.0,1.0,-2.0,-2.0,0.0,1650820177583575.0
2.0,-4.0,0.0,0.0,-1.0,0.0,-3.0,-3.0,1650820177583575.0
0.0,2.0,-5.0,-5.0,-6.0,-19.0,-1.0,-2.0,1650820177592495.0
-2.0,0.0,3.0,2.0,2.0,15.0,0.0,0.0,1650820177592495.0
-2.0,1.0,3.0,3.0,4.0,13.0,2.0,1.0,1650820177608860.0
1.0,2.0,4.0,6.0,6.0,-1.0,2.0,1.0,1650820177608860.0
0.0,-1.0,-4.0,0.0,0.0,-8.0,-4.0,-2.0,1650820177613909.0
0.0,-3.0,1.0,-4.0,-11.0,-16.0,-5.0,0.0,1650820177613909.0
-3.0,0.0,-2.0,-7.0,-10.0,-10.0,-3.0,-2.0,1650820177629963.0
0.0,2.0,7.0,5.0,6.0,15.0,6.0,0.0,1650820177629963.0
-1.0,-5.0,0.0,5.0,11.0,11.0,2.0,0.0,1650820177631917.0
-1.0,0.0,-3.0,-4.0,2.0,2.0,2.0,0.0,1650820177631917.0
2.0,-1.0,-2.0,-2.0,-5.0,-3.0,-1.0,0.0,1650820177652945.0
-1.0,-1.0,-3.0,-5.0,-15.0,-18.0,-4.0,0.0,1650820177652945.0
0.0,0.0,1.0,-1.0,-4.0,-13.0,-3.0,-2.0,1650820177653953.0
-2.0,-2.0,-2.0,1.0,1.0,10.0,0.0,0.0,1650820177653953.0
0.0,-1.0,3.0,5.0,13.0,11.0,2.0,0.0,1650820177667032.0
-2.0,0.0,-1.0,2.0,8.0,11.0,5.0,1.0,1650820177667032.0
-1.0,0.0,-3.0,-3.0,-5.0,1.0,-1.0,-1.0,1650820177674053.0
-1.0,-2.0,2.0,-1.0,-5.0,-13.0,-3.0,-1.0,1650820177674053.0
0.0,-2.0,-8.0,-8.0,-7.0,-10.0,-4.0,-3.0,1650820177690029.0
-2.0,-2.0,2.0,4.0,1.0,2.0,-1.0,0.0,1650820177690029.0
-2.0,3.0,0.0,-2.0,2.0,-6.0,-2.0,-1.0,1650820177691987.0
-2.0,-4.0,2.0,0.0,-11.0,1.0,-1.0,0.0,1650820177691987.0
-2.0,-2.0,-3.0,-4.0,-2.0,1.0,3.0,-1.0,1650820177713108.0
-2.0,0.0,4.0,7.0,0.0,-4.0,-3.0,-1.0,1650820177713108.0
-1.0,-3.0,0.0,0.0,1.0,1.0,2.0,0.0,1650820177714123.0
1.0,0.0,0.0,2.0,3.0,3.0,0.0,1.0,1650820177714123.0
-1.0,0.0,-3.0,-2.0,-2.0,0.0,1.0,-1.0,1650820177728113.0
-1.0,-1.0,-3.0,-3.0,6.0,4.0,1.0,0.0,1650820177728113.0
-1.0,0.0,0.0,-2.0,3.0,2.0,-1.0,0.0,1650820177728794.0
-1.0,1.0,1.0,2.0,-6.0,-4.0,-3.0,-2.0,1650820177728794.0
0.0,0.0,3.0,2.0,-9.0,1.0,0.0,1.0,1650820177750228.0
1.0,-2.0,-2.0,-2.0,-5.0,-13.0,-1.0,-1.0,1650820177750228.0
0.0,-1.0,-5.0,-7.0,4.0,10.0,0.0,-1.0,1650820177752184.0
1.0,1.0,3.0,5.0,3.0,6.0,0.0,-1.0,1650820177752184.0
-1.0,-1.0,-2.0,-2.0,0.0,-4.0,-2.0,-3.0,1650820177772442.0
-1.0,-1.0,-2.0,-3.0,-8.0,-21.0,-2.0,-1.0,1650820177772442.0
-1.0,0.0,0.0,-3.0,-3.0,0.0,-1.0,0.0,1650820177774370.0
-1.0,2.0,-7.0,-8.0,-2.0,10.0,1.0,-2.0,1650820177774370.0
-2.0,-1.0,2.0,0.0,-6.0,-1.0,-2.0,0.0,1650820177787402.0
2.0,1.0,1.0,7.0,5.0,0.0,1.0,0.0,1650820177787402.0
2.0,1.0,-1.0,1.0,13.0,5.0,3.0,0.0,1650820177794232.0
0.0,2.0,2.0,3.0,8.0,1.0,2.0,0.0,1650820177794232.0
-1.0,-2.0,-5.0,-7.0,-3.0,7.0,-1.0,-1.0,1650820177809964.0
-1.0,-1.0,-6.0,-10.0,-9.0,-4.0,-2.0,-2.0,1650820177809964.0
0.0,-1.0,2.0,3.0,-11.0,-11.0,-4.0,-4.0,1650820177811892.0
-1.0,-3.0,1.0,1.0,-5.0,-8.0,-4.0,-1.0,1650820177811892.0
-5.0,-1.0,3.0,5.0,3.0,2.0,2.0,0.0,1650820177833061.0
-1.0,1.0,-2.0,-2.0,-3.0,0.0,-2.0,-1.0,1650820177833061.0
-1.0,0.0,0.0,-2.0,3.0,10.0,2.0,2.0,1650820177833996.0
-1.0,-4.0,-2.0,-2.0,4.0,3.0,1.0,1.0,1650820177833996.0
1.0,0.0,2.0,2.0,-1.0,-12.0,-3.0,0.0,1650820177846944.0
-1.0,-1.0,-1.0,-3.0,-4.0,-2.0,-3.0,-2.0,1650820177846944.0
-2.0,-4.0,0.0,-1.0,-5.0,-2.0,-3.0,-1.0,1650820177854237.0
0.0,3.0,-1.0,1.0,4.0,9.0,3.0,0.0,1650820177854237.0
0.0,0.0,0.0,0.0,0.0,-1.0,-1.0,0.0,1650820177870198.0
0.0,0.0,-1.0,-1.0,1.0,11.0,2.0,1.0,1650820177870198.0
0.0,2.0,-4.0,-4.0,3.0,4.0,1.0,1.0,1650820177872152.0
-1.0,-2.0,9.0,11.0,3.0,-7.0,2.0,0.0,1650820177872152.0
1.0,-1.0,2.0,6.0,-1.0,-6.0,0.0,0.0,1650820177892285.0
-1.0,-2.0,-1.0,0.0,-6.0,-5.0,-3.0,-1.0,1650820177892285.0
-3.0,-1.0,-6.0,-6.0,-11.0,-12.0,-4.0,-1.0,1650820177894245.0
-1.0,-1.0,-3.0,-4.0,-3.0,2.0,-3.0,0.0,1650820177894245.0
0.0,0.0,1.0,3.0,15.0,16.0,5.0,0.0,1650820177907218.0
-1.0,-5.0,-3.0,0.0,9.0,7.0,4.0,0.0,1650820177907218.0
1.0,0.0,-1.0,1.0,-7.0,-4.0,1.0,-1.0,1650820177915280.0
-2.0,1.0,-3.0,-6.0,-12.0,-20.0,-5.0,-2.0,1650820177915280.0
-3.0,-3.0,-2.0,-2.0,-8.0,0.0,-4.0,-1.0,1650820177930534.0
-1.0,1.0,-2.0,1.0,-1.0,3.0,1.0,1.0,1650820177930534.0
0.0,0.0,5.0,5.0,11.0,9.0,4.0,0.0,1650820177931463.0
-1.0,-1.0,-4.0,-3.0,-1.0,7.0,0.0,0.0,1650820177931463.0
0.0,1.0,-2.0,-3.0,-1.0,-6.0,-2.0,-1.0,1650820177953142.0
-2.0,-1.0,-2.0,-3.0,-2.0,-7.0,-2.0,-1.0,1650820177953142.0
-2.0,1.0,2.0,1.0,-7.0,-2.0,-3.0,0.0,1650820177954153.0
0.0,-4.0,4.0,8.0,6.0,-4.0,-1.0,-2.0,1650820177954153.0
0.0,0.0,-3.0,-2.0,2.0,2.0,-2.0,0.0,1650820177967332.0
-1.0,-6.0,-1.0,-1.0,5.0,11.0,1.0,0.0,1650820177967332.0
-1.0,-2.0,-2.0,-1.0,-5.0,-2.0,-1.0,-2.0,1650820177974316.0
-1.0,0.0,-5.0,-5.0,-5.0,-6.0,0.0,0.0,1650820177974316.0
-2.0,-2.0,-1.0,-4.0,-12.0,-13.0,-5.0,-2.0,1650820177990511.0
0.0,2.0,2.0,-1.0,-3.0,-11.0,-2.0,0.0,1650820177990511.0
0.0,1.0,1.0,2.0,13.0,19.0,3.0,2.0,1650820177991441.0
1.0,-1.0,4.0,5.0,5.0,8.0,2.0,2.0,1650820177991441.0
1.0,2.0,0.0,-1.0,2.0,0.0,3.0,0.0,1650820178013144.0
1.0,-1.0,-4.0,-3.0,-8.0,-7.0,-1.0,-1.0,1650820178013144.0
-1.0,-1.0,0.0,-3.0,-8.0,-7.0,-5.0,-2.0,1650820178014155.0
-1.0,3.0,-1.0,-1.0,-6.0,-15.0,-4.0,-2.0,1650820178014155.0
-1.0,-1.0,4.0,8.0,9.0,9.0,2.0,1.0,1650820178027433.0
0.0,1.0,-3.0,-3.0,7.0,16.0,1.0,0.0,1650820178027433.0
1.0,-1.0,2.0,5.0,10.0,10.0,4.0,2.0,1650820178041856.0
1.0,-1.0,-3.0,-4.0,2.0,1.0,3.0,1.0,1650820178041856.0
1.0,-1.0,-1.0,-5.0,-13.0,-19.0,-5.0,-2.0,1650820178049940.0
-2.0,1.0,0.0,-4.0,-8.0,-10.0,-6.0,-2.0,1650820178049940.0
0.0,-1.0,0.0,4.0,-4.0,-7.0,-4.0,-2.0,1650820178051868.0
0.0,2.0,-1.0,-6.0,-4.0,-4.0,-4.0,-1.0,1650820178051868.0
-1.0,-5.0,-2.0,1.0,-1.0,8.0,3.0,0.0,1650820178073081.0
0.0,0.0,-4.0,2.0,7.0,9.0,5.0,0.0,1650820178073081.0
1.0,1.0,1.0,3.0,12.0,8.0,2.0,1.0,1650820178074056.0
-1.0,-1.0,-3.0,-3.0,-11.0,-6.0,-1.0,-1.0,1650820178074056.0
-2.0,1.0,-1.0,-3.0,2.0,2.0,-2.0,-4.0,1650820178087492.0
-1.0,0.0,2.0,1.0,-1.0,5.0,-1.0,0.0,1650820178087492.0
-2.0,-1.0,-2.0,-3.0,-8.0,-6.0,1.0,0.0,1650820178093546.0
-1.0,-1.0,-5.0,-3.0,-3.0,-10.0,-1.0,-1.0,1650820178093546.0
-1.0,4.0,-6.0,-12.0,-12.0,-22.0,-8.0,-1.0,1650820178109809.0
-2.0,-9.0,6.0,11.0,2.0,10.0,0.0,-1.0,1650820178109809.0
1.0,0.0,3.0,6.0,16.0,31.0,9.0,1.0,1650820178111803.0
1.0,2.0,2.0,6.0,19.0,18.0,7.0,2.0,1650820178111803.0
0.0,3.0,-2.0,-5.0,-1.0,-6.0,-1.0,2.0,1650820178132873.0
-1.0,0.0,-1.0,-3.0,-8.0,-16.0,-6.0,-1.0,1650820178132873.0
0.0,-1.0,-4.0,-7.0,-13.0,-17.0,-5.0,-2.0,1650820178133804.0
-1.0,-3.0,-3.0,-4.0,-6.0,2.0,-4.0,-3.0,1650820178133804.0
-2.0,-4.0,1.0,1.0,-1.0,0.0,2.0,0.0,1650820178146770.0
-2.0,2.0,-5.0,-7.0,-1.0,-11.0,-3.0,-1.0,1650820178146770.0
-2.0,0.0,5.0,5.0,-2.0,-1.0,-4.0,-1.0,1650820178154815.0
-1.0,1.0,3.0,9.0,11.0,18.0,3.0,0.0,1650820178154815.0
2.0,1.0,3.0,6.0,18.0,20.0,7.0,2.0,1650820178169924.0
1.0,0.0,0.0,-4.0,-4.0,-2.0,1.0,-2.0,1650820178169924.0
-2.0,-3.0,-6.0,-8.0,-13.0,-14.0,-2.0,-2.0,1650820178171852.0
-2.0,-2.0,-3.0,-1.0,5.0,-8.0,-6.0,0.0,1650820178171852.0
0.0,-1.0,1.0,0.0,-8.0,-3.0,-2.0,-2.0,1650820178192915.0
0.0,2.0,-2.0,-1.0,0.0,4.0,2.0,0.0,1650820178192915.0
0.0,0.0,-4.0,-3.0,-3.0,-3.0,-1.0,-1.0,1650820178193847.0
-3.0,-3.0,2.0,-2.0,-11.0,-15.0,-5.0,-2.0,1650820178193847.0
-1.0,-4.0,-3.0,-1.0,-9.0,-3.0,-3.0,-2.0,1650820178206832.0
0.0,4.0,4.0,8.0,17.0,21.0,7.0,1.0,1650820178206832.0
1.0,1.0,-1.0,2.0,19.0,21.0,5.0,3.0,1650820178214869.0
2.0,1.0,3.0,3.0,15.0,9.0,5.0,4.0,1650820178214869.0
-1.0,0.0,0.0,-2.0,-4.0,-9.0,-1.0,0.0,1650820178229885.0
-1.0,-2.0,-3.0,-4.0,-17.0,-17.0,-5.0,-4.0,1650820178229885.0
-3.0,-2.0,-1.0,-3.0,-7.0,-12.0,-5.0,-1.0,1650820178231895.0
0.0,0.0,-2.0,-3.0,-4.0,-1.0,-1.0,0.0,1650820178231895.0
0.0,-2.0,-5.0,-7.0,-2.0,-4.0,-2.0,-1.0,1650820178253145.0
-2.0,-1.0,7.0,5.0,-6.0,-10.0,-6.0,-1.0,1650820178253145.0
0.0,6.0,1.0,-1.0,-10.0,-11.0,-4.0,-1.0,1650820178254147.0
-1.0,-4.0,-2.0,3.0,12.0,12.0,3.0,0.0,1650820178254147.0
1.0,1.0,3.0,9.0,20.0,27.0,8.0,3.0,1650820178266758.0
1.0,-2.0,-7.0,-9.0,5.0,-2.0,2.0,3.0,1650820178266758.0
0.0,0.0,9.0,7.0,-8.0,-7.0,-3.0,-1.0,1650820178274807.0
0.0,0.0,-7.0,-10.0,-16.0,-5.0,-5.0,-2.0,1650820178274807.0
0.0,-2.0,4.0,8.0,4.0,0.0,0.0,0.0,1650820178289836.0
-1.0,2.0,-1.0,-2.0,6.0,-3.0,-1.0,-1.0,1650820178289836.0
0.0,-3.0,-6.0,-6.0,-9.0,-19.0,-5.0,-2.0,1650820178291764.0
-2.0,0.0,-1.0,-3.0,-18.0,-17.0,-4.0,-3.0,1650820178291764.0
-2.0,-1.0,1.0,2.0,3.0,5.0,0.0,-1.0,1650820178311923.0
2.0,0.0,-2.0,4.0,19.0,32.0,8.0,2.0,1650820178311923.0
2.0,0.0,2.0,5.0,13.0,19.0,8.0,2.0,1650820178320800.0
1.0,1.0,2.0,-2.0,-6.0,-2.0,1.0,1.0,1650820178320800.0
-2.0,2.0,0.0,-3.0,-7.0,-21.0,-6.0,-3.0,1650820178326776.0
-3.0,-2.0,1.0,-1.0,-15.0,-17.0,-5.0,-2.0,1650820178326776.0
-3.0,-3.0,-5.0,-5.0,-4.0,-5.0,-4.0,-4.0,1650820178335724.0
1.0,-1.0,-4.0,-3.0,1.0,2.0,1.0,0.0,1650820178335724.0
0.0,2.0,4.0,4.0,6.0,6.0,3.0,-1.0,1650820178349812.0
0.0,-3.0,-2.0,-1.0,6.0,6.0,1.0,-1.0,1650820178349812.0
-1.0,-3.0,-4.0,0.0,1.0,-2.0,0.0,-1.0,1650820178351742.0
-2.0,-1.0,-3.0,-6.0,-12.0,-11.0,-5.0,-2.0,1650820178351742.0
1.0,-3.0,0.0,-1.0,-2.0,12.0,-2.0,-1.0,1650820178373063.0
-1.0,2.0,-1.0,-3.0,2.0,2.0,0.0,0.0,1650820178373063.0
2.0,2.0,3.0,0.0,2.0,-1.0,4.0,1.0,1650820178373988.0
0.0,2.0,0.0,0.0,-3.0,-12.0,-2.0,0.0,1650820178373988.0
0.0,-2.0,-2.0,-2.0,1.0,1.0,-3.0,0.0,1650820178403061.0
0.0,2.0,3.0,3.0,4.0,5.0,-2.0,0.0,1650820178403061.0
-1.0,-1.0,-3.0,-4.0,-5.0,-2.0,-2.0,0.0,1650820178404075.0
0.0,-1.0,-2.0,-4.0,-4.0,-5.0,-2.0,-2.0,1650820178404075.0
-1.0,-1.0,0.0,-2.0,-8.0,-15.0,-2.0,1.0,1650820178410061.0
0.0,0.0,-3.0,0.0,-7.0,4.0,-1.0,-1.0,1650820178410061.0
0.0,-1.0,0.0,4.0,10.0,15.0,6.0,3.0,1650820178412057.0
0.0,-1.0,1.0,0.0,10.0,17.0,5.0,2.0,1650820178412057.0
-1.0,0.0,0.0,1.0,-1.0,-4.0,1.0,0.0,1650820178432807.0
0.0,-1.0,0.0,-7.0,-8.0,-21.0,-3.0,-1.0,1650820178432807.0
-1.0,-2.0,-7.0,-7.0,-12.0,-18.0,-6.0,-1.0,1650820178433737.0
-1.0,-1.0,0.0,4.0,3.0,11.0,1.0,-2.0,1650820178433737.0
1.0,1.0,-1.0,3.0,9.0,13.0,3.0,1.0,1650820178447241.0
0.0,-2.0,-3.0,0.0,3.0,-6.0,1.0,0.0,1650820178447241.0
0.0,-1.0,1.0,-1.0,-6.0,-4.0,-2.0,-2.0,1650820178455719.0
0.0,-1.0,1.0,-3.0,-7.0,1.0,-2.0,0.0,1650820178455719.0
0.0,0.0,3.0,8.0,9.0,13.0,2.0,0.0,1650820178469906.0
1.0,2.0,2.0,5.0,6.0,7.0,4.0,1.0,1650820178469906.0
-1.0,-2.0,-5.0,-5.0,1.0,-8.0,-2.0,-2.0,1650820178471836.0
-2.0,-2.0,-3.0,-1.0,-5.0,-8.0,-4.0,-2.0,1650820178471836.0
0.0,-1.0,-3.0,-6.0,-11.0,-2.0,-1.0,-1.0,1650820178492930.0
-1.0,1.0,-1.0,2.0,3.0,5.0,0.0,0.0,1650820178492930.0
-1.0,-1.0,0.0,0.0,0.0,-1.0,-2.0,0.0,1650820178493896.0
-1.0,1.0,2.0,2.0,-4.0,-6.0,-1.0,-1.0,1650820178493896.0
-1.0,0.0,-5.0,-4.0,-1.0,-4.0,-2.0,-1.0,1650820178506733.0
0.0,0.0,-5.0,0.0,-6.0,-1.0,-1.0,-1.0,1650820178506733.0
-1.0,0.0,9.0,5.0,3.0,10.0,0.0,0.0,1650820178515724.0
-2.0,-2.0,-3.0,-1.0,5.0,-2.0,0.0,-1.0,1650820178515724.0
-3.0,0.0,-2.0,-5.0,-8.0,-11.0,-2.0,-1.0,1650820178529860.0
-2.0,-3.0,0.0,-4.0,-12.0,-2.0,0.0,1.0,1650820178529860.0
-1.0,0.0,2.0,4.0,11.0,11.0,3.0,-1.0,1650820178531785.0
0.0,0.0,0.0,4.0,16.0,15.0,4.0,3.0,1650820178531785.0
1.0,0.0,-3.0,-4.0,-3.0,-4.0,2.0,1.0,1650820178552850.0
0.0,-2.0,1.0,0.0,2.0,-3.0,-3.0,-2.0,1650820178552850.0
-1.0,-3.0,-6.0,-6.0,-10.0,-8.0,-3.0,-1.0,1650820178553846.0
0.0,-1.0,5.0,3.0,-4.0,-1.0,-1.0,-2.0,1650820178553846.0
-1.0,0.0,-2.0,-1.0,2.0,2.0,-1.0,-1.0,1650820178574872.0
0.0,1.0,3.0,2.0,3.0,1.0,0.0,1.0,1650820178574872.0
0.0,-1.0,-3.0,-6.0,-8.0,-9.0,-3.0,-1.0,1650820178576897.0
-1.0,-2.0,-7.0,-3.0,-7.0,-10.0,-4.0,-2.0,1650820178576897.0
-1.0,-4.0,-1.0,0.0,-11.0,-6.0,-3.0,-2.0,1650820178598079.0
0.0,0.0,2.0,1.0,4.0,9.0,2.0,-1.0,1650820178598079.0
-2.0,2.0,2.0,4.0,16.0,5.0,1.0,0.0,1650820178599010.0
-1.0,-3.0,-7.0,-8.0,-6.0,-5.0,-2.0,1.0,1650820178599010.0
-1.0,1.0,8.0,8.0,-2.0,12.0,0.0,-3.0,1650820178613038.0
-6.0,-4.0,-1.0,2.0,-5.0,-7.0,-2.0,3.0,1650820178613038.0
1.0,1.0,-4.0,-5.0,0.0,2.0,2.0,2.0,1650820178613981.0
-1.0,-5.0,-3.0,-1.0,-2.0,-2.0,0.0,-1.0,1650820178613981.0
1.0,-2.0,-5.0,-9.0,6.0,-4.0,-2.0,0.0,1650820178635297.0
-3.0,4.0,4.0,2.0,2.0,-1.0,-2.0,-7.0,1650820178635297.0
2.0,-5.0,-6.0,-4.0,-2.0,-2.0,-1.0,37.0,1650820178637224.0
-11.0,8.0,15.0,13.0,0.0,5.0,-2.0,-56.0,1650820178637224.0
-2.0,-3.0,-23.0,-13.0,-10.0,-13.0,-2.0,-1.0,1650820178649916.0
-2.0,-1.0,6.0,2.0,-3.0,-8.0,-3.0,-5.0,1650820178649916.0
1.0,-4.0,-19.0,-9.0,5.0,12.0,0.0,-1.0,1650820178651853.0
14.0,11.0,8.0,3.0,-6.0,0.0,2.0,17.0,1650820178651853.0
-12.0,-26.0,35.0,10.0,8.0,2.0,5.0,26.0,1650820178672878.0
32.0,21.0,-3.0,8.0,7.0,9.0,-1.0,-4.0,1650820178672878.0
-2.0,6.0,21.0,8.0,-1.0,-8.0,3.0,6.0,1650820178673821.0
-5.0,-39.0,-61.0,-36.0,-12.0,-6.0,-11.0,-33.0,1650820178673821.0
-2.0,25.0,50.0,47.0,10.0,13.0,6.0,21.0,1650820178694873.0
-34.0,10.0,-49.0,-35.0,-10.0,-8.0,-4.0,-27.0,1650820178694873.0
-28.0,-23.0,63.0,29.0,7.0,5.0,-2.0,-17.0,1650820178696871.0
33.0,-24.0,-36.0,-2.0,9.0,3.0,11.0,42.0,1650820178696871.0
86.0,43.0,4.0,-4.0,-3.0,-2.0,-3.0,45.0,1650820178709888.0
-46.0,11.0,51.0,54.0,12.0,5.0,4.0,-12.0,1650820178709888.0
24.0,37.0,-9.0,-41.0,-9.0,-19.0,-3.0,34.0,1650820178723917.0
-58.0,14.0,39.0,10.0,-18.0,-6.0,-9.0,-44.0,1650820178723917.0
-12.0,-42.0,-45.0,-21.0,2.0,11.0,-11.0,-45.0,1650820178733082.0
-34.0,-14.0,-1.0,10.0,5.0,5.0,2.0,7.0,1650820178733082.0
17.0,11.0,-40.0,-38.0,-13.0,-11.0,-3.0,-4.0,1650820178733928.0
-7.0,21.0,46.0,48.0,19.0,-3.0,9.0,49.0,1650820178733928.0
-9.0,-16.0,-42.0,-29.0,-25.0,-15.0,-2.0,-28.0,1650820178755110.0
-15.0,29.0,43.0,2.0,11.0,17.0,-2.0,-11.0,1650820178755110.0
-16.0,-26.0,-39.0,10.0,0.0,10.0,2.0,-28.0,1650820178757068.0
6.0,-4.0,-8.0,-19.0,-4.0,-8.0,-2.0,21.0,1650820178757068.0
0.0,57.0,21.0,21.0,4.0,-4.0,-2.0,6.0,1650820178769942.0
7.0,-46.0,-54.0,-10.0,-11.0,-9.0,-2.0,-36.0,1650820178769942.0
4.0,-20.0,3.0,-18.0,0.0,2.0,4.0,19.0,1650820178775854.0
23.0,3.0,-22.0,-6.0,-15.0,-15.0,-17.0,-34.0,1650820178775854.0
0.0,18.0,18.0,-3.0,6.0,-3.0,-4.0,1.0,1650820178793010.0
17.0,-16.0,0.0,-48.0,-16.0,-4.0,2.0,27.0,1650820178793010.0
-55.0,-9.0,24.0,34.0,10.0,4.0,-3.0,-31.0,1650820178794011.0
43.0,-6.0,-17.0,13.0,14.0,14.0,4.0,37.0,1650820178794011.0
-9.0,-2.0,-19.0,-13.0,-20.0,-3.0,-17.0,-84.0,1650820178814823.0
16.0,25.0,25.0,21.0,27.0,12.0,7.0,21.0,1650820178814823.0
-1.0,-2.0,-40.0,-26.0,-16.0,-2.0,-4.0,-5.0,1650820178816761.0
8.0,17.0,68.0,43.0,11.0,2.0,10.0,24.0,1650820178816761.0
-14.0,-38.0,9.0,38.0,8.0,0.0,10.0,22.0,1650820178829734.0
19.0,0.0,-63.0,-51.0,-29.0,-25.0,-13.0,8.0,1650820178829734.0
1.0,14.0,77.0,27.0,-3.0,-21.0,-4.0,-26.0,1650820178836789.0
-28.0,-15.0,-39.0,-48.0,-11.0,4.0,-5.0,-19.0,1650820178836789.0
16.0,7.0,33.0,15.0,16.0,35.0,11.0,25.0,1650820178853165.0
-14.0,-5.0,25.0,59.0,22.0,16.0,8.0,18.0,1650820178853165.0
-7.0,-7.0,-26.0,-34.0,-11.0,-5.0,2.0,-5.0,1650820178854165.0
-17.0,16.0,24.0,1.0,9.0,-6.0,-5.0,-49.0,1650820178854165.0
-11.0,-28.0,-96.0,-43.0,-16.0,-26.0,-7.0,9.0,1650820178875065.0
21.0,55.0,70.0,26.0,0.0,5.0,5.0,39.0,1650820178875065.0
17.0,-10.0,-8.0,36.0,14.0,20.0,5.0,30.0,1650820178877020.0
-2.0,5.0,-30.0,-54.0,-13.0,-9.0,0.0,-15.0,1650820178877020.0
-27.0,-61.0,-112.0,-65.0,-22.0,-18.0,-10.0,-11.0,1650820178889028.0
3.0,-5.0,20.0,18.0,-8.0,-9.0,-5.0,-5.0,1650820178889028.0
47.0,25.0,42.0,31.0,12.0,9.0,9.0,20.0,1650820178897945.0
-3.0,19.0,42.0,40.0,22.0,22.0,14.0,35.0,1650820178897945.0
38.0,44.0,89.0,24.0,5.0,-11.0,5.0,74.0,1650820178912969.0
-15.0,-29.0,-61.0,-38.0,-23.0,-19.0,-11.0,-49.0,1650820178912969.0
-18.0,-23.0,1.0,-7.0,4.0,9.0,-1.0,-12.0,1650820178913945.0
2.0,10.0,-5.0,18.0,9.0,18.0,0.0,1.0,1650820178913945.0
-14.0,22.0,31.0,5.0,1.0,3.0,8.0,12.0,1650820178936116.0
15.0,40.0,76.0,25.0,26.0,15.0,8.0,6.0,1650820178936116.0
40.0,19.0,-33.0,-24.0,-6.0,-9.0,-7.0,-26.0,1650820178937116.0
-10.0,-5.0,-16.0,-17.0,-11.0,-10.0,-12.0,-4.0,1650820178937116.0
-1.0,18.0,32.0,26.0,-2.0,-5.0,-1.0,-10.0,1650820178948859.0
-3.0,12.0,37.0,24.0,6.0,5.0,7.0,45.0,1650820178948859.0
3.0,-16.0,-96.0,-53.0,-12.0,-1.0,-9.0,-41.0,1650820178957494.0
-16.0,-13.0,-15.0,-16.0,-1.0,-8.0,-1.0,16.0,1650820178957494.0
-9.0,27.0,18.0,2.0,2.0,10.0,1.0,-18.0,1650820178972981.0
5.0,-67.0,-39.0,-40.0,-21.0,-21.0,-9.0,26.0,1650820178972981.0
-29.0,6.0,22.0,15.0,5.0,3.0,-2.0,-52.0,1650820178973952.0
10.0,33.0,56.0,26.0,1.0,-1.0,-1.0,13.0,1650820178973952.0
-31.0,-50.0,-34.0,-24.0,1.0,2.0,-3.0,-4.0,1650820178995474.0
-19.0,-25.0,-13.0,3.0,-5.0,-5.0,-9.0,-82.0,1650820178995474.0
40.0,28.0,51.0,24.0,-5.0,-13.0,-6.0,17.0,1650820178996479.0
-23.0,1.0,3.0,-2.0,-8.0,-9.0,-3.0,7.0,1650820178996479.0
-30.0,0.0,5.0,-20.0,6.0,20.0,13.0,45.0,1650820179008873.0
15.0,-13.0,-52.0,-32.0,3.0,6.0,-4.0,-29.0,1650820179008873.0
6.0,3.0,41.0,17.0,1.0,10.0,5.0,5.0,1650820179017497.0
53.0,39.0,76.0,59.0,24.0,8.0,10.0,24.0,1650820179017497.0
26.0,-16.0,0.0,-7.0,-6.0,-17.0,-1.0,8.0,1650820179033084.0
-56.0,-53.0,-94.0,-46.0,-27.0,-12.0,-5.0,35.0,1650820179033084.0
-4.0,13.0,11.0,19.0,19.0,21.0,1.0,7.0,1650820179033943.0
8.0,-2.0,26.0,9.0,-1.0,1.0,8.0,25.0,1650820179033943.0
-11.0,36.0,65.0,27.0,16.0,14.0,7.0,-34.0,1650820179054871.0
28.0,36.0,59.0,32.0,-6.0,-27.0,-11.0,-53.0,1650820179054871.0
-24.0,-49.0,-4.0,-16.0,-12.0,-8.0,-8.0,4.0,1650820179056869.0
-21.0,-64.0,-33.0,-19.0,-18.0,2.0,-3.0,5.0,1650820179056869.0
-10.0,26.0,0.0,15.0,19.0,6.0,0.0,-7.0,1650820179078087.0
1.0,21.0,70.0,28.0,4.0,-4.0,5.0,25.0,1650820179078087.0
-18.0,-3.0,-68.0,-16.0,-6.0,0.0,4.0,-4.0,1650820179079085.0
1.0,-14.0,-24.0,-23.0,1.0,10.0,2.0,-13.0,1650820179079085.0
21.0,23.0,29.0,15.0,4.0,-6.0,-3.0,-15.0,1650820179093059.0
-1.0,-43.0,-63.0,3.0,13.0,21.0,4.0,5.0,1650820179093059.0
-16.0,-4.0,-56.0,-8.0,0.0,6.0,-4.0,33.0,1650820179094058.0
-22.0,-6.0,-18.0,-21.0,-2.0,-5.0,7.0,28.0,1650820179094058.0
-14.0,-17.0,-13.0,6.0,-25.0,-41.0,-9.0,-84.0,1650820179115016.0
-10.0,20.0,80.0,18.0,1.0,-2.0,-12.0,-32.0,1650820179115016.0
-2.0,-19.0,-23.0,-9.0,14.0,26.0,-4.0,-16.0,1650820179117004.0
4.0,-2.0,35.0,34.0,21.0,27.0,7.0,4.0,1650820179117004.0
-13.0,-22.0,-56.0,-17.0,-12.0,-13.0,-6.0,4.0,1650820179129958.0
8.0,10.0,-54.0,-18.0,-37.0,-35.0,-5.0,10.0,1650820179129958.0
4.0,56.0,123.0,67.0,18.0,-17.0,7.0,6.0,1650820179137928.0
0.0,-2.0,-65.0,-45.0,-3.0,17.0,-14.0,-34.0,1650820179137928.0
-10.0,2.0,9.0,-21.0,20.0,28.0,0.0,-23.0,1650820179152604.0
10.0,-5.0,7.0,19.0,-19.0,-17.0,1.0,14.0,1650820179152604.0
3.0,11.0,1.0,4.0,0.0,-10.0,4.0,19.0,1650820179154572.0
7.0,-18.0,-31.0,-31.0,-27.0,-22.0,-6.0,-9.0,1650820179154572.0
25.0,31.0,19.0,23.0,18.0,22.0,5.0,23.0,1650820179175537.0
10.0,-29.0,27.0,26.0,32.0,25.0,17.0,98.0,1650820179175537.0
-40.0,-20.0,-58.0,-67.0,-33.0,-23.0,-13.0,-79.0,1650820179176513.0
-2.0,42.0,84.0,47.0,15.0,-3.0,0.0,12.0,1650820179176513.0
-14.0,-45.0,-58.0,-12.0,-1.0,1.0,0.0,35.0,1650820179188481.0
29.0,45.0,69.0,-30.0,-11.0,3.0,1.0,25.0,1650820179188481.0
39.0,-13.0,-21.0,22.0,7.0,-2.0,4.0,37.0,1650820179197457.0
-17.0,-27.0,-57.0,-39.0,-20.0,-21.0,-10.0,-71.0,1650820179197457.0
41.0,44.0,94.0,41.0,24.0,25.0,14.0,33.0,1650820179212444.0
-6.0,-6.0,-116.0,-46.0,1.0,13.0,-8.0,-24.0,1650820179212444.0
-8.0,3.0,67.0,48.0,-7.0,-9.0,1.0,45.0,1650820179214411.0
34.0,-15.0,-61.0,-51.0,-18.0,-11.0,6.0,31.0,1650820179214411.0
24.0,37.0,51.0,11.0,0.0,-20.0,-9.0,-52.0,1650820179234871.0
-15.0,-34.0,-69.0,-24.0,13.0,8.0,-1.0,-20.0,1650820179234871.0
-8.0,-19.0,-17.0,-45.0,-8.0,15.0,3.0,31.0,1650820179236868.0
26.0,43.0,89.0,52.0,20.0,10.0,12.0,25.0,1650820179236868.0
-22.0,-53.0,-96.0,-36.0,-31.0,-23.0,-8.0,11.0,1650820179249112.0
-11.0,8.0,2.0,-36.0,-1.0,7.0,0.0,-15.0,1650820179249112.0
-5.0,25.0,2.0,4.0,-3.0,-11.0,-5.0,-17.0,1650820179257431.0
-16.0,-21.0,-35.0,-12.0,-13.0,-26.0,-12.0,3.0,1650820179257431.0
-15.0,-4.0,11.0,4.0,10.0,14.0,3.0,33.0,1650820179272459.0
15.0,36.0,69.0,46.0,1.0,-4.0,1.0,-47.0,1650820179272459.0
-33.0,2.0,-15.0,-26.0,5.0,17.0,6.0,-1.0,1650820179274388.0
31.0,-9.0,84.0,70.0,30.0,26.0,13.0,19.0,1650820179274388.0
-22.0,-84.0,-95.0,-35.0,-21.0,-20.0,-13.0,-2.0,1650820179294870.0
-24.0,-39.0,-4.0,3.0,4.0,-3.0,0.0,-46.0,1650820179294870.0
19.0,9.0,32.0,39.0,2.0,-5.0,6.0,34.0,1650820179296867.0
13.0,39.0,53.0,-2.0,2.0,-8.0,-5.0,15.0,1650820179296867.0
-14.0,-7.0,-16.0,20.0,22.0,27.0,8.0,-32.0,1650820179309035.0
6.0,-14.0,-34.0,-44.0,-14.0,0.0,4.0,33.0,1650820179309035.0
-1.0,-19.0,-9.0,11.0,-6.0,-7.0,-6.0,-1.0,1650820179317493.0
1.0,12.0,-24.0,-38.0,-7.0,-9.0,3.0,-18.0,1650820179317493.0
-18.0,13.0,66.0,19.0,-18.0,-14.0,0.0,21.0,1650820179333123.0
3.0,24.0,38.0,8.0,13.0,9.0,-3.0,-8.0,1650820179333123.0
17.0,2.0,10.0,56.0,33.0,22.0,5.0,-21.0,1650820179334136.0
-3.0,-5.0,-75.0,-67.0,-24.0,-16.0,-9.0,0.0,1650820179334136.0
14.0,45.0,87.0,67.0,21.0,15.0,15.0,28.0,1650820179354869.0
62.0,-13.0,-87.0,-26.0,-7.0,4.0,-5.0,25.0,1650820179354869.0
-32.0,-4.0,20.0,-9.0,-7.0,-7.0,-4.0,-12.0,1650820179356867.0
-15.0,8.0,51.0,60.0,16.0,10.0,2.0,-1.0,1650820179356867.0
9.0,-22.0,17.0,-25.0,-31.0,-36.0,-9.0,3.0,1650820179369016.0
7.0,11.0,0.0,63.0,19.0,5.0,8.0,36.0,1650820179369016.0
6.0,-31.0,-70.0,-77.0,-7.0,7.0,-1.0,2.0,1650820179378078.0
-13.0,6.0,-24.0,-1.0,14.0,19.0,3.0,-18.0,1650820179378078.0
3.0,-21.0,-76.0,-46.0,-17.0,-8.0,-5.0,4.0,1650820179392297.0
-23.0,-3.0,67.0,19.0,1.0,-5.0,0.0,0.0,1650820179392297.0
9.0,1.0,-10.0,-16.0,-7.0,-4.0,3.0,-4.0,1650820179394230.0
-28.0,26.0,15.0,21.0,-9.0,-13.0,-3.0,-6.0,1650820179394230.0
0.0,-18.0,-8.0,-13.0,0.0,-1.0,-7.0,-25.0,1650820179415407.0
22.0,31.0,-2.0,3.0,4.0,9.0,10.0,46.0,1650820179415407.0
-38.0,-19.0,-19.0,-9.0,2.0,-2.0,-5.0,-40.0,1650820179416337.0
9.0,42.0,87.0,61.0,21.0,11.0,4.0,-23.0,1650820179416337.0
0.0,-26.0,-98.0,-75.0,-31.0,-6.0,-18.0,-24.0,1650820179429369.0
-18.0,9.0,27.0,24.0,3.0,-17.0,-9.0,-1.0,1650820179429369.0
27.0,21.0,70.0,43.0,9.0,12.0,3.0,15.0,1650820179438278.0
-3.0,-6.0,-36.0,-57.0,-11.0,8.0,3.0,21.0,1650820179438278.0
-19.0,-18.0,24.0,28.0,8.0,3.0,7.0,-8.0,1650820179452468.0
-10.0,0.0,29.0,18.0,3.0,2.0,-1.0,-17.0,1650820179452468.0
1.0,6.0,3.0,-52.0,-24.0,-11.0,-2.0,7.0,1650820179454425.0
-18.0,-55.0,-33.0,22.0,13.0,3.0,-6.0,-8.0,1650820179454425.0
29.0,54.0,74.0,46.0,20.0,14.0,6.0,-2.0,1650820179475601.0
-2.0,-51.0,-119.0,-97.0,-36.0,-26.0,-8.0,56.0,1650820179475601.0
-6.0,10.0,72.0,55.0,-1.0,-37.0,-4.0,-16.0,1650820179476605.0
-4.0,-8.0,-30.0,-14.0,-3.0,26.0,0.0,6.0,1650820179476605.0
4.0,-3.0,-19.0,-15.0,13.0,34.0,14.0,16.0,1650820179488719.0
6.0,30.0,24.0,39.0,27.0,16.0,12.0,38.0,1650820179488719.0
36.0,-7.0,-17.0,-16.0,-24.0,-25.0,-14.0,-27.0,1650820179504232.0
8.0,2.0,46.0,9.0,5.0,-15.0,-8.0,-15.0,1650820179504232.0
-10.0,-41.0,-68.0,-49.0,-16.0,-17.0,-10.0,4.0,1650820179513077.0
6.0,9.0,56.0,-10.0,8.0,19.0,7.0,-16.0,1650820179513077.0
12.0,32.0,6.0,-2.0,-9.0,1.0,1.0,16.0,1650820179514077.0
-6.0,2.0,-25.0,0.0,1.0,3.0,-1.0,-9.0,1650820179514077.0
17.0,49.0,74.0,30.0,19.0,16.0,8.0,4.0,1650820179534910.0
-21.0,-53.0,-70.0,-8.0,-10.0,-11.0,-5.0,-31.0,1650820179534910.0
1.0,-18.0,-20.0,0.0,-5.0,-8.0,0.0,30.0,1650820179536840.0
14.0,21.0,10.0,6.0,-6.0,-10.0,4.0,41.0,1650820179536840.0
1.0,9.0,52.0,38.0,-2.0,1.0,1.0,-42.0,1650820179557547.0
-13.0,-9.0,-31.0,-45.0,4.0,16.0,-4.0,-33.0,1650820179557547.0
-13.0,9.0,26.0,41.0,24.0,25.0,7.0,1.0,1650820179559591.0
-28.0,-42.0,-82.0,-64.0,-24.0,-16.0,-5.0,-1.0,1650820179559591.0
6.0,8.0,35.0,38.0,-4.0,-25.0,-5.0,31.0,1650820179573117.0
-2.0,28.0,28.0,-8.0,-19.0,-23.0,-12.0,-38.0,1650820179573117.0
-11.0,-14.0,-15.0,-9.0,0.0,9.0,6.0,15.0,1650820179574123.0
17.0,-16.0,5.0,21.0,33.0,35.0,4.0,-8.0,1650820179574123.0
2.0,23.0,14.0,-17.0,-1.0,2.0,-8.0,-45.0,1650820179595092.0
2.0,35.0,36.0,31.0,-1.0,-11.0,-3.0,34.0,1650820179595092.0
-44.0,-36.0,-81.0,-55.0,-13.0,-15.0,-12.0,-62.0,1650820179597047.0
-7.0,1.0,50.0,19.0,-7.0,-15.0,-2.0,-1.0,1650820179597047.0
-13.0,-36.0,-5.0,-1.0,-7.0,-10.0,-4.0,14.0,1650820179618061.0
31.0,55.0,89.0,32.0,12.0,26.0,15.0,43.0,1650820179618061.0
-17.0,-42.0,-101.0,-56.0,-3.0,-1.0,-9.0,-44.0,1650820179619065.0
1.0,-10.0,5.0,0.0,-6.0,2.0,-6.0,-8.0,1650820179619065.0
0.0,-14.0,0.0,-5.0,-7.0,-12.0,-1.0,-14.0,1650820179633086.0
-8.0,4.0,28.0,3.0,-7.0,-12.0,2.0,3.0,1650820179633086.0
26.0,14.0,37.0,36.0,-1.0,-3.0,2.0,29.0,1650820179634032.0
7.0,6.0,-44.0,-30.0,-15.0,-13.0,-5.0,-5.0,1650820179634032.0
1.0,-5.0,-16.0,-22.0,-3.0,-3.0,-2.0,6.0,1650820179654942.0
-27.0,-44.0,-7.0,17.0,7.0,8.0,-1.0,-29.0,1650820179654942.0
11.0,31.0,4.0,11.0,11.0,13.0,5.0,-14.0,1650820179656892.0
-14.0,-7.0,10.0,15.0,-9.0,-5.0,-4.0,-11.0,1650820179656892.0
28.0,24.0,-3.0,3.0,11.0,-2.0,-1.0,-10.0,1650820179678061.0
-2.0,-3.0,43.0,18.0,5.0,5.0,1.0,-14.0,1650820179678061.0
0.0,11.0,-19.0,-7.0,0.0,6.0,-3.0,-10.0,1650820179679061.0
-11.0,-71.0,-23.0,4.0,-10.0,-23.0,-3.0,5.0,1650820179679061.0
-25.0,-28.0,-87.0,-50.0,-21.0,-1.0,-3.0,25.0,1650820179692055.0
-4.0,-7.0,-24.0,-9.0,10.0,23.0,3.0,-10.0,1650820179692055.0
22.0,51.0,127.0,56.0,30.0,29.0,12.0,50.0,1650820179706204.0
-7.0,-10.0,-121.0,-61.0,-21.0,-18.0,-5.0,-10.0,1650820179706204.0
-5.0,15.0,31.0,24.0,-9.0,-19.0,-7.0,-2.0,1650820179715330.0
-1.0,-7.0,65.0,3.0,-9.0,-13.0,-4.0,-27.0,1650820179715330.0
-15.0,-77.0,-114.0,-38.0,-19.0,-20.0,-3.0,46.0,1650820179716287.0
3.0,40.0,68.0,41.0,20.0,17.0,6.0,-44.0,1650820179716287.0
15.0,19.0,19.0,-1.0,3.0,16.0,1.0,-1.0,1650820179737375.0
-37.0,-1.0,-43.0,-13.0,-7.0,-2.0,9.0,77.0,1650820179737375.0
22.0,16.0,21.0,27.0,12.0,-3.0,1.0,-10.0,1650820179739372.0
17.0,7.0,-6.0,-30.0,-15.0,-8.0,0.0,27.0,1650820179739372.0
-11.0,-4.0,15.0,34.0,18.0,12.0,-1.0,-7.0,1650820179752416.0
7.0,-6.0,-28.0,-25.0,-18.0,-28.0,-8.0,-4.0,1650820179752416.0
-18.0,-11.0,-19.0,-39.0,-13.0,-1.0,-1.0,17.0,1650820179758434.0
16.0,-6.0,66.0,44.0,24.0,20.0,7.0,9.0,1650820179758434.0
7.0,5.0,-3.0,-12.0,3.0,4.0,9.0,6.0,1650820179775600.0
4.0,-7.0,-54.0,-20.0,-22.0,-7.0,-11.0,-31.0,1650820179775600.0
-16.0,0.0,34.0,9.0,11.0,3.0,-4.0,8.0,1650820179776573.0
-5.0,-30.0,-97.0,-66.0,-25.0,-3.0,-5.0,-9.0,1650820179776573.0
54.0,23.0,72.0,43.0,29.0,10.0,15.0,78.0,1650820179798086.0
-21.0,9.0,13.0,17.0,7.0,-3.0,-3.0,-33.0,1650820179798086.0
6.0,-4.0,35.0,12.0,-8.0,-7.0,1.0,-2.0,1650820179799613.0
5.0,-5.0,28.0,14.0,-4.0,1.0,6.0,15.0,1650820179799613.0
-7.0,-28.0,-68.0,-36.0,-18.0,-11.0,-9.0,-17.0,1650820179811731.0
28.0,16.0,30.0,22.0,22.0,18.0,10.0,46.0,1650820179811731.0
0.0,0.0,-44.0,-27.0,22.0,25.0,4.0,-29.0,1650820179818712.0
6.0,42.0,96.0,64.0,-3.0,-10.0,-3.0,3.0,1650820179818712.0
-8.0,26.0,41.0,36.0,9.0,-2.0,2.0,0.0,1650820179835738.0
-15.0,-6.0,-52.0,-41.0,-33.0,-26.0,-7.0,-5.0,1650820179835738.0
55.0,31.0,72.0,25.0,4.0,5.0,4.0,-24.0,1650820179836711.0
-35.0,-57.0,-127.0,-20.0,13.0,26.0,3.0,33.0,1650820179836711.0
-45.0,-31.0,-66.0,-41.0,1.0,-4.0,-15.0,-78.0,1650820179858082.0
24.0,32.0,12.0,0.0,9.0,18.0,2.0,-9.0,1650820179858082.0
10.0,10.0,104.0,48.0,10.0,4.0,9.0,17.0,1650820179858818.0
-28.0,5.0,22.0,-25.0,-23.0,-22.0,-4.0,17.0,1650820179858818.0
13.0,13.0,-29.0,6.0,-6.0,-9.0,-3.0,17.0,1650820179872496.0
8.0,-23.0,30.0,31.0,28.0,19.0,6.0,-15.0,1650820179872496.0
-5.0,-6.0,-45.0,-22.0,-21.0,-16.0,-5.0,-7.0,1650820179878859.0
14.0,31.0,59.0,34.0,10.0,0.0,-1.0,-7.0,1650820179878859.0
-20.0,14.0,-30.0,-35.0,-8.0,5.0,4.0,22.0,1650820179895069.0
14.0,10.0,98.0,48.0,-4.0,-10.0,-6.0,-23.0,1650820179895069.0
-24.0,-45.0,-98.0,-42.0,-18.0,-15.0,-11.0,10.0,1650820179897020.0
16.0,20.0,10.0,10.0,12.0,-3.0,3.0,31.0,1650820179897020.0
3.0,-4.0,3.0,-7.0,-5.0,-4.0,-6.0,-22.0,1650820179918108.0
29.0,6.0,-4.0,-3.0,7.0,15.0,7.0,-2.0,1650820179918108.0
6.0,12.0,22.0,18.0,9.0,5.0,5.0,25.0,1650820179918791.0
-13.0,-15.0,-64.0,-43.0,-17.0,-7.0,-7.0,-22.0,1650820179918791.0
0.0,16.0,22.0,16.0,-3.0,-2.0,-1.0,-4.0,1650820179931825.0
4.0,11.0,41.0,25.0,13.0,-7.0,1.0,7.0,1650820179931825.0
-12.0,-11.0,-19.0,-9.0,-17.0,-3.0,-6.0,4.0,1650820179938824.0
11.0,12.0,42.0,23.0,24.0,25.0,7.0,-16.0,1650820179938824.0
-16.0,-5.0,1.0,5.0,10.0,7.0,12.0,37.0,1650820179954897.0
-6.0,5.0,39.0,17.0,8.0,1.0,-1.0,-6.0,1650820179954897.0
31.0,-29.0,-69.0,-64.0,-14.0,-2.0,3.0,12.0,1650820179956861.0
-7.0,-11.0,-4.0,-9.0,-11.0,-19.0,-11.0,-22.0,1650820179956861.0
10.0,8.0,38.0,12.0,2.0,10.0,3.0,19.0,1650820179976765.0
-26.0,-13.0,-59.0,-20.0,-15.0,-13.0,-3.0,-1.0,1650820179976765.0
-17.0,-15.0,-23.0,-16.0,-4.0,-8.0,-4.0,-15.0,1650820179984897.0
21.0,26.0,48.0,20.0,8.0,7.0,4.0,28.0,1650820179984897.0
13.0,-19.0,-55.0,-6.0,-11.0,-7.0,-5.0,-48.0,1650820179992491.0
-24.0,-9.0,-46.0,-30.0,-4.0,1.0,3.0,3.0,1650820179992491.0
1.0,29.0,76.0,43.0,12.0,-2.0,-3.0,-11.0,1650820179998861.0
16.0,-8.0,-56.0,-14.0,-2.0,-1.0,5.0,54.0,1650820179998861.0
-19.0,-3.0,40.0,-7.0,-15.0,-22.0,-10.0,-68.0,1650820180015037.0
3.0,-27.0,-16.0,7.0,-6.0,-1.0,-6.0,-47.0,1650820180015037.0
-5.0,-3.0,-50.0,-8.0,11.0,23.0,3.0,12.0,1650820180016968.0
-27.0,-28.0,25.0,4.0,25.0,14.0,-1.0,-10.0,1650820180016968.0
48.0,59.0,25.0,24.0,15.0,2.0,4.0,27.0,1650820180037966.0
8.0,-25.0,-45.0,-34.0,-19.0,-11.0,-6.0,-9.0,1650820180037966.0
-13.0,11.0,42.0,30.0,5.0,3.0,4.0,3.0,1650820180038898.0
17.0,5.0,5.0,-5.0,-6.0,-6.0,-5.0,-40.0,1650820180038898.0
-29.0,-34.0,-70.0,-25.0,-22.0,-8.0,-6.0,1.0,1650820180050932.0
3.0,13.0,-2.0,4.0,0.0,-8.0,-4.0,7.0,1650820180050932.0
26.0,31.0,66.0,31.0,9.0,2.0,8.0,64.0,1650820180059908.0
1.0,31.0,39.0,14.0,4.0,3.0,0.0,-11.0,1650820180059908.0
-5.0,-23.0,-32.0,-24.0,-8.0,9.0,-5.0,-4.0,1650820180074887.0
-10.0,7.0,-12.0,-7.0,-2.0,-4.0,-2.0,-8.0,1650820180074887.0
19.0,-16.0,-25.0,-10.0,-17.0,-14.0,-1.0,14.0,1650820180076912.0
-15.0,6.0,11.0,9.0,-12.0,-20.0,-3.0,-3.0,1650820180076912.0
13.0,12.0,19.0,-5.0,13.0,21.0,12.0,85.0,1650820180098107.0
5.0,-6.0,-60.0,-2.0,22.0,32.0,4.0,-44.0,1650820180098107.0
-22.0,0.0,1.0,-18.0,0.0,-9.0,-7.0,-30.0,1650820180098795.0
10.0,-2.0,19.0,2.0,3.0,-6.0,2.0,-11.0,1650820180098795.0
-1.0,7.0,1.0,-15.0,-18.0,-4.0,3.0,4.0,1650820180111811.0
6.0,15.0,20.0,29.0,4.0,-2.0,-3.0,19.0,1650820180111811.0
-17.0,-60.0,-67.0,-22.0,-5.0,-1.0,-8.0,-16.0,1650820180120787.0
12.0,8.0,-15.0,0.0,-3.0,-1.0,11.0,33.0,1650820180120787.0
-17.0,-16.0,14.0,12.0,9.0,-6.0,-6.0,-24.0,1650820180134876.0
0.0,13.0,52.0,17.0,-3.0,-4.0,4.0,41.0,1650820180134876.0
-2.0,20.0,26.0,6.0,-8.0,-16.0,-7.0,-36.0,1650820180136806.0
-7.0,-9.0,-19.0,-24.0,-13.0,-2.0,-7.0,7.0,1650820180136806.0
9.0,-11.0,18.0,25.0,7.0,12.0,4.0,18.0,1650820180158059.0
-66.0,-18.0,-49.0,-41.0,-12.0,-14.0,-3.0,-29.0,1650820180158059.0
20.0,45.0,71.0,63.0,36.0,23.0,10.0,4.0,1650820180158821.0
-2.0,-16.0,-70.0,-79.0,-20.0,-17.0,-9.0,-29.0,1650820180158821.0
-5.0,-21.0,55.0,33.0,-3.0,-4.0,0.0,-6.0,1650820180170926.0
19.0,-13.0,6.0,-4.0,6.0,15.0,4.0,8.0,1650820180170926.0
-31.0,-2.0,-25.0,-15.0,-12.0,-9.0,-1.0,21.0,1650820180180857.0
-18.0,-28.0,-3.0,17.0,7.0,1.0,2.0,-55.0,1650820180180857.0
1.0,5.0,-7.0,10.0,5.0,-6.0,-2.0,-9.0,1650820180195016.0
8.0,9.0,7.0,-16.0,-8.0,-7.0,2.0,43.0,1650820180195016.0
-33.0,22.0,45.0,26.0,13.0,14.0,1.0,-77.0,1650820180196946.0
-1.0,-18.0,-48.0,-22.0,-10.0,7.0,-10.0,-3.0,1650820180196946.0
-8.0,-18.0,-23.0,-11.0,-4.0,-13.0,-3.0,4.0,1650820180218155.0
8.0,-2.0,39.0,28.0,14.0,16.0,5.0,-5.0,1650820180218155.0
13.0,0.0,-23.0,-19.0,-11.0,-6.0,1.0,25.0,1650820180219126.0
0.0,2.0,-15.0,14.0,14.0,4.0,4.0,-2.0,1650820180219126.0
-12.0,-5.0,-10.0,-5.0,8.0,3.0,-2.0,-15.0,1650820180231148.0
9.0,4.0,-1.0,-3.0,-8.0,-13.0,-5.0,1.0,1650820180231148.0
7.0,8.0,22.0,-2.0,-15.0,-20.0,-4.0,5.0,1650820180240189.0
-7.0,-20.0,-5.0,6.0,-1.0,16.0,3.0,0.0,1650820180240189.0
2.0,9.0,28.0,11.0,9.0,14.0,5.0,7.0,1650820180254912.0
11.0,-13.0,-24.0,2.0,13.0,2.0,2.0,7.0,1650820180254912.0
-5.0,-19.0,-22.0,-24.0,-11.0,-7.0,-7.0,-1.0,1650820180256910.0
0.0,13.0,12.0,12.0,-13.0,-20.0,-4.0,-2.0,1650820180256910.0
1.0,10.0,4.0,-7.0,-7.0,-4.0,-4.0,-5.0,1650820180277912.0
4.0,-3.0,-8.0,-5.0,-5.0,-10.0,-3.0,-4.0,1650820180277912.0
0.0,1.0,-6.0,1.0,10.0,20.0,3.0,1.0,1650820180278868.0
2.0,17.0,30.0,15.0,5.0,9.0,6.0,7.0,1650820180278868.0
-3.0,-9.0,-23.0,-24.0,-4.0,-3.0,0.0,-5.0,1650820180291807.0
-4.0,2.0,0.0,-3.0,-2.0,-5.0,-4.0,-2.0,1650820180291807.0
7.0,1.0,-6.0,-1.0,-1.0,-3.0,0.0,10.0,1650820180300783.0
6.0,12.0,22.0,11.0,0.0,-1.0,0.0,5.0,1650820180300783.0
0.0,1.0,6.0,1.0,0.0,1.0,0.0,-1.0,1650820180315047.0
-3.0,-4.0,-18.0,-9.0,-9.0,-12.0,-5.0,-5.0,1650820180315047.0
5.0,4.0,10.0,7.0,-1.0,-3.0,-1.0,5.0,1650820180317001.0
-1.0,-4.0,1.0,3.0,2.0,11.0,0.0,-2.0,1650820180317001.0
-3.0,-3.0,-6.0,-10.0,-11.0,-4.0,-2.0,-4.0,1650820180338086.0
1.0,-2.0,3.0,6.0,12.0,11.0,1.0,1.0,1650820180338086.0
0.0,-13.0,-15.0,-2.0,-3.0,2.0,4.0,3.0,1650820180339085.0
-1.0,5.0,12.0,10.0,20.0,5.0,3.0,1.0,1650820180339085.0
1.0,-1.0,-3.0,-2.0,0.0,1.0,-2.0,0.0,1650820180351121.0
-2.0,-4.0,-3.0,-2.0,-17.0,-17.0,-2.0,-1.0,1650820180351121.0
3.0,3.0,0.0,-6.0,0.0,9.0,-1.0,0.0,1650820180359938.0
-2.0,0.0,-1.0,-2.0,1.0,3.0,-2.0,0.0,1650820180359938.0
0.0,0.0,3.0,2.0,3.0,-8.0,-1.0,0.0,1650820180375085.0
0.0,-3.0,-9.0,-10.0,-10.0,-8.0,-4.0,0.0,1650820180375085.0
1.0,5.0,5.0,2.0,-1.0,-2.0,2.0,2.0,1650820180377014.0
0.0,-4.0,-5.0,1.0,4.0,1.0,1.0,-1.0,1650820180377014.0
1.0,5.0,5.0,6.0,9.0,6.0,2.0,0.0,1650820180397934.0
-3.0,-6.0,-10.0,-7.0,4.0,6.0,0.0,1.0,1650820180397934.0
0.0,1.0,2.0,0.0,-4.0,-3.0,-1.0,0.0,1650820180398934.0
1.0,0.0,2.0,-3.0,-5.0,-1.0,-2.0,0.0,1650820180398934.0
1.0,6.0,3.0,-1.0,-5.0,-7.0,-3.0,2.0,1650820180412051.0
0.0,3.0,3.0,-4.0,-2.0,-4.0,-1.0,-3.0,1650820180412051.0
0.0,-1.0,3.0,6.0,2.0,4.0,1.0,0.0,1650820180420860.0
0.0,-2.0,-2.0,1.0,3.0,-2.0,1.0,0.0,1650820180420860.0
-2.0,-3.0,-3.0,-6.0,-5.0,-1.0,-2.0,-3.0,1650820180434938.0
-1.0,4.0,1.0,-1.0,-11.0,-8.0,-1.0,-1.0,1650820180434938.0
1.0,-1.0,-1.0,1.0,7.0,5.0,1.0,-1.0,1650820180436901.0
-1.0,-1.0,3.0,1.0,11.0,7.0,1.0,0.0,1650820180436901.0
1.0,1.0,-3.0,1.0,0.0,1.0,0.0,2.0,1650820180458057.0
-1.0,-4.0,-5.0,-4.0,-10.0,-13.0,-4.0,-2.0,1650820180458057.0
-2.0,1.0,0.0,-3.0,-13.0,-4.0,0.0,-2.0,1650820180458823.0
-2.0,0.0,-1.0,1.0,15.0,10.0,1.0,0.0,1650820180458823.0
2.0,2.0,0.0,2.0,7.0,0.0,2.0,2.0,1650820180480136.0
-2.0,-10.0,-3.0,-2.0,2.0,11.0,-1.0,-1.0,1650820180480136.0
-1.0,-8.0,1.0,0.0,-6.0,-5.0,-3.0,-1.0,1650820180482092.0
-1.0,0.0,0.0,-5.0,-15.0,-14.0,0.0,0.0,1650820180482092.0
-1.0,0.0,0.0,3.0,7.0,1.0,2.0,1.0,1650820180495452.0
0.0,0.0,3.0,1.0,-1.0,0.0,0.0,-1.0,1650820180495452.0
0.0,5.0,-1.0,-2.0,0.0,-17.0,-4.0,0.0,1650820180501438.0
-1.0,0.0,1.0,2.0,-2.0,8.0,-1.0,-2.0,1650820180501438.0
-3.0,-3.0,-3.0,-3.0,6.0,12.0,4.0,1.0,1650820180517948.0
0.0,-1.0,-4.0,-2.0,4.0,4.0,3.0,1.0,1650820180517948.0
0.0,-1.0,2.0,-1.0,6.0,3.0,0.0,0.0,1650820180518918.0
-1.0,0.0,0.0,2.0,-9.0,-13.0,-5.0,-1.0,1650820180518918.0
-3.0,-3.0,-4.0,-4.0,-11.0,-12.0,-2.0,-3.0,1650820180540924.0
-1.0,1.0,-1.0,-3.0,0.0,6.0,1.0,0.0,1650820180540924.0
0.0,2.0,5.0,4.0,4.0,4.0,4.0,2.0,1650820180546841.0
1.0,0.0,-9.0,-8.0,11.0,4.0,0.0,-1.0,1650820180546841.0
0.0,-1.0,6.0,4.0,-10.0,-4.0,-1.0,-2.0,1650820180554874.0
0.0,0.0,-2.0,-1.0,8.0,2.0,2.0,0.0,1650820180554874.0
1.0,-2.0,-3.0,-3.0,-2.0,-3.0,-2.0,0.0,1650820180556898.0
0.0,0.0,3.0,1.0,-13.0,-10.0,-4.0,-1.0,1650820180556898.0
-1.0,1.0,-2.0,-3.0,-2.0,4.0,-2.0,-2.0,1650820180578014.0
1.0,-1.0,-1.0,-1.0,-3.0,-12.0,0.0,1.0,1650820180578014.0
0.0,1.0,-2.0,-1.0,0.0,2.0,0.0,0.0,1650820180578957.0
0.0,0.0,1.0,1.0,5.0,13.0,1.0,0.0,1650820180578957.0
1.0,2.0,-6.0,-4.0,1.0,-2.0,-1.0,-1.0,1650820180601135.0
0.0,1.0,9.0,4.0,-1.0,1.0,0.0,-1.0,1650820180601135.0
-3.0,-2.0,-4.0,-4.0,-2.0,-13.0,-4.0,-2.0,1650820180602123.0
0.0,0.0,6.0,4.0,-8.0,-7.0,0.0,0.0,1650820180602123.0
1.0,-3.0,-6.0,-2.0,1.0,7.0,-1.0,-1.0,1650820180614157.0
0.0,-1.0,-1.0,-1.0,5.0,9.0,3.0,0.0,1650820180614157.0
2.0,1.0,-3.0,-4.0,-2.0,-2.0,2.0,0.0,1650820180621138.0
0.0,1.0,5.0,4.0,-1.0,-5.0,0.0,2.0,1650820180621138.0
-3.0,-3.0,9.0,13.0,9.0,-2.0,1.0,0.0,1650820180638082.0
-2.0,-2.0,-8.0,0.0,-4.0,-5.0,-5.0,-2.0,1650820180638082.0
-2.0,-2.0,1.0,-3.0,2.0,-1.0,-3.0,0.0,1650820180639271.0
-2.0,1.0,-6.0,-6.0,-7.0,7.0,3.0,-1.0,1650820180639271.0
0.0,0.0,1.0,-4.0,-5.0,3.0,3.0,0.0,1650820180660462.0
0.0,-9.0,2.0,4.0,10.0,3.0,-1.0,0.0,1650820180660462.0
-1.0,-1.0,-7.0,-4.0,-5.0,-10.0,-4.0,-3.0,1650820180666458.0
0.0,-1.0,4.0,1.0,-5.0,-11.0,-3.0,1.0,1650820180666458.0
-1.0,0.0,-2.0,-2.0,2.0,13.0,-1.0,0.0,1650820180674868.0
0.0,0.0,-3.0,-3.0,-5.0,3.0,1.0,1.0,1650820180674868.0
0.0,0.0,2.0,4.0,2.0,4.0,1.0,0.0,1650820180680921.0
0.0,-2.0,-2.0,0.0,0.0,-7.0,-1.0,0.0,1650820180680921.0
0.0,1.0,-4.0,-4.0,-3.0,-10.0,-2.0,0.0,1650820180698057.0
0.0,0.0,-5.0,-8.0,-9.0,-9.0,1.0,0.0,1650820180698057.0
1.0,1.0,6.0,4.0,-6.0,-1.0,-2.0,-1.0,1650820180698823.0
0.0,1.0,1.0,3.0,11.0,16.0,2.0,0.0,1650820180698823.0
0.0,-3.0,-2.0,4.0,16.0,12.0,4.0,0.0,1650820180719837.0
1.0,1.0,4.0,2.0,4.0,3.0,3.0,1.0,1650820180719837.0
1.0,-1.0,-6.0,-5.0,-10.0,-6.0,0.0,1.0,1650820180721765.0
-2.0,-1.0,-2.0,-7.0,-15.0,-18.0,-4.0,-2.0,1650820180721765.0
-3.0,1.0,1.0,-3.0,-9.0,-10.0,-4.0,-1.0,1650820180734796.0
-1.0,0.0,2.0,2.0,8.0,6.0,-1.0,-2.0,1650820180734796.0
-1.0,-1.0,3.0,6.0,5.0,6.0,3.0,1.0,1650820180741717.0
2.0,-1.0,-9.0,-10.0,-1.0,1.0,1.0,1.0,1650820180741717.0
-1.0,-1.0,-1.0,-4.0,-7.0,-11.0,-2.0,-1.0,1650820180757850.0
-2.0,1.0,1.0,1.0,-8.0,-7.0,-3.0,2.0,1650820180757850.0
-3.0,-1.0,-4.0,0.0,5.0,7.0,0.0,-1.0,1650820180758809.0
0.0,-1.0,2.0,6.0,1.0,1.0,-1.0,0.0,1650820180758809.0
0.0,-1.0,-2.0,-4.0,-2.0,1.0,1.0,-1.0,1650820180779929.0
1.0,2.0,-3.0,-5.0,6.0,9.0,2.0,-1.0,1650820180779929.0
0.0,4.0,10.0,12.0,7.0,5.0,4.0,-1.0,1650820180781882.0
0.0,2.0,-3.0,-3.0,-3.0,-6.0,-1.0,0.0,1650820180781882.0
-1.0,2.0,0.0,1.0,-4.0,-11.0,-3.0,-2.0,1650820180794874.0
-2.0,-2.0,-1.0,1.0,-8.0,-8.0,-5.0,-1.0,1650820180794874.0
-3.0,-1.0,-2.0,-3.0,8.0,10.0,0.0,0.0,1650820180800928.0
-1.0,0.0,-1.0,-4.0,-9.0,-1.0,0.0,-1.0,1650820180800928.0
0.0,-1.0,-2.0,-2.0,-6.0,-7.0,-3.0,0.0,1650820180817758.0
0.0,-1.0,-4.0,-1.0,-1.0,2.0,1.0,-1.0,1650820180817758.0
0.0,-6.0,-2.0,-3.0,2.0,-3.0,-1.0,-1.0,1650820180818784.0
-1.0,-3.0,1.0,4.0,5.0,1.0,-2.0,-2.0,1650820180818784.0
-1.0,2.0,1.0,-1.0,-3.0,1.0,0.0,-1.0,1650820180840004.0
-1.0,-1.0,0.0,-1.0,-3.0,-2.0,-1.0,-2.0,1650820180840004.0
-1.0,-1.0,-3.0,-5.0,-4.0,-1.0,-1.0,0.0,1650820180841960.0
-2.0,-3.0,-3.0,-1.0,-2.0,-9.0,-2.0,-1.0,1650820180841960.0
1.0,-4.0,-1.0,-1.0,2.0,4.0,0.0,-1.0,1650820180854897.0
-2.0,2.0,0.0,-1.0,1.0,2.0,0.0,0.0,1650820180854897.0
-2.0,-1.0,-2.0,-3.0,0.0,10.0,2.0,0.0,1650820180860894.0
-1.0,-1.0,1.0,0.0,0.0,-4.0,0.0,-1.0,1650820180860894.0
0.0,0.0,1.0,2.0,1.0,-5.0,-2.0,-1.0,1650820180878060.0
1.0,0.0,1.0,3.0,1.0,5.0,2.0,1.0,1650820180878060.0
-2.0,-2.0,-2.0,-3.0,5.0,2.0,1.0,-1.0,1650820180878821.0
-2.0,-2.0,-6.0,0.0,0.0,-6.0,-2.0,0.0,1650820180878821.0
0.0,-3.0,0.0,-1.0,-13.0,1.0,-1.0,1.0,1650820180899852.0
-1.0,2.0,-1.0,3.0,6.0,10.0,-2.0,-1.0,1650820180899852.0
1.0,4.0,-3.0,-3.0,6.0,-5.0,-1.0,-1.0,1650820180901792.0
-2.0,-10.0,4.0,8.0,0.0,1.0,1.0,0.0,1650820180901792.0
-3.0,-8.0,-7.0,-8.0,-5.0,-9.0,-2.0,1.0,1650820180914813.0
0.0,-2.0,-1.0,0.0,-5.0,-6.0,-4.0,-1.0,1650820180914813.0
-1.0,-2.0,0.0,-1.0,-7.0,0.0,-2.0,0.0,1650820180921727.0
1.0,5.0,-3.0,-3.0,6.0,2.0,0.0,1.0,1650820180921727.0
-1.0,3.0,0.0,-1.0,-5.0,-9.0,-1.0,-1.0,1650820180938059.0
-2.0,-3.0,1.0,-1.0,-4.0,-3.0,-2.0,0.0,1650820180938059.0
0.0,-2.0,-4.0,-4.0,4.0,11.0,2.0,1.0,1650820180938795.0
-1.0,-1.0,3.0,2.0,0.0,6.0,1.0,1.0,1650820180938795.0
0.0,-1.0,3.0,7.0,10.0,5.0,3.0,0.0,1650820180959925.0
1.0,1.0,-4.0,-3.0,1.0,-9.0,-3.0,-1.0,1650820180959925.0
-1.0,1.0,2.0,1.0,-4.0,1.0,-3.0,0.0,1650820180961855.0
-1.0,0.0,0.0,-1.0,-4.0,9.0,2.0,0.0,1650820180961855.0
-1.0,0.0,-1.0,-4.0,0.0,-7.0,0.0,-1.0,1650820180973888.0
0.0,3.0,-2.0,-6.0,-8.0,-11.0,-4.0,-2.0,1650820180973888.0
-1.0,-4.0,-1.0,1.0,3.0,1.0,-1.0,0.0,1650820180982799.0
-1.0,0.0,2.0,6.0,10.0,16.0,5.0,0.0,1650820180982799.0
0.0,0.0,-3.0,-2.0,5.0,0.0,2.0,1.0,1650820180997858.0
-2.0,-1.0,-3.0,-3.0,-7.0,-8.0,-2.0,-2.0,1650820180997858.0
-1.0,-1.0,-3.0,-5.0,-10.0,-3.0,-2.0,1.0,1650820180998857.0
1.0,0.0,-2.0,-4.0,2.0,1.0,-2.0,-2.0,1650820180998857.0
-1.0,-1.0,2.0,1.0,-3.0,-9.0,-1.0,0.0,1650820181020068.0
-1.0,3.0,1.0,-2.0,-4.0,5.0,-1.0,-1.0,1650820181020068.0
0.0,3.0,-1.0,1.0,0.0,1.0,0.0,-1.0,1650820181022024.0
0.0,-2.0,-7.0,-13.0,5.0,-2.0,0.0,0.0,1650820181022024.0
0.0,4.0,13.0,17.0,3.0,5.0,-1.0,2.0,1650820181034208.0
-2.0,-4.0,-2.0,-2.0,-8.0,-5.0,-1.0,0.0,1650820181034208.0
-1.0,0.0,-1.0,5.0,6.0,-4.0,0.0,-2.0,1650820181042783.0
0.0,1.0,0.0,-2.0,0.0,-1.0,-2.0,0.0,1650820181042783.0
1.0,-3.0,-7.0,-8.0,-1.0,-3.0,-4.0,-1.0,1650820181057935.0
1.0,2.0,-1.0,-1.0,-10.0,-4.0,-1.0,0.0,1650820181057935.0
-2.0,-1.0,3.0,3.0,1.0,5.0,0.0,0.0,1650820181058894.0
0.0,2.0,-2.0,2.0,12.0,14.0,4.0,1.0,1650820181058894.0
-1.0,-3.0,-1.0,0.0,5.0,10.0,3.0,1.0,1650820181080450.0
0.0,-3.0,3.0,2.0,2.0,-11.0,-1.0,1.0,1650820181080450.0
-1.0,-3.0,-6.0,-8.0,-14.0,-13.0,-4.0,-2.0,1650820181081396.0
-2.0,-3.0,-1.0,-3.0,-11.0,-13.0,-5.0,-2.0,1650820181081396.0
-1.0,2.0,3.0,4.0,5.0,8.0,-2.0,-1.0,1650820181093459.0
0.0,0.0,7.0,9.0,15.0,22.0,5.0,0.0,1650820181093459.0
2.0,0.0,-1.0,0.0,-2.0,-6.0,0.0,0.0,1650820181102463.0
1.0,-1.0,-1.0,-2.0,-8.0,-8.0,-4.0,-3.0,1650820181102463.0
0.0,-2.0,-4.0,-6.0,-8.0,-8.0,-5.0,-2.0,1650820181117600.0
-2.0,-1.0,-4.0,-7.0,-1.0,-1.0,0.0,-1.0,1650820181117600.0
0.0,6.0,1.0,3.0,6.0,4.0,1.0,0.0,1650820181119557.0
-1.0,-8.0,0.0,1.0,3.0,0.0,1.0,1.0,1650820181119557.0
-1.0,0.0,-1.0,-2.0,-6.0,-5.0,-4.0,-2.0,1650820181139956.0
-1.0,-1.0,-1.0,3.0,4.0,12.0,1.0,1.0,1650820181139956.0
0.0,-1.0,-1.0,-1.0,-2.0,2.0,2.0,-1.0,1650820181141911.0
0.0,3.0,-2.0,-2.0,-4.0,-7.0,-1.0,0.0,1650820181141911.0
-1.0,0.0,-5.0,-6.0,-8.0,-10.0,-1.0,-2.0,1650820181153916.0
-1.0,-1.0,1.0,1.0,9.0,2.0,1.0,0.0,1650820181153916.0
-1.0,-1.0,3.0,3.0,2.0,7.0,0.0,1.0,1650820181162499.0
-1.0,5.0,1.0,2.0,-1.0,-5.0,1.0,0.0,1650820181162499.0
0.0,-2.0,-3.0,-3.0,-2.0,4.0,2.0,1.0,1650820181177530.0
0.0,1.0,-5.0,-3.0,7.0,14.0,2.0,0.0,1650820181177530.0
-1.0,-5.0,4.0,6.0,3.0,-5.0,-1.0,0.0,1650820181179484.0
-3.0,-4.0,-4.0,-3.0,-9.0,-12.0,-3.0,-1.0,1650820181179484.0
-1.0,0.0,-1.0,-1.0,0.0,-11.0,-4.0,-1.0,1650820181199926.0
2.0,1.0,-4.0,-4.0,-13.0,-14.0,-1.0,1.0,1650820181199926.0
-1.0,-1.0,-3.0,-4.0,7.0,15.0,-1.0,-1.0,1650820181201855.0
0.0,-1.0,2.0,1.0,7.0,7.0,1.0,0.0,1650820181201855.0
0.0,-1.0,0.0,0.0,1.0,5.0,2.0,0.0,1650820181214257.0
-1.0,-1.0,-4.0,-4.0,-5.0,-11.0,-3.0,-2.0,1650820181214257.0
-2.0,-8.0,-2.0,-2.0,-13.0,-21.0,-2.0,-2.0,1650820181223260.0
-1.0,3.0,1.0,5.0,6.0,10.0,1.0,0.0,1650820181223260.0
-1.0,-1.0,0.0,0.0,8.0,16.0,3.0,-1.0,1650820181238057.0
1.0,1.0,-1.0,-3.0,7.0,4.0,1.0,0.0,1650820181238057.0
0.0,0.0,5.0,4.0,-8.0,-12.0,-2.0,-1.0,1650820181239286.0
-1.0,-2.0,-3.0,-5.0,-9.0,-11.0,-2.0,-2.0,1650820181239286.0
0.0,1.0,-1.0,0.0,2.0,1.0,-1.0,-1.0,1650820181260257.0
-1.0,-1.0,1.0,1.0,-2.0,1.0,0.0,1.0,1650820181260257.0
0.0,0.0,-2.0,-1.0,3.0,5.0,2.0,1.0,1650820181262225.0
0.0,-2.0,-2.0,0.0,0.0,-11.0,-3.0,0.0,1650820181262225.0
0.0,4.0,1.0,4.0,1.0,13.0,0.0,-1.0,1650820181274313.0
-1.0,-2.0,-1.0,-9.0,-10.0,-17.0,-5.0,-2.0,1650820181274313.0
-1.0,-4.0,-2.0,0.0,3.0,4.0,-1.0,1.0,1650820181283318.0
1.0,1.0,2.0,2.0,11.0,25.0,4.0,0.0,1650820181283318.0
0.0,0.0,-2.0,1.0,-3.0,-5.0,3.0,2.0,1650820181297832.0
0.0,-2.0,1.0,6.0,-1.0,-7.0,-1.0,-1.0,1650820181297832.0
0.0,3.0,1.0,-1.0,-2.0,-10.0,-2.0,-1.0,1650820181304320.0
0.0,0.0,-1.0,-2.0,-1.0,0.0,-1.0,-2.0,1650820181304320.0
-1.0,-3.0,-2.0,-3.0,-2.0,7.0,-1.0,-2.0,1650820181327861.0
-2.0,-4.0,-4.0,-2.0,0.0,7.0,1.0,-2.0,1650820181327861.0
-1.0,1.0,7.0,9.0,3.0,-3.0,-1.0,0.0,1650820181328793.0
-1.0,2.0,-2.0,1.0,-7.0,-5.0,-2.0,0.0,1650820181328793.0
-2.0,-1.0,-3.0,-5.0,-3.0,-7.0,-1.0,-2.0,1650820181333810.0
1.0,1.0,-2.0,0.0,0.0,3.0,0.0,0.0,1650820181333810.0
-2.0,-1.0,-6.0,-7.0,-9.0,-14.0,-4.0,-2.0,1650820181342759.0
-1.0,-1.0,-1.0,-1.0,1.0,7.0,0.0,-1.0,1650820181342759.0
0.0,-2.0,0.0,1.0,3.0,9.0,0.0,1.0,1650820181358057.0
0.0,-2.0,2.0,2.0,9.0,9.0,5.0,1.0,1650820181358057.0
1.0,3.0,-1.0,0.0,2.0,1.0,1.0,0.0,1650820181358764.0
-1.0,0.0,2.0,1.0,-3.0,-9.0,-1.0,-1.0,1650820181358764.0
-1.0,-1.0,-5.0,-9.0,-7.0,-15.0,-3.0,-1.0,1650820181380041.0
-2.0,-1.0,0.0,3.0,-2.0,5.0,-5.0,-3.0,1650820181380041.0
-1.0,-1.0,-5.0,-8.0,-8.0,5.0,1.0,-1.0,1650820181382052.0
-1.0,0.0,10.0,12.0,1.0,-8.0,-1.0,1.0,1650820181382052.0
0.0,-2.0,-2.0,3.0,10.0,7.0,1.0,-1.0,1650820181394058.0
0.0,0.0,1.0,1.0,5.0,3.0,1.0,2.0,1650820181394058.0
1.0,2.0,-4.0,-3.0,2.0,3.0,0.0,0.0,1650820181402500.0
-1.0,-2.0,-5.0,-5.0,-6.0,-4.0,-4.0,0.0,1650820181402500.0
-2.0,0.0,0.0,-2.0,-5.0,-23.0,-4.0,0.0,1650820181417564.0
-1.0,-1.0,0.0,1.0,-9.0,9.0,0.0,-1.0,1650820181417564.0
-1.0,-1.0,-2.0,0.0,4.0,7.0,-3.0,-1.0,1650820181419590.0
-1.0,0.0,-1.0,-3.0,2.0,3.0,4.0,0.0,1650820181419590.0
-1.0,0.0,3.0,5.0,5.0,-1.0,2.0,1.0,1650820181440053.0
0.0,1.0,-1.0,0.0,2.0,-5.0,0.0,0.0,1650820181440053.0
-2.0,1.0,-3.0,-4.0,-14.0,-8.0,-2.0,-1.0,1650820181446732.0
-2.0,-7.0,-1.0,-3.0,-2.0,-4.0,-4.0,-3.0,1650820181446732.0
-1.0,-3.0,-1.0,0.0,-3.0,-3.0,-2.0,0.0,1650820181463144.0
0.0,0.0,0.0,2.0,2.0,4.0,4.0,1.0,1650820181463144.0
-1.0,-3.0,2.0,2.0,11.0,8.0,3.0,2.0,1650820181464144.0
0.0,0.0,-3.0,-5.0,-6.0,-9.0,-3.0,0.0,1650820181464144.0
-1.0,-2.0,-3.0,-4.0,-11.0,-6.0,-2.0,-2.0,1650820181477326.0
1.0,2.0,4.0,5.0,4.0,3.0,-2.0,0.0,1650820181477326.0
-1.0,-6.0,-4.0,0.0,1.0,6.0,1.0,-1.0,1650820181479323.0
0.0,0.0,-1.0,-2.0,5.0,0.0,2.0,0.0,1650820181479323.0
-1.0,-1.0,1.0,-2.0,-3.0,3.0,-1.0,-1.0,1650820181499972.0
-1.0,2.0,-1.0,-2.0,-1.0,-12.0,-2.0,0.0,1650820181499972.0
0.0,1.0,3.0,5.0,9.0,-1.0,1.0,0.0,1650820181501897.0
0.0,0.0,-3.0,-3.0,-2.0,11.0,0.0,-1.0,1650820181501897.0
-1.0,-1.0,-1.0,-1.0,-4.0,-1.0,1.0,1.0,1650820181523064.0
-1.0,-2.0,-2.0,-4.0,-4.0,-15.0,-4.0,-1.0,1650820181523064.0
-2.0,0.0,3.0,1.0,-7.0,5.0,0.0,1.0,1650820181524014.0
1.0,-1.0,-6.0,-6.0,1.0,2.0,-1.0,-1.0,1650820181524014.0
0.0,1.0,7.0,9.0,16.0,11.0,2.0,3.0,1650820181538057.0
1.0,-1.0,0.0,-2.0,-1.0,-3.0,-1.0,-2.0,1650820181538057.0
1.0,0.0,-1.0,-5.0,-6.0,-12.0,-2.0,0.0,1650820181538792.0
0.0,-4.0,-2.0,0.0,-13.0,-10.0,-3.0,0.0,1650820181538792.0
-2.0,0.0,-5.0,-4.0,-1.0,2.0,0.0,1.0,1650820181559960.0
1.0,-1.0,-1.0,-3.0,8.0,8.0,2.0,-1.0,1650820181559960.0
0.0,2.0,5.0,6.0,-4.0,-4.0,-3.0,0.0,1650820181561889.0
-2.0,1.0,-5.0,-1.0,-1.0,-5.0,0.0,0.0,1650820181561889.0
1.0,0.0,2.0,5.0,8.0,20.0,3.0,1.0,1650820181583142.0
-3.0,-3.0,-2.0,1.0,9.0,3.0,0.0,-1.0,1650820181583142.0
0.0,-3.0,-3.0,-4.0,-3.0,0.0,1.0,-1.0,1650820181584142.0
1.0,1.0,4.0,1.0,-6.0,-2.0,0.0,0.0,1650820181584142.0
-1.0,-2.0,-2.0,-2.0,-6.0,-16.0,-3.0,-3.0,1650820181597490.0
-1.0,0.0,0.0,0.0,-6.0,-7.0,-3.0,0.0,1650820181597490.0
-3.0,-2.0,-7.0,-9.0,-5.0,-7.0,-3.0,-2.0,1650820181603543.0
-1.0,0.0,2.0,3.0,-8.0,-8.0,-3.0,-1.0,1650820181603543.0
1.0,1.0,-2.0,1.0,9.0,14.0,4.0,0.0,1650820181620559.0
1.0,1.0,-2.0,0.0,13.0,8.0,2.0,-1.0,1650820181620559.0
0.0,0.0,1.0,2.0,0.0,-6.0,-1.0,0.0,1650820181621528.0
-2.0,0.0,1.0,-1.0,0.0,8.0,-1.0,-2.0,1650820181621528.0
-2.0,-1.0,-1.0,-1.0,-6.0,2.0,0.0,1.0,1650820181643773.0
1.0,-2.0,-2.0,-3.0,-6.0,-11.0,-2.0,0.0,1650820181643773.0
-1.0,-1.0,1.0,3.0,0.0,-5.0,-2.0,-2.0,1650820181644741.0
-1.0,-1.0,-2.0,0.0,-5.0,4.0,0.0,1.0,1650820181644741.0
1.0,-1.0,-2.0,-1.0,4.0,2.0,-3.0,-3.0,1650820181656935.0
-2.0,-2.0,-1.0,2.0,6.0,8.0,3.0,1.0,1650820181656935.0
1.0,2.0,0.0,-2.0,2.0,-3.0,1.0,1.0,1650820181664207.0
-1.0,-4.0,0.0,-2.0,1.0,-3.0,0.0,0.0,1650820181664207.0
-1.0,2.0,-3.0,-5.0,-14.0,-26.0,-5.0,-1.0,1650820181679860.0
-6.0,-2.0,-1.0,-3.0,-13.0,0.0,-3.0,-2.0,1650820181679860.0
4.0,2.0,2.0,2.0,9.0,17.0,4.0,-1.0,1650820181681788.0
1.0,-3.0,11.0,14.0,7.0,10.0,5.0,5.0,1650820181681788.0
-2.0,-1.0,-1.0,0.0,11.0,4.0,3.0,-2.0,1650820181703571.0
4.0,3.0,2.0,2.0,-3.0,-7.0,-1.0,-2.0,1650820181703571.0
-2.0,1.0,-4.0,-4.0,-9.0,-4.0,-2.0,3.0,1650820181704571.0
0.0,-7.0,11.0,-1.0,1.0,-4.0,-2.0,12.0,1650820181704571.0
-8.0,-27.0,9.0,-3.0,0.0,-2.0,5.0,-3.0,1650820181725537.0
-1.0,-10.0,-3.0,8.0,-6.0,-3.0,-9.0,-17.0,1650820181725537.0
-3.0,-1.0,1.0,-2.0,-1.0,1.0,-4.0,-9.0,1650820181726492.0
-1.0,-3.0,0.0,0.0,2.0,-2.0,0.0,12.0,1650820181726492.0
12.0,14.0,7.0,2.0,-3.0,4.0,0.0,3.0,1650820181740659.0
-23.0,7.0,13.0,9.0,7.0,7.0,8.0,23.0,1650820181740659.0
47.0,12.0,9.0,-2.0,12.0,4.0,-2.0,-10.0,1650820181741612.0
10.0,-5.0,-19.0,0.0,1.0,-6.0,3.0,11.0,1650820181741612.0
-4.0,7.0,-8.0,-3.0,-13.0,0.0,-7.0,-24.0,1650820181762770.0
45.0,-9.0,0.0,-4.0,0.0,3.0,-3.0,-2.0,1650820181762770.0
-71.0,1.0,-3.0,3.0,5.0,5.0,2.0,-14.0,1650820181764699.0
-1.0,-4.0,6.0,20.0,-4.0,-6.0,-3.0,8.0,1650820181764699.0
-14.0,12.0,18.0,21.0,11.0,10.0,1.0,-20.0,1650820181777882.0
12.0,-26.0,-13.0,-13.0,2.0,3.0,7.0,42.0,1650820181777882.0
33.0,-7.0,-3.0,-3.0,-7.0,-7.0,-11.0,-46.0,1650820181783863.0
25.0,31.0,30.0,-8.0,-3.0,-6.0,-1.0,8.0,1650820181783863.0
-21.0,-42.0,5.0,9.0,0.0,-3.0,5.0,47.0,1650820181799974.0
32.0,28.0,29.0,28.0,-7.0,-16.0,-9.0,-72.0,1650820181799974.0
-55.0,-11.0,-3.0,4.0,9.0,16.0,2.0,31.0,1650820181801902.0
-5.0,-3.0,-9.0,23.0,25.0,16.0,6.0,-10.0,1650820181801902.0
-4.0,-5.0,-41.0,-53.0,-18.0,-6.0,-5.0,15.0,1650820181822934.0
-11.0,46.0,69.0,24.0,8.0,2.0,5.0,16.0,1650820181822934.0
-20.0,-52.0,-81.0,-39.0,-22.0,-15.0,2.0,59.0,1650820181823904.0
58.0,-9.0,62.0,47.0,11.0,5.0,0.0,-31.0,1650820181823904.0
-6.0,-34.0,-122.0,-96.0,-16.0,-12.0,-8.0,22.0,1650820181836896.0
-7.0,-12.0,36.0,33.0,5.0,3.0,6.0,-10.0,1650820181836896.0
31.0,45.0,43.0,9.0,6.0,3.0,0.0,28.0,1650820181851635.0
-17.0,24.0,23.0,-9.0,0.0,7.0,5.0,30.0,1650820181851635.0
28.0,15.0,38.0,29.0,6.0,13.0,3.0,-16.0,1650820181859928.0
-37.0,-14.0,-58.0,-46.0,-3.0,-1.0,-12.0,-9.0,1650820181859928.0
25.0,-5.0,-13.0,-7.0,3.0,-3.0,2.0,14.0,1650820181861856.0
-43.0,-23.0,-74.0,-22.0,-15.0,-11.0,-3.0,-43.0,1650820181861856.0
22.0,8.0,39.0,0.0,-17.0,-23.0,-3.0,36.0,1650820181882964.0
-14.0,17.0,13.0,35.0,7.0,7.0,-3.0,-27.0,1650820181882964.0
-9.0,-8.0,-31.0,-42.0,-23.0,-13.0,-6.0,-19.0,1650820181883902.0
-8.0,-5.0,10.0,-6.0,6.0,2.0,-7.0,-15.0,1650820181883902.0
6.0,44.0,27.0,46.0,13.0,17.0,11.0,17.0,1650820181897513.0
43.0,33.0,63.0,11.0,22.0,13.0,16.0,34.0,1650820181897513.0
-33.0,-42.0,-44.0,-9.0,-29.0,-28.0,-18.0,-90.0,1650820181904232.0
17.0,11.0,17.0,3.0,-1.0,6.0,2.0,1.0,1650820181904232.0
8.0,30.0,54.0,58.0,17.0,17.0,5.0,3.0,1650820181928011.0
-25.0,-18.0,-33.0,-26.0,-3.0,2.0,5.0,25.0,1650820181928011.0
56.0,28.0,6.0,28.0,1.0,-4.0,-2.0,8.0,1650820181929011.0
-25.0,18.0,11.0,-61.0,-3.0,-7.0,-5.0,-30.0,1650820181929011.0
-1.0,-23.0,-1.0,36.0,6.0,-7.0,-5.0,-12.0,1650820181943054.0
-20.0,-21.0,-55.0,-36.0,-23.0,-5.0,-6.0,-11.0,1650820181943054.0
0.0,8.0,34.0,42.0,18.0,1.0,9.0,27.0,1650820181944064.0
-8.0,4.0,-47.0,-20.0,11.0,20.0,1.0,3.0,1650820181944064.0
-6.0,-15.0,15.0,-10.0,-1.0,-4.0,1.0,-13.0,1650820181956090.0
-4.0,-24.0,-88.0,-69.0,-30.0,-19.0,-11.0,13.0,1650820181956090.0
1.0,-41.0,20.0,20.0,6.0,11.0,1.0,-2.0,1650820181964872.0
-3.0,24.0,-18.0,-19.0,14.0,16.0,0.0,0.0,1650820181964872.0
-15.0,8.0,2.0,5.0,2.0,0.0,1.0,-18.0,1650820181980042.0
13.0,-9.0,25.0,32.0,-10.0,-32.0,-2.0,39.0,1650820181980042.0
74.0,53.0,62.0,-13.0,-5.0,5.0,1.0,-50.0,1650820181981998.0
-51.0,-12.0,-9.0,24.0,-4.0,5.0,5.0,8.0,1650820181981998.0
5.0,3.0,-12.0,4.0,6.0,-7.0,-4.0,-15.0,1650820182003684.0
19.0,-27.0,-57.0,-43.0,-11.0,10.0,-5.0,-30.0,1650820182003684.0
-10.0,-14.0,12.0,8.0,19.0,13.0,7.0,39.0,1650820182005681.0
43.0,30.0,37.0,38.0,0.0,-9.0,-3.0,-18.0,1650820182005681.0
-25.0,-65.0,-111.0,-80.0,-29.0,-14.0,-8.0,7.0,1650820182015871.0
2.0,40.0,98.0,55.0,12.0,-11.0,-7.0,6.0,1650820182015871.0
-29.0,-22.0,-29.0,-18.0,-19.0,-17.0,-9.0,-5.0,1650820182024885.0
16.0,6.0,-1.0,10.0,7.0,9.0,-2.0,9.0,1650820182024885.0
-22.0,64.0,62.0,13.0,3.0,-11.0,-4.0,-32.0,1650820182039923.0
5.0,-8.0,-29.0,-1.0,1.0,20.0,9.0,11.0,1650820182039923.0
-23.0,-16.0,-59.0,-30.0,18.0,32.0,5.0,17.0,1650820182041852.0
5.0,-6.0,26.0,37.0,9.0,-1.0,15.0,107.0,1650820182041852.0
10.0,-34.0,-73.0,-54.0,-21.0,-46.0,-17.0,-40.0,1650820182062951.0
-45.0,-16.0,-1.0,-23.0,-19.0,7.0,-4.0,2.0,1650820182062951.0
0.0,45.0,45.0,33.0,0.0,9.0,1.0,5.0,1650820182063927.0
18.0,14.0,39.0,18.0,4.0,-1.0,6.0,3.0,1650820182063927.0
-11.0,-14.0,19.0,28.0,1.0,-7.0,1.0,4.0,1650820182077036.0
16.0,-29.0,-36.0,-37.0,-6.0,-12.0,-9.0,-18.0,1650820182077036.0
-23.0,-17.0,-26.0,9.0,17.0,13.0,6.0,9.0,1650820182084873.0
0.0,-8.0,0.0,-20.0,-19.0,-9.0,-9.0,-19.0,1650820182084873.0
15.0,27.0,48.0,34.0,9.0,21.0,12.0,5.0,1650820182099943.0
-2.0,19.0,4.0,0.0,0.0,-11.0,-4.0,-11.0,1650820182099943.0
-5.0,-5.0,-15.0,-25.0,-14.0,-23.0,-4.0,42.0,1650820182101897.0
10.0,6.0,50.0,54.0,20.0,21.0,10.0,2.0,1650820182101897.0
19.0,-22.0,-91.0,-54.0,-2.0,13.0,9.0,13.0,1650820182122994.0
5.0,3.0,50.0,36.0,21.0,20.0,5.0,-61.0,1650820182122994.0
7.0,57.0,17.0,-1.0,4.0,10.0,10.0,20.0,1650820182123951.0
-4.0,-31.0,-43.0,-20.0,-30.0,-39.0,-11.0,-14.0,1650820182123951.0
0.0,55.0,75.0,35.0,15.0,-1.0,-7.0,34.0,1650820182135932.0
0.0,-17.0,15.0,36.0,2.0,9.0,5.0,17.0,1650820182135932.0
15.0,-6.0,32.0,39.0,15.0,7.0,6.0,-12.0,1650820182144991.0
-27.0,-28.0,-49.0,-91.0,-26.0,3.0,-2.0,-10.0,1650820182144991.0
38.0,49.0,77.0,64.0,28.0,32.0,11.0,20.0,1650820182160109.0
-9.0,-15.0,-89.0,-67.0,-19.0,-28.0,-4.0,6.0,1650820182160109.0
1.0,-18.0,19.0,37.0,-7.0,-18.0,-8.0,-26.0,1650820182162046.0
-6.0,-9.0,-32.0,-30.0,-2.0,-9.0,-7.0,14.0,1650820182162046.0
-26.0,0.0,53.0,8.0,0.0,10.0,-4.0,-79.0,1650820182183138.0
-9.0,-26.0,-51.0,-24.0,-11.0,-3.0,-2.0,14.0,1650820182183138.0
-61.0,-16.0,27.0,24.0,13.0,7.0,10.0,-3.0,1650820182184133.0
26.0,-2.0,-48.0,-31.0,-14.0,-17.0,-5.0,63.0,1650820182184133.0
10.0,-34.0,-32.0,-28.0,-16.0,-7.0,-11.0,3.0,1650820182204916.0
-32.0,6.0,48.0,53.0,16.0,7.0,2.0,-8.0,1650820182204916.0
28.0,22.0,-2.0,-37.0,-12.0,-21.0,-1.0,-5.0,1650820182206840.0
-14.0,0.0,42.0,29.0,22.0,30.0,14.0,45.0,1650820182206840.0
8.0,-23.0,-22.0,-37.0,-3.0,6.0,-4.0,-36.0,1650820182219926.0
5.0,-5.0,-62.0,-27.0,-16.0,-40.0,-7.0,11.0,1650820182219926.0
18.0,17.0,2.0,2.0,8.0,33.0,8.0,64.0,1650820182221853.0
-14.0,22.0,56.0,5.0,8.0,21.0,1.0,-73.0,1650820182221853.0
-18.0,-10.0,-28.0,-8.0,-11.0,-22.0,-9.0,42.0,1650820182242908.0
14.0,24.0,29.0,21.0,1.0,2.0,1.0,-28.0,1650820182242908.0
11.0,4.0,29.0,-21.0,-11.0,-28.0,-5.0,2.0,1650820182243868.0
-8.0,-19.0,-47.0,18.0,-7.0,-14.0,-6.0,-29.0,1650820182243868.0
-12.0,2.0,11.0,-26.0,3.0,25.0,4.0,5.0,1650820182256733.0
-5.0,-9.0,32.0,8.0,26.0,21.0,6.0,22.0,1650820182256733.0
-17.0,-1.0,-65.0,-18.0,-12.0,-13.0,-14.0,-73.0,1650820182264934.0
1.0,-8.0,-19.0,-5.0,-18.0,-11.0,-4.0,-18.0,1650820182264934.0
5.0,43.0,80.0,35.0,-1.0,-12.0,-1.0,10.0,1650820182279798.0
19.0,-14.0,-27.0,11.0,-9.0,-20.0,-11.0,9.0,1650820182279798.0
-63.0,20.0,42.0,-3.0,2.0,10.0,0.0,-13.0,1650820182281793.0
5.0,-65.0,-69.0,-47.0,-21.0,-18.0,-14.0,-15.0,1650820182281793.0
7.0,-20.0,22.0,62.0,18.0,13.0,9.0,-15.0,1650820182303115.0
9.0,-7.0,-33.0,-69.0,-10.0,20.0,3.0,4.0,1650820182303115.0
28.0,37.0,81.0,53.0,28.0,14.0,6.0,22.0,1650820182304115.0
-20.0,-18.0,-53.0,-18.0,-3.0,-24.0,-9.0,-20.0,1650820182304115.0
-3.0,-14.0,-61.0,-30.0,-33.0,-16.0,1.0,24.0,1650820182316116.0
-4.0,0.0,60.0,45.0,25.0,29.0,6.0,6.0,1650820182316116.0
19.0,9.0,29.0,-1.0,25.0,6.0,3.0,-8.0,1650820182341921.0
-7.0,-17.0,-15.0,-27.0,-9.0,6.0,3.0,17.0,1650820182341921.0
8.0,0.0,45.0,13.0,4.0,1.0,-4.0,-37.0,1650820182342853.0
-20.0,17.0,-28.0,-20.0,-12.0,-14.0,5.0,19.0,1650820182342853.0
-8.0,-38.0,-25.0,-8.0,-30.0,-32.0,-17.0,-17.0,1650820182345845.0
12.0,33.0,63.0,57.0,32.0,32.0,9.0,-4.0,1650820182345845.0
-15.0,-14.0,-33.0,-45.0,-1.0,5.0,7.0,9.0,1650820182362917.0
19.0,27.0,56.0,45.0,9.0,2.0,-5.0,-24.0,1650820182362917.0
-28.0,-38.0,-41.0,-12.0,-12.0,-14.0,11.0,58.0,1650820182363849.0
43.0,35.0,52.0,43.0,16.0,1.0,2.0,-26.0,1650820182363849.0
43.0,34.0,-65.0,-41.0,6.0,20.0,3.0,1.0,1650820182384920.0
-3.0,-27.0,-16.0,-2.0,-6.0,-11.0,-5.0,-6.0,1650820182384920.0
22.0,23.0,60.0,33.0,3.0,0.0,2.0,-22.0,1650820182386918.0
-19.0,-29.0,-4.0,-24.0,-11.0,15.0,-4.0,6.0,1650820182386918.0
24.0,-26.0,-43.0,10.0,25.0,26.0,13.0,21.0,1650820182399951.0
9.0,15.0,15.0,14.0,16.0,-8.0,1.0,0.0,1650820182399951.0
23.0,29.0,72.0,15.0,-18.0,0.0,3.0,-6.0,1650820182401879.0
-36.0,-56.0,-58.0,-22.0,-26.0,-30.0,-12.0,-3.0,1650820182401879.0
-14.0,22.0,11.0,6.0,5.0,3.0,-6.0,-11.0,1650820182422985.0
-5.0,-46.0,-18.0,-11.0,-13.0,-9.0,-5.0,0.0,1650820182422985.0
11.0,6.0,5.0,4.0,-3.0,-11.0,-4.0,-1.0,1650820182423926.0
13.0,57.0,58.0,43.0,29.0,27.0,8.0,13.0,1650820182423926.0
-34.0,-11.0,-72.0,-52.0,-18.0,-19.0,-9.0,-14.0,1650820182444958.0
-13.0,13.0,6.0,-2.0,-20.0,-10.0,6.0,42.0,1650820182444958.0
-29.0,-41.0,-91.0,-52.0,-8.0,-15.0,-12.0,-25.0,1650820182446886.0
70.0,11.0,69.0,34.0,24.0,26.0,12.0,30.0,1650820182446886.0
-16.0,-22.0,-26.0,24.0,-1.0,7.0,-7.0,1.0,1650820182459926.0
17.0,85.0,114.0,20.0,8.0,12.0,10.0,4.0,1650820182459926.0
-8.0,-23.0,-33.0,-26.0,-14.0,-9.0,-5.0,-19.0,1650820182461854.0
-24.0,-6.0,83.0,37.0,-24.0,-47.0,1.0,14.0,1650820182461854.0
-1.0,-14.0,-28.0,-53.0,-3.0,-2.0,-3.0,82.0,1650820182483101.0
20.0,1.0,4.0,48.0,28.0,42.0,9.0,-20.0,1650820182483101.0
-4.0,10.0,-11.0,-11.0,24.0,30.0,11.0,-5.0,1650820182484071.0
11.0,6.0,-25.0,-20.0,-13.0,-21.0,-6.0,-14.0,1650820182484071.0
7.0,5.0,16.0,11.0,-15.0,-21.0,-4.0,9.0,1650820182504956.0
-20.0,5.0,-26.0,4.0,-9.0,-5.0,-7.0,-12.0,1650820182504956.0
-17.0,-34.0,-108.0,-60.0,-7.0,-4.0,-5.0,8.0,1650820182506883.0
17.0,6.0,-14.0,1.0,-5.0,3.0,-13.0,-52.0,1650820182506883.0
-12.0,23.0,124.0,56.0,16.0,-15.0,12.0,-5.0,1650820182519969.0
-15.0,-1.0,-40.0,-24.0,-11.0,-1.0,-8.0,2.0,1650820182519969.0
25.0,-6.0,1.0,1.0,5.0,14.0,4.0,29.0,1650820182526118.0
-15.0,-19.0,-77.0,-47.0,-11.0,-4.0,-2.0,3.0,1650820182526118.0
0.0,-17.0,-17.0,27.0,-7.0,-6.0,-2.0,0.0,1650820182543141.0
6.0,33.0,96.0,11.0,10.0,-22.0,-2.0,5.0,1650820182543141.0
54.0,-26.0,-59.0,9.0,-2.0,19.0,4.0,58.0,1650820182544141.0
-31.0,-25.0,12.0,0.0,12.0,19.0,1.0,-36.0,1650820182544141.0
3.0,4.0,56.0,32.0,6.0,-4.0,0.0,-14.0,1650820182565554.0
-14.0,-51.0,-123.0,-75.0,-26.0,-31.0,-5.0,1.0,1650820182565554.0
0.0,12.0,77.0,39.0,20.0,18.0,0.0,-10.0,1650820182566522.0
-22.0,-19.0,-27.0,-22.0,4.0,1.0,1.0,14.0,1650820182566522.0
16.0,5.0,-29.0,4.0,6.0,8.0,0.0,-8.0,1650820182579794.0
-15.0,-8.0,14.0,-3.0,-13.0,-4.0,-2.0,-37.0,1650820182579794.0
13.0,78.0,127.0,54.0,20.0,2.0,6.0,-7.0,1650820182586761.0
-14.0,-43.0,-84.0,-26.0,-25.0,-2.0,0.0,-10.0,1650820182586761.0
-15.0,-21.0,-1.0,-27.0,2.0,-5.0,-2.0,19.0,1650820182602220.0
41.0,15.0,39.0,46.0,22.0,27.0,5.0,-19.0,1650820182602220.0
-11.0,3.0,-16.0,-15.0,-13.0,-15.0,-4.0,-11.0,1650820182610201.0
-19.0,-21.0,-43.0,-9.0,-6.0,-1.0,-3.0,-1.0,1650820182610201.0
12.0,17.0,49.0,22.0,-9.0,-18.0,-1.0,4.0,1650820182625336.0
-29.0,-17.0,-83.0,-51.0,9.0,26.0,-6.0,-11.0,1650820182625336.0
-5.0,2.0,18.0,34.0,14.0,28.0,3.0,16.0,1650820182626294.0
55.0,62.0,-10.0,-30.0,29.0,5.0,12.0,6.0,1650820182626294.0
-45.0,-64.0,-101.0,-51.0,-37.0,-23.0,-14.0,-30.0,1650820182639402.0
2.0,64.0,85.0,2.0,-3.0,-9.0,14.0,55.0,1650820182639402.0
8.0,-62.0,-72.0,-36.0,-44.0,-54.0,-15.0,-15.0,1650820182646706.0
-11.0,24.0,82.0,37.0,15.0,22.0,5.0,15.0,1650820182646706.0
6.0,22.0,-18.0,-22.0,6.0,34.0,4.0,15.0,1650820182662564.0
11.0,-32.0,-34.0,11.0,10.0,4.0,1.0,-13.0,1650820182662564.0
-20.0,16.0,23.0,0.0,-5.0,-10.0,1.0,39.0,1650820182664519.0
-6.0,63.0,99.0,44.0,22.0,0.0,2.0,6.0,1650820182664519.0
31.0,31.0,54.0,-18.0,-6.0,-9.0,4.0,61.0,1650820182684660.0
-10.0,-44.0,-92.0,-41.0,-19.0,5.0,-10.0,-27.0,1650820182684660.0
24.0,51.0,74.0,21.0,-14.0,-21.0,-7.0,-3.0,1650820182691598.0
-10.0,-19.0,-99.0,-8.0,7.0,10.0,-4.0,-19.0,1650820182691598.0
-16.0,5.0,52.0,36.0,13.0,17.0,4.0,7.0,1650820182699961.0
13.0,32.0,78.0,25.0,12.0,6.0,13.0,24.0,1650820182699961.0
-28.0,-71.0,-115.0,-73.0,-17.0,-14.0,-14.0,-51.0,1650820182705860.0
-6.0,36.0,43.0,4.0,-9.0,-16.0,-3.0,46.0,1650820182705860.0
5.0,-17.0,-24.0,1.0,10.0,15.0,3.0,-30.0,1650820182722719.0
7.0,10.0,24.0,15.0,0.0,-4.0,-1.0,17.0,1650820182722719.0
-18.0,4.0,19.0,22.0,8.0,8.0,4.0,-14.0,1650820182724676.0
45.0,14.0,75.0,12.0,-16.0,-9.0,3.0,27.0,1650820182724676.0
-5.0,-32.0,-68.0,-18.0,9.0,-3.0,-7.0,-26.0,1650820182745349.0
-39.0,14.0,70.0,17.0,-2.0,-4.0,-1.0,20.0,1650820182745349.0
9.0,14.0,18.0,9.0,12.0,17.0,5.0,8.0,1650820182747358.0
-38.0,-23.0,7.0,6.0,6.0,18.0,4.0,-7.0,1650820182747358.0
34.0,40.0,33.0,-3.0,-1.0,-16.0,2.0,6.0,1650820182759484.0
20.0,13.0,2.0,17.0,-6.0,0.0,2.0,41.0,1650820182759484.0
-9.0,6.0,-23.0,7.0,18.0,5.0,4.0,-22.0,1650820182766756.0
20.0,-18.0,-36.0,12.0,-3.0,2.0,-10.0,-13.0,1650820182766756.0
-57.0,-36.0,-29.0,-54.0,1.0,0.0,1.0,-23.0,1650820182782765.0
21.0,-20.0,4.0,31.0,6.0,2.0,1.0,-3.0,1650820182782765.0
-8.0,-5.0,4.0,-14.0,-28.0,-13.0,-9.0,-11.0,1650820182784715.0
8.0,31.0,52.0,6.0,-5.0,-13.0,-1.0,-7.0,1650820182784715.0
-6.0,-3.0,-6.0,69.0,30.0,17.0,12.0,14.0,1650820182805553.0
21.0,-18.0,-74.0,-71.0,-7.0,-1.0,-4.0,12.0,1650820182805553.0
13.0,-2.0,24.0,36.0,10.0,8.0,9.0,33.0,1650820182806557.0
-45.0,-40.0,-69.0,-46.0,-27.0,-23.0,-18.0,-63.0,1650820182806557.0
41.0,26.0,69.0,19.0,-21.0,-34.0,-2.0,24.0,1650820182819683.0
-26.0,-23.0,-34.0,-10.0,-6.0,5.0,-9.0,-31.0,1650820182819683.0
-4.0,-15.0,10.0,-1.0,18.0,27.0,8.0,-3.0,1650820182826707.0
22.0,18.0,14.0,31.0,12.0,13.0,12.0,63.0,1650820182826707.0
-15.0,6.0,5.0,-11.0,2.0,1.0,0.0,-37.0,1650820182842890.0
3.0,-13.0,-24.0,1.0,0.0,-12.0,-3.0,1.0,1650820182842890.0
-4.0,14.0,-8.0,-19.0,-10.0,-15.0,-5.0,-7.0,1650820182843851.0
-4.0,28.0,57.0,21.0,-9.0,-12.0,-1.0,7.0,1650820182843851.0
-16.0,-48.0,-28.0,-22.0,-1.0,4.0,-8.0,-22.0,1650820182864868.0
3.0,21.0,102.0,64.0,13.0,7.0,0.0,-17.0,1650820182864868.0
2.0,-17.0,-3.0,-6.0,7.0,15.0,2.0,5.0,1650820182866894.0
-23.0,-40.0,-37.0,-39.0,-20.0,-13.0,-3.0,-13.0,1650820182866894.0
23.0,48.0,67.0,59.0,8.0,5.0,9.0,36.0,1650820182878835.0
0.0,-12.0,-26.0,-63.0,-12.0,-12.0,-6.0,-28.0,1650820182878835.0
8.0,-12.0,-45.0,-28.0,-12.0,-24.0,-9.0,6.0,1650820182887492.0
-7.0,-6.0,-4.0,8.0,3.0,10.0,-6.0,-17.0,1650820182887492.0
3.0,14.0,22.0,20.0,14.0,20.0,4.0,3.0,1650820182902521.0
15.0,-37.0,-57.0,-29.0,-9.0,-18.0,0.0,11.0,1650820182902521.0
-20.0,13.0,1.0,-2.0,-5.0,16.0,8.0,1.0,1650820182904475.0
-3.0,-14.0,-29.0,-16.0,1.0,0.0,-1.0,-8.0,1650820182904475.0
-21.0,-37.0,1.0,14.0,15.0,5.0,-6.0,-36.0,1650820182924763.0
-19.0,26.0,75.0,24.0,4.0,1.0,2.0,-9.0,1650820182924763.0
54.0,8.0,-24.0,4.0,-2.0,-15.0,-2.0,35.0,1650820182926691.0
21.0,20.0,-8.0,-6.0,-1.0,0.0,3.0,-2.0,1650820182926691.0
-8.0,8.0,-18.0,-6.0,-15.0,7.0,0.0,-1.0,1650820182938595.0
-23.0,-12.0,-78.0,-31.0,-1.0,-4.0,-1.0,-19.0,1650820182938595.0
-14.0,-6.0,16.0,21.0,-2.0,-6.0,-3.0,17.0,1650820182947518.0
5.0,-9.0,2.0,-11.0,1.0,2.0,-4.0,-17.0,1650820182947518.0
-3.0,-3.0,-14.0,-10.0,-25.0,-24.0,-13.0,-16.0,1650820182963141.0
0.0,31.0,37.0,4.0,-2.0,-9.0,4.0,29.0,1650820182963141.0
-6.0,-5.0,-15.0,7.0,7.0,12.0,-3.0,-32.0,1650820182964147.0
1.0,-9.0,-41.0,-16.0,14.0,16.0,8.0,13.0,1650820182964147.0
5.0,7.0,1.0,-1.0,2.0,-9.0,-3.0,-3.0,1650820182985350.0
7.0,-6.0,-11.0,6.0,-1.0,12.0,-1.0,22.0,1650820182985350.0
-42.0,-39.0,-73.0,-37.0,-13.0,-6.0,-4.0,-25.0,1650820182986309.0
23.0,25.0,114.0,49.0,10.0,-12.0,4.0,13.0,1650820182986309.0
-5.0,-23.0,-17.0,-26.0,-28.0,-14.0,-8.0,-7.0,1650820182999339.0
-4.0,-4.0,-7.0,2.0,4.0,-28.0,-9.0,-16.0,1650820182999339.0
13.0,24.0,26.0,5.0,14.0,40.0,6.0,17.0,1650820183007491.0
-24.0,-45.0,-58.0,-21.0,5.0,21.0,5.0,4.0,1650820183007491.0
-8.0,-9.0,-29.0,-4.0,-7.0,-12.0,-8.0,3.0,1650820183023169.0
7.0,18.0,38.0,34.0,4.0,0.0,3.0,-8.0,1650820183023169.0
7.0,29.0,64.0,10.0,8.0,-6.0,-1.0,-12.0,1650820183024180.0
-25.0,-24.0,-33.0,-10.0,-19.0,-23.0,-11.0,-9.0,1650820183024180.0
3.0,16.0,33.0,12.0,-11.0,-5.0,-3.0,1.0,1650820183044889.0
-12.0,22.0,64.0,35.0,6.0,14.0,-1.0,-47.0,1650820183044889.0
-3.0,-22.0,-59.0,-54.0,5.0,3.0,2.0,-1.0,1650820183046887.0
3.0,12.0,7.0,18.0,5.0,6.0,3.0,9.0,1650820183046887.0
1.0,8.0,-11.0,-20.0,-11.0,-7.0,-1.0,4.0,1650820183067909.0
-4.0,-1.0,3.0,4.0,-5.0,-1.0,-3.0,6.0,1650820183067909.0
7.0,7.0,22.0,7.0,-14.0,-5.0,-2.0,-7.0,1650820183068869.0
7.0,16.0,21.0,1.0,11.0,-3.0,0.0,-4.0,1650820183068869.0
-6.0,-19.0,-12.0,-10.0,11.0,8.0,2.0,10.0,1650820183082874.0
8.0,-1.0,-14.0,7.0,-2.0,10.0,7.0,31.0,1650820183082874.0
20.0,-25.0,-23.0,-14.0,-14.0,-18.0,-12.0,-54.0,1650820183083833.0
-23.0,-6.0,-33.0,-13.0,-14.0,-19.0,-7.0,-4.0,1650820183083833.0
9.0,18.0,15.0,6.0,4.0,5.0,5.0,3.0,1650820183104982.0
3.0,-2.0,0.0,-9.0,6.0,8.0,0.0,7.0,1650820183104982.0
4.0,-2.0,7.0,11.0,5.0,13.0,4.0,11.0,1650820183106910.0
5.0,16.0,11.0,-2.0,-9.0,-11.0,-1.0,4.0,1650820183106910.0
3.0,13.0,9.0,2.0,11.0,14.0,3.0,-10.0,1650820183118886.0
-6.0,-31.0,-38.0,-8.0,9.0,16.0,2.0,-5.0,1650820183118886.0
-16.0,2.0,4.0,7.0,-5.0,-9.0,-1.0,3.0,1650820183127865.0
1.0,-3.0,-7.0,-12.0,-17.0,-22.0,-6.0,-7.0,1650820183127865.0
0.0,14.0,13.0,11.0,8.0,19.0,6.0,0.0,1650820183142978.0
-2.0,-7.0,-23.0,-12.0,6.0,4.0,-2.0,-3.0,1650820183142978.0
-4.0,3.0,8.0,5.0,3.0,1.0,3.0,7.0,1650820183143906.0
4.0,5.0,9.0,1.0,3.0,-1.0,0.0,9.0,1650820183143906.0
4.0,-7.0,-17.0,-6.0,-10.0,-15.0,-6.0,-6.0,1650820183164908.0
-4.0,2.0,1.0,-4.0,-13.0,-2.0,-1.0,-4.0,1650820183164908.0
-2.0,2.0,12.0,7.0,20.0,3.0,-1.0,1.0,1650820183166905.0
2.0,7.0,8.0,1.0,-5.0,1.0,0.0,0.0,1650820183166905.0
-5.0,-2.0,-9.0,-1.0,-5.0,3.0,1.0,-6.0,1650820183178940.0
0.0,-3.0,-12.0,-8.0,11.0,13.0,0.0,-4.0,1650820183178940.0
-5.0,1.0,12.0,5.0,-12.0,-32.0,-3.0,6.0,1650820183187849.0
3.0,0.0,-3.0,-4.0,0.0,18.0,-1.0,1.0,1650820183187849.0
1.0,3.0,-1.0,1.0,1.0,3.0,1.0,-1.0,1650820183203117.0
-1.0,-1.0,-1.0,0.0,6.0,0.0,1.0,4.0,1650820183203117.0
-1.0,-2.0,-3.0,-4.0,-7.0,-23.0,-5.0,0.0,1650820183204118.0
1.0,-3.0,0.0,-2.0,-9.0,-12.0,-5.0,-3.0,1650820183204118.0
-1.0,-1.0,-1.0,-2.0,3.0,10.0,-1.0,-5.0,1650820183225549.0
0.0,3.0,3.0,1.0,10.0,24.0,7.0,2.0,1650820183225549.0
-3.0,3.0,1.0,4.0,10.0,7.0,4.0,3.0,1650820183226560.0
1.0,12.0,5.0,-3.0,-8.0,-11.0,-1.0,-1.0,1650820183226560.0
-2.0,-6.0,0.0,1.0,-6.0,-7.0,-4.0,-2.0,1650820183238584.0
-2.0,-4.0,-7.0,-3.0,0.0,-14.0,-5.0,-2.0,1650820183238584.0
-1.0,-3.0,2.0,3.0,3.0,15.0,1.0,2.0,1650820183247506.0
2.0,0.0,-3.0,-3.0,-9.0,-3.0,2.0,1.0,1650820183247506.0
-1.0,1.0,-4.0,-1.0,6.0,-14.0,-5.0,-1.0,1650820183263627.0
-2.0,0.0,-4.0,-5.0,-15.0,-20.0,-7.0,-4.0,1650820183263627.0
-4.0,-6.0,3.0,2.0,5.0,22.0,2.0,1.0,1650820183265600.0
5.0,1.0,3.0,3.0,15.0,21.0,6.0,1.0,1650820183265600.0
-1.0,-2.0,-2.0,0.0,-1.0,-3.0,3.0,-2.0,1650820183285645.0
-3.0,-4.0,-5.0,-4.0,-12.0,-10.0,1.0,-1.0,1650820183285645.0
-1.0,4.0,4.0,1.0,-6.0,-9.0,-1.0,1.0,1650820183286640.0
-2.0,0.0,-1.0,4.0,9.0,1.0,-1.0,2.0,1650820183286640.0
-2.0,-8.0,-3.0,-1.0,4.0,10.0,-1.0,-2.0,1650820183307997.0
-1.0,-1.0,-2.0,-4.0,-8.0,-12.0,-6.0,-2.0,1650820183307997.0
-1.0,-1.0,-3.0,-1.0,-14.0,1.0,-2.0,-2.0,1650820183309927.0
-3.0,-5.0,0.0,1.0,7.0,0.0,3.0,0.0,1650820183309927.0
3.0,4.0,-4.0,-5.0,11.0,12.0,4.0,3.0,1650820183322958.0
1.0,4.0,8.0,4.0,5.0,15.0,4.0,0.0,1650820183322958.0
-1.0,-1.0,5.0,8.0,3.0,0.0,-1.0,-1.0,1650820183323901.0
0.0,-1.0,-1.0,-3.0,-3.0,-9.0,-2.0,-1.0,1650820183323901.0
0.0,-3.0,-2.0,-6.0,-14.0,-18.0,-5.0,-1.0,1650820183344854.0
-1.0,-6.0,-9.0,-11.0,-9.0,-11.0,-3.0,-1.0,1650820183344854.0
3.0,0.0,-4.0,-3.0,3.0,7.0,-1.0,-1.0,1650820183346845.0
0.0,0.0,3.0,3.0,4.0,5.0,2.0,1.0,1650820183346845.0
0.0,2.0,-1.0,-3.0,1.0,-6.0,0.0,1.0,1650820183368030.0
0.0,-2.0,-1.0,0.0,-1.0,0.0,0.0,-3.0,1650820183368030.0
-2.0,2.0,1.0,-1.0,-1.0,-5.0,-3.0,-2.0,1650820183368962.0
-2.0,-2.0,-3.0,-1.0,-7.0,0.0,0.0,-1.0,1650820183368962.0
1.0,4.0,3.0,3.0,1.0,9.0,2.0,0.0,1650820183381929.0
-2.0,-1.0,-1.0,1.0,12.0,9.0,3.0,0.0,1650820183381929.0
-1.0,1.0,3.0,1.0,5.0,6.0,3.0,3.0,1650820183388974.0
0.0,0.0,-4.0,-4.0,-2.0,-13.0,-4.0,0.0,1650820183388974.0
-1.0,1.0,-1.0,-3.0,-17.0,-17.0,-6.0,-2.0,1650820183405102.0
-1.0,-1.0,2.0,2.0,1.0,9.0,0.0,0.0,1650820183405102.0
0.0,0.0,-2.0,0.0,4.0,6.0,3.0,1.0,1650820183407031.0
-1.0,-1.0,-3.0,-1.0,6.0,6.0,1.0,2.0,1650820183407031.0
0.0,-1.0,-1.0,-1.0,-4.0,-14.0,-3.0,-2.0,1650820183427726.0
-1.0,-1.0,-4.0,-3.0,-8.0,-9.0,-5.0,-2.0,1650820183427726.0
-1.0,-3.0,-2.0,-3.0,6.0,10.0,1.0,0.0,1650820183429724.0
1.0,-1.0,2.0,3.0,2.0,19.0,5.0,-1.0,1650820183429724.0
0.0,-1.0,1.0,3.0,4.0,0.0,1.0,0.0,1650820183443590.0
0.0,1.0,-3.0,-5.0,-9.0,-13.0,-2.0,-1.0,1650820183443590.0
-1.0,1.0,0.0,0.0,-8.0,-10.0,-4.0,-2.0,1650820183444590.0
0.0,2.0,-6.0,-3.0,8.0,6.0,-1.0,-1.0,1650820183444590.0
-2.0,1.0,11.0,8.0,1.0,-9.0,-1.0,-3.0,1650820183464796.0
0.0,-1.0,-2.0,-2.0,-3.0,6.0,1.0,0.0,1650820183464796.0
-2.0,-2.0,-3.0,-2.0,-9.0,-1.0,0.0,-1.0,1650820183466722.0
0.0,-2.0,-1.0,0.0,0.0,-1.0,-1.0,-1.0,1650820183466722.0
0.0,0.0,-5.0,-3.0,0.0,3.0,0.0,0.0,1650820183488057.0
-1.0,-1.0,1.0,-1.0,-12.0,-14.0,-2.0,-2.0,1650820183488057.0
-1.0,1.0,0.0,-2.0,6.0,1.0,-1.0,-1.0,1650820183488817.0
0.0,-2.0,0.0,-1.0,0.0,0.0,0.0,-1.0,1650820183488817.0
0.0,1.0,-2.0,2.0,3.0,10.0,4.0,0.0,1650820183501813.0
0.0,2.0,-2.0,-1.0,6.0,7.0,1.0,-1.0,1650820183501813.0
-1.0,-6.0,-3.0,-2.0,-12.0,-5.0,1.0,0.0,1650820183515896.0
-1.0,1.0,0.0,1.0,7.0,-13.0,-4.0,-2.0,1650820183515896.0
0.0,-5.0,-2.0,-1.0,2.0,8.0,-2.0,-1.0,1650820183525059.0
-2.0,-1.0,-6.0,-4.0,-11.0,-1.0,-2.0,-1.0,1650820183525059.0
-1.0,0.0,0.0,-1.0,0.0,-11.0,-3.0,-1.0,1650820183526986.0
-1.0,-2.0,0.0,-2.0,1.0,-4.0,-3.0,-1.0,1650820183526986.0
-1.0,-1.0,-1.0,0.0,-6.0,18.0,3.0,0.0,1650820183547821.0
1.0,2.0,1.0,0.0,12.0,4.0,4.0,1.0,1650820183547821.0
1.0,2.0,2.0,5.0,11.0,7.0,3.0,0.0,1650820183548821.0
0.0,-2.0,0.0,-1.0,-8.0,-16.0,-1.0,-2.0,1650820183548821.0
-1.0,0.0,-5.0,-5.0,-2.0,-9.0,-6.0,-3.0,1650820183561923.0
-2.0,-1.0,-3.0,-4.0,-11.0,-15.0,-4.0,-2.0,1650820183561923.0
0.0,1.0,-1.0,0.0,-6.0,5.0,-1.0,-1.0,1650820183568904.0
-1.0,-2.0,0.0,0.0,6.0,10.0,2.0,1.0,1650820183568904.0
0.0,0.0,1.0,0.0,2.0,2.0,1.0,-1.0,1650820183585859.0
1.0,0.0,0.0,1.0,0.0,-4.0,1.0,-2.0,1650820183585859.0
-1.0,0.0,-2.0,-4.0,0.0,-11.0,-5.0,-1.0,1650820183590862.0
-1.0,-1.0,-3.0,-2.0,-6.0,0.0,1.0,-3.0,1650820183590862.0
1.0,-2.0,1.0,4.0,1.0,11.0,4.0,2.0,1650820183608075.0
0.0,-1.0,1.0,2.0,10.0,4.0,2.0,0.0,1650820183608075.0
1.0,1.0,-1.0,-2.0,3.0,2.0,2.0,0.0,1650820183609010.0
-1.0,-1.0,-3.0,-2.0,-3.0,-1.0,-4.0,-2.0,1650820183609010.0
-1.0,-1.0,-2.0,-5.0,-7.0,-12.0,-3.0,-2.0,1650820183622040.0
0.0,3.0,0.0,1.0,2.0,-5.0,-1.0,-1.0,1650820183622040.0
-2.0,-9.0,-2.0,1.0,-1.0,15.0,1.0,0.0,1650820183629019.0
-1.0,2.0,3.0,0.0,1.0,5.0,2.0,-1.0,1650820183629019.0
-1.0,1.0,-3.0,-4.0,0.0,-12.0,0.0,1.0,1650820183645599.0
0.0,0.0,3.0,1.0,-5.0,-3.0,-4.0,0.0,1650820183645599.0
0.0,0.0,-2.0,-1.0,-8.0,-7.0,0.0,-1.0,1650820183646599.0
0.0,1.0,0.0,-3.0,-17.0,-19.0,-3.0,-1.0,1650820183646599.0
0.0,0.0,-1.0,2.0,-2.0,5.0,-1.0,-2.0,1650820183667810.0
-1.0,-1.0,0.0,3.0,34.0,27.0,2.0,2.0,1650820183667810.0
1.0,3.0,-1.0,2.0,12.0,17.0,4.0,1.0,1650820183669750.0
0.0,-8.0,-2.0,1.0,2.0,-2.0,1.0,2.0,1650820183669750.0
-1.0,1.0,0.0,-4.0,-15.0,-16.0,-1.0,0.0,1650820183681773.0
-2.0,-5.0,-1.0,-5.0,-18.0,-12.0,-3.0,-2.0,1650820183681773.0
-1.0,-1.0,0.0,-3.0,2.0,3.0,-1.0,-3.0,1650820183688755.0
0.0,3.0,-2.0,-5.0,-9.0,-6.0,-2.0,-2.0,1650820183688755.0
-1.0,1.0,-1.0,1.0,6.0,2.0,-2.0,0.0,1650820183705649.0
2.0,0.0,-1.0,3.0,9.0,9.0,3.0,0.0,1650820183705649.0
-1.0,2.0,1.0,3.0,11.0,0.0,-1.0,0.0,1650820183706641.0
-1.0,0.0,1.0,-1.0,-5.0,2.0,1.0,0.0,1650820183706641.0
-2.0,-2.0,-1.0,-2.0,-4.0,-2.0,0.0,-2.0,1650820183728108.0
-1.0,-4.0,-3.0,-2.0,-14.0,-8.0,-2.0,0.0,1650820183728108.0
-2.0,2.0,-2.0,-4.0,-9.0,-15.0,-4.0,0.0,1650820183728823.0
-1.0,0.0,-1.0,1.0,-2.0,-3.0,1.0,0.0,1650820183728823.0
0.0,0.0,0.0,4.0,24.0,28.0,2.0,-1.0,1650820183742490.0
-1.0,0.0,0.0,-1.0,2.0,14.0,3.0,-1.0,1650820183742490.0
1.0,-1.0,0.0,-4.0,-8.0,-14.0,-1.0,0.0,1650820183748861.0
1.0,-2.0,-1.0,-1.0,-8.0,-15.0,-5.0,-3.0,1650820183748861.0
0.0,-3.0,-1.0,-3.0,-7.0,-13.0,-6.0,-1.0,1650820183764883.0
-1.0,0.0,-1.0,2.0,1.0,15.0,2.0,-2.0,1650820183764883.0
-2.0,5.0,4.0,4.0,9.0,5.0,2.0,2.0,1650820183766839.0
0.0,-4.0,-1.0,2.0,8.0,8.0,2.0,1.0,1650820183766839.0
-1.0,0.0,1.0,1.0,4.0,0.0,1.0,1.0,1650820183787038.0
-2.0,0.0,-2.0,-6.0,-12.0,-12.0,-5.0,0.0,1650820183787038.0
-2.0,-3.0,-5.0,-6.0,-15.0,-12.0,-7.0,-2.0,1650820183794257.0
-2.0,-1.0,-2.0,-2.0,-4.0,-14.0,-4.0,-3.0,1650820183794257.0
-1.0,-1.0,2.0,0.0,-7.0,5.0,-2.0,-2.0,1650820183800859.0
0.0,1.0,1.0,3.0,17.0,16.0,4.0,1.0,1650820183800859.0
0.0,-1.0,3.0,1.0,-13.0,-6.0,3.0,-1.0,1650820183809966.0
0.0,3.0,2.0,3.0,17.0,12.0,2.0,0.0,1650820183809966.0
2.0,0.0,-1.0,1.0,18.0,22.0,4.0,0.0,1650820183825657.0
-1.0,0.0,2.0,-1.0,-8.0,-9.0,0.0,-1.0,1650820183825657.0
0.0,-2.0,-4.0,-4.0,-2.0,-6.0,-4.0,0.0,1650820183826657.0
-2.0,-2.0,-4.0,-6.0,-16.0,-12.0,-3.0,-2.0,1650820183826657.0
-4.0,-2.0,-1.0,-2.0,-11.0,-19.0,-3.0,-1.0,1650820183848082.0
-1.0,-1.0,-3.0,-3.0,0.0,-3.0,-1.0,-1.0,1650820183848082.0
-2.0,0.0,0.0,3.0,-3.0,10.0,2.0,-1.0,1650820183848820.0
1.0,1.0,0.0,1.0,11.0,11.0,3.0,-1.0,1650820183848820.0
-1.0,1.0,-1.0,-1.0,1.0,-9.0,-1.0,0.0,1650820183878107.0
1.0,-1.0,-1.0,-3.0,-8.0,-11.0,-6.0,-2.0,1650820183878107.0
-1.0,-1.0,-2.0,-2.0,-1.0,3.0,0.0,-1.0,1650820183878790.0
0.0,-2.0,1.0,0.0,7.0,19.0,4.0,1.0,1650820183878790.0
1.0,0.0,2.0,4.0,13.0,12.0,4.0,2.0,1650820183884800.0
0.0,-1.0,-1.0,-2.0,-8.0,-15.0,-1.0,-1.0,1650820183884800.0
0.0,-3.0,-2.0,-6.0,-10.0,-18.0,-4.0,-2.0,1650820183886772.0
-1.0,-2.0,-2.0,-2.0,-11.0,-12.0,-6.0,-3.0,1650820183886772.0
-1.0,2.0,-1.0,-3.0,-6.0,-15.0,-2.0,0.0,1650820183907933.0
-1.0,-2.0,1.0,2.0,-2.0,16.0,0.0,0.0,1650820183907933.0
2.0,2.0,0.0,6.0,34.0,35.0,6.0,1.0,1650820183908864.0
1.0,-2.0,3.0,5.0,13.0,15.0,6.0,2.0,1650820183908864.0
0.0,-2.0,-1.0,-5.0,-11.0,-17.0,0.0,0.0,1650820183921861.0
0.0,-1.0,-2.0,-2.0,-11.0,-16.0,-5.0,-1.0,1650820183921861.0
-2.0,-4.0,-2.0,-7.0,-23.0,-18.0,-5.0,-1.0,1650820183930775.0
-2.0,-4.0,-2.0,-2.0,-2.0,-1.0,-4.0,-2.0,1650820183930775.0
-1.0,0.0,1.0,3.0,8.0,2.0,-3.0,-3.0,1650820183944911.0
0.0,-1.0,0.0,1.0,8.0,8.0,3.0,0.0,1650820183944911.0
2.0,0.0,0.0,2.0,9.0,10.0,0.0,0.0,1650820183944911.0
-1.0,2.0,-1.0,-4.0,-5.0,-2.0,0.0,0.0,1650820183944911.0
-1.0,-5.0,-4.0,-5.0,-16.0,-14.0,-3.0,-2.0,1650820183967499.0
-1.0,-2.0,-2.0,0.0,0.0,-8.0,-3.0,-1.0,1650820183967499.0
0.0,-2.0,-2.0,3.0,10.0,10.0,1.0,-1.0,1650820183967499.0
0.0,1.0,2.0,3.0,7.0,14.0,4.0,2.0,1650820183967499.0
0.0,5.0,2.0,0.0,-7.0,-8.0,-2.0,0.0,1650820183989685.0
-1.0,-3.0,-1.0,1.0,2.0,-1.0,-2.0,-3.0,1650820183989685.0
-1.0,-1.0,-1.0,-1.0,1.0,-3.0,-2.0,0.0,1650820183997490.0
1.0,-1.0,0.0,1.0,-2.0,-8.0,-2.0,-2.0,1650820183997490.0
-1.0,0.0,-3.0,-3.0,-19.0,-6.0,-1.0,0.0,1650820184004541.0
-2.0,1.0,0.0,-1.0,-3.0,4.0,-2.0,0.0,1650820184004541.0
0.0,0.0,0.0,5.0,4.0,8.0,2.0,2.0,1650820184005471.0
1.0,2.0,3.0,7.0,35.0,24.0,6.0,2.0,1650820184005471.0
1.0,0.0,-1.0,1.0,8.0,3.0,3.0,2.0,1650820184026747.0
-1.0,2.0,-1.0,-5.0,-16.0,-19.0,-2.0,0.0,1650820184026747.0
-2.0,-1.0,-1.0,-5.0,-17.0,-9.0,-3.0,-4.0,1650820184027678.0
-3.0,0.0,-4.0,-4.0,-14.0,-10.0,-4.0,-3.0,1650820184027678.0
-1.0,-4.0,-1.0,-2.0,2.0,1.0,-1.0,-2.0,1650820184049695.0
0.0,2.0,0.0,0.0,-2.0,-2.0,-1.0,-1.0,1650820184049695.0
1.0,3.0,2.0,3.0,3.0,4.0,1.0,-1.0,1650820184050617.0
-1.0,-7.0,0.0,3.0,12.0,10.0,2.0,0.0,1650820184050617.0
2.0,0.0,0.0,3.0,15.0,21.0,5.0,-1.0,1650820184064886.0
1.0,2.0,-2.0,-1.0,1.0,0.0,1.0,0.0,1650820184064886.0
-2.0,-1.0,-4.0,-6.0,-14.0,-24.0,-6.0,-2.0,1650820184064886.0
-2.0,-5.0,-3.0,-5.0,-27.0,-19.0,-6.0,-2.0,1650820184064886.0
-4.0,-3.0,0.0,-1.0,0.0,-26.0,-7.0,-2.0,1650820184086994.0
0.0,-2.0,-1.0,3.0,5.0,27.0,3.0,-1.0,1650820184086994.0
0.0,-1.0,1.0,3.0,22.0,25.0,5.0,-1.0,1650820184087926.0
0.0,4.0,1.0,3.0,7.0,8.0,3.0,0.0,1650820184087926.0
1.0,0.0,1.0,2.0,2.0,6.0,4.0,1.0,1650820184109936.0
-2.0,0.0,0.0,-3.0,-10.0,-22.0,-1.0,-2.0,1650820184109936.0
-3.0,1.0,-1.0,-6.0,-16.0,-26.0,-8.0,-1.0,1650820184109936.0
-3.0,-7.0,-7.0,-7.0,-7.0,-10.0,-6.0,-1.0,1650820184109936.0
-2.0,0.0,2.0,2.0,-6.0,6.0,-1.0,-2.0,1650820184124792.0
3.0,0.0,2.0,7.0,18.0,13.0,6.0,1.0,1650820184124792.0
3.0,0.0,2.0,5.0,25.0,27.0,8.0,2.0,1650820184124792.0
0.0,3.0,0.0,-2.0,-5.0,-5.0,-1.0,0.0,1650820184124792.0
-1.0,-3.0,-2.0,-5.0,-10.0,-3.0,-2.0,-2.0,1650820184146848.0
-3.0,-2.0,-3.0,-5.0,-8.0,-7.0,-4.0,-2.0,1650820184146848.0
-2.0,-2.0,-2.0,-4.0,-16.0,-21.0,-6.0,-2.0,1650820184147779.0
0.0,2.0,0.0,-4.0,-21.0,-26.0,-8.0,-3.0,1650820184147779.0
0.0,1.0,1.0,5.0,2.0,14.0,3.0,-1.0,1650820184169875.0
0.0,-1.0,6.0,9.0,47.0,49.0,10.0,3.0,1650820184169875.0
1.0,-1.0,1.0,2.0,6.0,9.0,4.0,1.0,1650820184169875.0
1.0,2.0,1.0,-2.0,-5.0,-6.0,1.0,2.0,1650820184169875.0
1.0,-1.0,-6.0,-6.0,-14.0,-10.0,-3.0,0.0,1650820184184870.0
-1.0,-2.0,-3.0,-2.0,-18.0,-27.0,-7.0,-4.0,1650820184184870.0
0.0,-2.0,0.0,-2.0,-7.0,-6.0,-3.0,-3.0,1650820184184870.0
-1.0,2.0,1.0,-1.0,0.0,7.0,-1.0,-2.0,1650820184184870.0
-2.0,1.0,-1.0,-1.0,2.0,-8.0,-2.0,-2.0,1650820184207489.0
-3.0,-2.0,0.0,-2.0,-1.0,8.0,0.0,-1.0,1650820184207489.0
0.0,1.0,1.0,3.0,-3.0,-7.0,0.0,1.0,1650820184207489.0
0.0,-2.0,1.0,4.0,12.0,25.0,6.0,0.0,1650820184207489.0
2.0,1.0,2.0,2.0,17.0,24.0,7.0,2.0,1650820184229005.0
1.0,1.0,0.0,-1.0,1.0,-10.0,0.0,2.0,1650820184229005.0
-2.0,-3.0,-3.0,-4.0,-10.0,-14.0,-5.0,-2.0,1650820184230000.0
-1.0,1.0,-2.0,-3.0,-11.0,-15.0,-3.0,-2.0,1650820184230000.0
-3.0,-2.0,-4.0,-2.0,-3.0,-2.0,-5.0,-2.0,1650820184244987.0
1.0,-3.0,-6.0,-3.0,-13.0,-10.0,-3.0,-1.0,1650820184244987.0
-1.0,2.0,-2.0,-4.0,-19.0,-22.0,-4.0,-2.0,1650820184244987.0
-3.0,1.0,2.0,3.0,6.0,2.0,2.0,-2.0,1650820184244987.0
1.0,0.0,2.0,9.0,32.0,37.0,6.0,1.0,1650820184266742.0
0.0,1.0,1.0,3.0,13.0,16.0,7.0,2.0,1650820184266742.0
1.0,-3.0,0.0,-2.0,4.0,-4.0,-1.0,-1.0,1650820184267743.0
-1.0,0.0,-3.0,-6.0,-18.0,-13.0,-3.0,0.0,1650820184267743.0
-1.0,-3.0,-1.0,-4.0,-17.0,-17.0,-6.0,0.0,1650820184289884.0
-2.0,3.0,0.0,-2.0,-2.0,-7.0,-2.0,-2.0,1650820184289884.0
-1.0,-1.0,-2.0,-1.0,0.0,-9.0,-3.0,-1.0,1650820184289884.0
-1.0,-1.0,1.0,-2.0,-1.0,11.0,-2.0,-1.0,1650820184289884.0
-2.0,-1.0,2.0,3.0,4.0,7.0,4.0,1.0,1650820184304844.0
0.0,1.0,1.0,1.0,4.0,-1.0,1.0,0.0,1650820184304844.0
1.0,1.0,0.0,0.0,2.0,0.0,1.0,1.0,1650820184304844.0
-1.0,0.0,-2.0,-1.0,1.0,2.0,0.0,0.0,1650820184304844.0
1.0,-6.0,-4.0,0.0,-2.0,0.0,-3.0,0.0,1650820184326973.0
0.0,0.0,-2.0,-2.0,-4.0,-3.0,-3.0,-2.0,1650820184326973.0
-1.0,-3.0,-1.0,-1.0,0.0,-12.0,-2.0,-2.0,1650820184327973.0
-1.0,-2.0,-2.0,-1.0,0.0,4.0,-2.0,-2.0,1650820184327973.0
-1.0,-1.0,1.0,-4.0,-16.0,-16.0,-3.0,0.0,1650820184349891.0
-2.0,0.0,-1.0,1.0,4.0,2.0,-2.0,0.0,1650820184349891.0
1.0,0.0,1.0,5.0,24.0,35.0,6.0,1.0,1650820184349891.0
3.0,4.0,0.0,1.0,3.0,-1.0,5.0,3.0,1650820184349891.0
0.0,0.0,0.0,-2.0,-4.0,-11.0,-4.0,-3.0,1650820184364843.0
-3.0,-1.0,-1.0,-5.0,-27.0,-17.0,-5.0,-4.0,1650820184364843.0
0.0,0.0,1.0,2.0,17.0,12.0,-1.0,-3.0,1650820184364843.0
0.0,0.0,0.0,2.0,8.0,8.0,1.0,-1.0,1650820184364843.0
1.0,2.0,1.0,3.0,5.0,-7.0,3.0,1.0,1650820184387488.0
-1.0,0.0,-1.0,-4.0,-13.0,-2.0,-4.0,-1.0,1650820184387488.0
-4.0,-1.0,0.0,-4.0,-15.0,-10.0,-4.0,1.0,1650820184387488.0
-2.0,-2.0,0.0,0.0,2.0,4.0,-1.0,0.0,1650820184387488.0
-2.0,1.0,-2.0,0.0,1.0,0.0,-1.0,1.0,1650820184409746.0
1.0,1.0,1.0,2.0,7.0,1.0,2.0,1.0,1650820184409746.0
0.0,-1.0,-2.0,-1.0,-4.0,3.0,1.0,0.0,1650820184410701.0
0.0,-2.0,-1.0,-1.0,-3.0,-4.0,-3.0,-2.0,1650820184410701.0
-1.0,1.0,-2.0,-1.0,-3.0,-3.0,-1.0,-1.0,1650820184425649.0
1.0,-1.0,0.0,1.0,2.0,1.0,0.0,1.0,1650820184425649.0
-2.0,0.0,-2.0,-2.0,-6.0,-5.0,-1.0,-1.0,1650820184426643.0
1.0,0.0,0.0,4.0,4.0,8.0,0.0,0.0,1650820184426643.0
0.0,1.0,0.0,0.0,1.0,11.0,0.0,-2.0,1650820184446767.0
-2.0,-2.0,-1.0,0.0,1.0,-8.0,-1.0,-1.0,1650820184446767.0
0.0,3.0,0.0,-2.0,-9.0,-1.0,-1.0,0.0,1650820184447711.0
-3.0,-2.0,-1.0,-5.0,-12.0,-23.0,-9.0,-2.0,1650820184447711.0
-1.0,0.0,-1.0,1.0,12.0,16.0,1.0,-2.0,1650820184469857.0
1.0,-3.0,0.0,5.0,15.0,15.0,5.0,2.0,1650820184469857.0
-1.0,-5.0,0.0,4.0,8.0,7.0,4.0,1.0,1650820184469857.0
1.0,1.0,-1.0,-3.0,-17.0,-11.0,-3.0,-1.0,1650820184469857.0
0.0,-2.0,-3.0,-1.0,11.0,11.0,-2.0,-3.0,1650820184484817.0
0.0,0.0,0.0,-3.0,-4.0,-7.0,-1.0,-3.0,1650820184484817.0
0.0,-1.0,1.0,0.0,-3.0,4.0,1.0,-1.0,1650820184484817.0
-1.0,-1.0,0.0,0.0,6.0,3.0,3.0,0.0,1650820184484817.0
-1.0,-2.0,0.0,-4.0,-10.0,-11.0,0.0,0.0,1650820184507077.0
0.0,-1.0,-6.0,-5.0,-4.0,-15.0,-6.0,-1.0,1650820184507077.0
-1.0,-1.0,-2.0,0.0,-5.0,-3.0,0.0,-1.0,1650820184508077.0
1.0,1.0,2.0,2.0,3.0,10.0,3.0,0.0,1650820184508077.0
-3.0,1.0,1.0,2.0,-1.0,-2.0,-2.0,0.0,1650820184529937.0
2.0,-1.0,0.0,1.0,10.0,4.0,1.0,0.0,1650820184529937.0
-1.0,-2.0,-3.0,-4.0,-12.0,-15.0,-3.0,0.0,1650820184529937.0
-1.0,0.0,-4.0,-3.0,4.0,-14.0,-4.0,-3.0,1650820184529937.0
-2.0,-2.0,-1.0,-3.0,-10.0,4.0,0.0,-2.0,1650820184544991.0
1.0,2.0,-1.0,1.0,2.0,10.0,2.0,-2.0,1650820184544991.0
1.0,-1.0,2.0,7.0,18.0,21.0,5.0,3.0,1650820184544991.0
1.0,1.0,1.0,5.0,11.0,9.0,4.0,2.0,1650820184544991.0
0.0,1.0,-1.0,-4.0,-9.0,-15.0,-2.0,-1.0,1650820184567310.0
-1.0,-3.0,-2.0,-4.0,-15.0,-14.0,-4.0,-1.0,1650820184567310.0
-2.0,-1.0,-3.0,-3.0,-2.0,-3.0,-4.0,-3.0,1650820184568032.0
0.0,-1.0,0.0,1.0,2.0,5.0,2.0,2.0,1650820184568032.0
2.0,0.0,-1.0,3.0,10.0,-1.0,0.0,1.0,1650820184589883.0
0.0,0.0,1.0,-1.0,0.0,6.0,5.0,0.0,1650820184589883.0
0.0,2.0,2.0,-1.0,0.0,16.0,2.0,0.0,1650820184589883.0
-1.0,-2.0,-3.0,-3.0,-8.0,-9.0,-2.0,-3.0,1650820184589883.0
2.0,-5.0,-3.0,-3.0,-9.0,-16.0,-3.0,-1.0,1650820184604889.0
-2.0,-1.0,-1.0,-2.0,-7.0,-15.0,-6.0,-2.0,1650820184604889.0
0.0,-1.0,3.0,3.0,1.0,-1.0,-1.0,-1.0,1650820184604889.0
-2.0,-2.0,-3.0,0.0,-1.0,5.0,-1.0,-2.0,1650820184604889.0
-1.0,0.0,0.0,2.0,7.0,13.0,2.0,1.0,1650820184627488.0
-1.0,-3.0,-3.0,2.0,5.0,5.0,1.0,0.0,1650820184627488.0
0.0,-1.0,-4.0,-4.0,-7.0,-11.0,0.0,-2.0,1650820184627488.0
0.0,-1.0,0.0,-3.0,-3.0,-6.0,-2.0,0.0,1650820184627488.0
-1.0,0.0,0.0,-1.0,-8.0,-10.0,-2.0,-1.0,1650820184649160.0
-3.0,-2.0,-1.0,0.0,-4.0,8.0,0.0,0.0,1650820184649160.0
-1.0,3.0,1.0,1.0,0.0,4.0,-1.0,1.0,1650820184650085.0
0.0,-3.0,1.0,2.0,20.0,9.0,0.0,1.0,1650820184650085.0
-1.0,0.0,1.0,0.0,-3.0,15.0,2.0,1.0,1650820184664312.0
2.0,0.0,2.0,2.0,8.0,0.0,1.0,0.0,1650820184664312.0
-1.0,0.0,-3.0,-2.0,-18.0,-13.0,-3.0,-1.0,1650820184665243.0
-3.0,-1.0,-1.0,0.0,4.0,-4.0,-1.0,-2.0,1650820184665243.0
0.0,-1.0,-1.0,-4.0,1.0,2.0,-1.0,-1.0,1650820184687432.0
1.0,-4.0,-5.0,-5.0,-13.0,-4.0,-1.0,-1.0,1650820184687432.0
2.0,3.0,-1.0,-5.0,2.0,-1.0,-1.0,-1.0,1650820184687432.0
-2.0,1.0,9.0,9.0,-12.0,-6.0,-2.0,-1.0,1650820184687432.0
-1.0,-2.0,1.0,2.0,7.0,0.0,-1.0,-3.0,1650820184709911.0
-4.0,3.0,4.0,4.0,6.0,6.0,-2.0,2.0,1650820184709911.0
-1.0,0.0,1.0,4.0,1.0,-1.0,-1.0,-7.0,1650820184709911.0
8.0,-2.0,-7.0,-10.0,-4.0,-4.0,2.0,1.0,1650820184709911.0
-3.0,2.0,-2.0,2.0,0.0,9.0,0.0,0.0,1650820184724908.0
2.0,4.0,1.0,-4.0,0.0,4.0,5.0,13.0,1650820184724908.0
15.0,-3.0,-1.0,1.0,6.0,-3.0,1.0,12.0,1650820184724908.0
-6.0,2.0,6.0,1.0,-8.0,-6.0,-5.0,-15.0,1650820184724908.0
1.0,-5.0,-10.0,-6.0,-18.0,-12.0,-6.0,-2.0,1650820184747431.0
-13.0,10.0,32.0,15.0,3.0,-12.0,-3.0,-5.0,1650820184747431.0
5.0,2.0,-11.0,-3.0,6.0,9.0,3.0,16.0,1650820184747752.0
-9.0,-6.0,-26.0,-15.0,14.0,33.0,9.0,22.0,1650820184747752.0
13.0,-6.0,-17.0,-17.0,12.0,15.0,2.0,-23.0,1650820184769685.0
5.0,7.0,-13.0,-2.0,-11.0,-10.0,-7.0,-26.0,1650820184769685.0
-14.0,24.0,28.0,29.0,-9.0,-20.0,-3.0,1.0,1650820184777494.0
5.0,-1.0,31.0,4.0,-1.0,-12.0,-6.0,-7.0,1650820184777494.0
-30.0,-7.0,-29.0,-20.0,-11.0,-7.0,-4.0,-26.0,1650820184784485.0
-10.0,6.0,19.0,24.0,4.0,4.0,2.0,-2.0,1650820184784485.0
-8.0,-7.0,2.0,-7.0,2.0,0.0,3.0,41.0,1650820184785502.0
49.0,5.0,-39.0,-23.0,-8.0,-2.0,-12.0,-32.0,1650820184785502.0
-33.0,7.0,24.0,39.0,0.0,-16.0,5.0,51.0,1650820184806807.0
42.0,-13.0,-58.0,-70.0,-7.0,5.0,15.0,83.0,1650820184806807.0
-89.0,-20.0,63.0,73.0,27.0,32.0,-3.0,-113.0,1650820184807744.0
6.0,-56.0,-47.0,-43.0,-11.0,-10.0,-4.0,42.0,1650820184807744.0
17.0,40.0,82.0,32.0,13.0,0.0,-6.0,-42.0,1650820184829830.0
3.0,-48.0,-89.0,-28.0,-14.0,-12.0,-4.0,6.0,1650820184829830.0
13.0,37.0,45.0,-15.0,-6.0,-17.0,2.0,37.0,1650820184830759.0
-6.0,14.0,43.0,48.0,16.0,21.0,10.0,0.0,1650820184830759.0
20.0,23.0,12.0,-37.0,1.0,5.0,1.0,17.0,1650820184843808.0
-23.0,-15.0,-11.0,13.0,-3.0,-3.0,-5.0,-10.0,1650820184843808.0
38.0,12.0,33.0,32.0,8.0,12.0,8.0,0.0,1650820184852492.0
-41.0,-34.0,-89.0,-69.0,-36.0,-32.0,-19.0,-25.0,1650820184852492.0
9.0,-13.0,-16.0,33.0,20.0,10.0,9.0,15.0,1650820184867356.0
11.0,37.0,67.0,14.0,0.0,6.0,3.0,16.0,1650820184867356.0
