EMG_s0,EMG_s1,EMG_s2,EMG_s3,EMG_s4,EMG_s5,EMG_s6,EMG_s7,timestamp
1.0,1.0,2.0,2.0,4.0,-1.0,-1.0,1.0,1650822949758727.0
-2.0,-1.0,-2.0,-4.0,-8.0,-3.0,0.0,-1.0,1650822949758727.0
-1.0,0.0,1.0,1.0,4.0,0.0,-1.0,-3.0,1650822949759717.0
-2.0,-4.0,-2.0,-3.0,15.0,0.0,-1.0,-3.0,1650822949759717.0
-3.0,-4.0,-5.0,-2.0,-20.0,-2.0,0.0,0.0,1650822949760720.0
1.0,2.0,2.0,7.0,4.0,1.0,1.0,0.0,1650822949760720.0
0.0,0.0,-3.0,-5.0,-1.0,1.0,-2.0,-1.0,1650822949761723.0
-1.0,0.0,1.0,1.0,2.0,1.0,2.0,1.0,1650822949761723.0
-1.0,2.0,-1.0,-2.0,2.0,-3.0,0.0,-1.0,1650822949770687.0
-2.0,-3.0,-1.0,-3.0,-6.0,-2.0,0.0,1.0,1650822949770687.0
-3.0,-4.0,-3.0,-2.0,1.0,0.0,0.0,0.0,1650822949775710.0
-1.0,5.0,2.0,2.0,21.0,9.0,3.0,0.0,1650822949775710.0
2.0,1.0,5.0,4.0,-15.0,-1.0,-2.0,1.0,1650822949785675.0
3.0,1.0,1.0,3.0,-2.0,-3.0,1.0,0.0,1650822949785675.0
1.0,4.0,7.0,1.0,-1.0,-2.0,1.0,2.0,1650822949799610.0
-1.0,-2.0,1.0,5.0,-6.0,0.0,-1.0,-2.0,1650822949799610.0
-1.0,0.0,-3.0,-6.0,6.0,0.0,0.0,-2.0,1650822949807589.0
1.0,-4.0,-7.0,-6.0,0.0,-2.0,-1.0,-1.0,1650822949807589.0
0.0,0.0,1.0,-4.0,-5.0,-2.0,0.0,0.0,1650822949821578.0
1.0,-2.0,-4.0,-3.0,-7.0,-2.0,-1.0,2.0,1650822949821578.0
-1.0,2.0,3.0,1.0,2.0,2.0,-1.0,-1.0,1650822949828560.0
-3.0,-1.0,1.0,-2.0,1.0,5.0,-1.0,0.0,1650822949828560.0
-2.0,-6.0,-1.0,5.0,15.0,1.0,0.0,0.0,1650822949843493.0
3.0,1.0,2.0,-2.0,-18.0,1.0,-1.0,-1.0,1650822949843493.0
2.0,8.0,3.0,3.0,7.0,-5.0,2.0,0.0,1650822949844491.0
-1.0,-6.0,1.0,2.0,4.0,2.0,0.0,0.0,1650822949844491.0
0.0,4.0,0.0,-2.0,-1.0,-1.0,-3.0,-1.0,1650822949890394.0
-4.0,-1.0,-2.0,-2.0,4.0,0.0,-1.0,0.0,1650822949890394.0
-2.0,0.0,2.0,3.0,2.0,2.0,-1.0,0.0,1650822949891394.0
-1.0,0.0,0.0,1.0,0.0,0.0,-1.0,-1.0,1650822949891394.0
0.0,0.0,0.0,-1.0,-4.0,0.0,1.0,1.0,1650822949891394.0
0.0,-4.0,0.0,-1.0,-1.0,2.0,0.0,0.0,1650822949891394.0
0.0,1.0,0.0,-3.0,0.0,-1.0,0.0,0.0,1650822949895354.0
-2.0,-4.0,-6.0,-2.0,-2.0,-3.0,-1.0,1.0,1650822949895354.0
-2.0,-1.0,0.0,-1.0,10.0,-3.0,-2.0,-1.0,1650822949902335.0
0.0,1.0,-3.0,-5.0,-17.0,-4.0,-2.0,1.0,1650822949902335.0
-3.0,-2.0,0.0,2.0,1.0,1.0,1.0,-1.0,1650822949911312.0
0.0,3.0,3.0,5.0,2.0,3.0,1.0,1.0,1650822949911312.0
-1.0,-1.0,0.0,2.0,2.0,2.0,0.0,-1.0,1650822949925301.0
1.0,2.0,-1.0,3.0,8.0,1.0,0.0,-1.0,1650822949925301.0
-1.0,-5.0,-5.0,-6.0,-3.0,-1.0,-4.0,-2.0,1650822949932276.0
-2.0,0.0,-1.0,-3.0,9.0,-3.0,-3.0,-1.0,1650822949932276.0
-2.0,-3.0,-2.0,-5.0,-17.0,-4.0,-3.0,-2.0,1650822949940265.0
0.0,2.0,9.0,9.0,3.0,0.0,2.0,0.0,1650822949940265.0
2.0,3.0,-1.0,1.0,-5.0,1.0,-1.0,0.0,1650822949963752.0
-3.0,-9.0,-3.0,-10.0,-1.0,-1.0,-3.0,-3.0,1650822949963752.0
-2.0,-6.0,-4.0,0.0,2.0,1.0,-1.0,1.0,1650822949963752.0
-2.0,0.0,-5.0,-4.0,0.0,1.0,-3.0,-2.0,1650822949963752.0
-1.0,-3.0,-2.0,1.0,2.0,2.0,2.0,-1.0,1650822949978774.0
0.0,3.0,1.0,-1.0,-8.0,-5.0,1.0,0.0,1650822949978774.0
0.0,1.0,-2.0,-1.0,-4.0,-4.0,-1.0,-2.0,1650822949978774.0
0.0,-5.0,-1.0,-5.0,0.0,2.0,-2.0,1.0,1650822949978774.0
-1.0,3.0,3.0,4.0,6.0,2.0,2.0,-1.0,1650822950000933.0
2.0,2.0,-1.0,5.0,1.0,3.0,1.0,3.0,1650822950000933.0
0.0,-2.0,3.0,-1.0,-3.0,1.0,1.0,0.0,1650822950001891.0
1.0,2.0,-1.0,-3.0,0.0,-3.0,-2.0,0.0,1650822950001891.0
-1.0,-3.0,-2.0,-4.0,-1.0,-6.0,-3.0,-1.0,1650822950031880.0
0.0,-5.0,-4.0,0.0,-15.0,-2.0,-1.0,-1.0,1650822950031880.0
-2.0,4.0,-2.0,-3.0,8.0,4.0,1.0,-2.0,1650822950031880.0
0.0,2.0,0.0,1.0,-4.0,-2.0,0.0,-1.0,1650822950031880.0
0.0,-2.0,-1.0,-3.0,-3.0,-3.0,0.0,-1.0,1650822950037807.0
1.0,1.0,2.0,2.0,3.0,-2.0,-1.0,-1.0,1650822950037807.0
0.0,-1.0,1.0,6.0,10.0,0.0,0.0,0.0,1650822950038777.0
1.0,-1.0,3.0,2.0,-14.0,1.0,2.0,-1.0,1650822950038777.0
0.0,2.0,3.0,1.0,1.0,1.0,1.0,0.0,1650822950061014.0
0.0,0.0,-3.0,0.0,4.0,2.0,1.0,2.0,1650822950061014.0
0.0,0.0,0.0,1.0,-3.0,-1.0,-1.0,1.0,1650822950061944.0
-3.0,-7.0,-2.0,-8.0,7.0,-1.0,-3.0,-1.0,1650822950061944.0
-2.0,-2.0,-4.0,-5.0,-19.0,-11.0,-2.0,0.0,1650822950083683.0
2.0,-2.0,2.0,5.0,10.0,2.0,1.0,-1.0,1650822950083683.0
0.0,0.0,2.0,3.0,13.0,8.0,2.0,1.0,1650822950083683.0
2.0,3.0,2.0,4.0,6.0,5.0,3.0,-2.0,1650822950083683.0
-2.0,-7.0,-3.0,-5.0,-5.0,-7.0,-3.0,-1.0,1650822950098672.0
-4.0,0.0,-3.0,-7.0,-18.0,-4.0,-4.0,-2.0,1650822950098672.0
1.0,-2.0,1.0,1.0,-9.0,-4.0,-2.0,-2.0,1650822950098672.0
0.0,2.0,-1.0,-3.0,7.0,1.0,2.0,2.0,1650822950098672.0
-2.0,2.0,0.0,2.0,4.0,4.0,-1.0,0.0,1650822950120766.0
0.0,4.0,1.0,-3.0,10.0,1.0,0.0,-1.0,1650822950120766.0
-2.0,-5.0,-3.0,0.0,-13.0,-3.0,-1.0,0.0,1650822950121698.0
2.0,6.0,1.0,3.0,-5.0,-4.0,0.0,2.0,1650822950121698.0
3.0,4.0,3.0,2.0,1.0,1.0,1.0,1.0,1650822950143650.0
-2.0,1.0,0.0,-2.0,3.0,0.0,-2.0,-2.0,1650822950143650.0
1.0,4.0,0.0,-3.0,3.0,4.0,1.0,-2.0,1650822950144067.0
-3.0,-10.0,-4.0,0.0,-3.0,-8.0,-2.0,1.0,1650822950144067.0
1.0,10.0,0.0,0.0,4.0,1.0,-1.0,-2.0,1650822950158179.0
-4.0,-3.0,1.0,-2.0,-2.0,0.0,-1.0,-2.0,1650822950158179.0
0.0,4.0,-2.0,-2.0,0.0,3.0,1.0,-1.0,1650822950159111.0
-2.0,-3.0,-1.0,-3.0,-1.0,-1.0,-1.0,-2.0,1650822950159111.0
0.0,-1.0,0.0,-1.0,0.0,0.0,-1.0,1.0,1650822950180937.0
1.0,-6.0,0.0,-2.0,-5.0,-2.0,0.0,-1.0,1650822950180937.0
-1.0,-1.0,-1.0,-1.0,2.0,-2.0,1.0,1.0,1650822950181895.0
-1.0,2.0,-1.0,5.0,5.0,2.0,1.0,1.0,1650822950181895.0
1.0,-2.0,3.0,2.0,3.0,4.0,2.0,-1.0,1650822950202931.0
1.0,3.0,-2.0,-1.0,-8.0,-4.0,-2.0,0.0,1650822950202931.0
-1.0,-8.0,-3.0,-1.0,-13.0,3.0,1.0,-1.0,1650822950203875.0
0.0,3.0,4.0,0.0,-2.0,-6.0,1.0,0.0,1650822950203875.0
-1.0,-4.0,-7.0,-2.0,1.0,-3.0,-1.0,0.0,1650822950218601.0
-2.0,2.0,-1.0,-4.0,-3.0,-1.0,1.0,1.0,1650822950218601.0
1.0,8.0,4.0,8.0,8.0,-2.0,-1.0,0.0,1650822950218794.0
-1.0,-11.0,1.0,0.0,6.0,10.0,-1.0,-2.0,1650822950218794.0
-3.0,-7.0,-8.0,-6.0,-1.0,-6.0,-2.0,-1.0,1650822950240956.0
0.0,-1.0,1.0,3.0,-2.0,1.0,-1.0,1.0,1650822950240956.0
-1.0,0.0,-1.0,-4.0,0.0,-6.0,0.0,0.0,1650822950241914.0
1.0,6.0,-2.0,0.0,-8.0,-1.0,-1.0,-2.0,1650822950241914.0
-2.0,0.0,2.0,2.0,7.0,5.0,0.0,-1.0,1650822950263709.0
1.0,2.0,0.0,0.0,6.0,3.0,0.0,2.0,1650822950263709.0
-5.0,-7.0,-6.0,-1.0,-2.0,-2.0,-3.0,-2.0,1650822950263709.0
0.0,0.0,0.0,-2.0,0.0,-2.0,-2.0,0.0,1650822950263709.0
-1.0,-2.0,2.0,-4.0,-5.0,-2.0,-1.0,-1.0,1650822950286858.0
0.0,-1.0,-2.0,-4.0,-2.0,-4.0,0.0,0.0,1650822950286858.0
-1.0,-7.0,-1.0,1.0,9.0,-2.0,-1.0,-1.0,1650822950286858.0
-2.0,0.0,-1.0,2.0,-19.0,-1.0,2.0,-1.0,1650822950286858.0
1.0,3.0,3.0,3.0,0.0,5.0,2.0,-1.0,1650822950308859.0
3.0,-2.0,4.0,7.0,7.0,2.0,2.0,0.0,1650822950308859.0
1.0,9.0,4.0,-2.0,0.0,-3.0,-2.0,0.0,1650822950309866.0
0.0,0.0,-3.0,-6.0,5.0,-2.0,-2.0,-1.0,1650822950309866.0
-2.0,-8.0,-10.0,2.0,0.0,-3.0,-1.0,-1.0,1650822950322890.0
-2.0,1.0,-1.0,2.0,-7.0,3.0,1.0,-1.0,1650822950322890.0
2.0,2.0,-1.0,-4.0,-1.0,1.0,0.0,0.0,1650822950323827.0
1.0,3.0,0.0,-3.0,-1.0,-4.0,-2.0,-2.0,1650822950323827.0
-1.0,1.0,1.0,-2.0,-3.0,0.0,0.0,-1.0,1650822950346850.0
-2.0,-2.0,-6.0,-1.0,8.0,-1.0,0.0,-2.0,1650822950346850.0
1.0,-1.0,3.0,2.0,-1.0,-2.0,0.0,0.0,1650822950346850.0
-1.0,5.0,7.0,6.0,0.0,0.0,-1.0,-1.0,1650822950346850.0
-2.0,-6.0,-7.0,-8.0,1.0,-1.0,-4.0,-1.0,1650822950360881.0
-2.0,-8.0,-11.0,-9.0,-4.0,-2.0,-3.0,-2.0,1650822950360881.0
-3.0,2.0,1.0,-5.0,-6.0,-2.0,-2.0,-2.0,1650822950361838.0
-1.0,-1.0,-1.0,3.0,6.0,1.0,3.0,0.0,1650822950361838.0
2.0,13.0,5.0,7.0,4.0,0.0,1.0,-1.0,1650822950383683.0
-2.0,-1.0,7.0,4.0,0.0,1.0,-1.0,-2.0,1650822950383683.0
0.0,-2.0,-5.0,-6.0,-4.0,-2.0,-2.0,-1.0,1650822950383683.0
-1.0,-13.0,-8.0,-3.0,3.0,0.0,-2.0,0.0,1650822950383683.0
-3.0,0.0,-2.0,0.0,21.0,3.0,0.0,-2.0,1650822950398000.0
0.0,1.0,1.0,-1.0,-27.0,2.0,1.0,-2.0,1650822950398000.0
1.0,-2.0,1.0,-1.0,3.0,-3.0,0.0,0.0,1650822950413783.0
0.0,0.0,2.0,3.0,-4.0,-1.0,-1.0,1.0,1650822950413783.0
-1.0,-4.0,3.0,-1.0,4.0,3.0,1.0,0.0,1650822950420832.0
0.0,0.0,-4.0,-2.0,8.0,-5.0,-2.0,-3.0,1650822950420832.0
0.0,2.0,3.0,3.0,-13.0,-3.0,-1.0,-1.0,1650822950421791.0
-2.0,-2.0,-6.0,-12.0,5.0,1.0,-1.0,0.0,1650822950421791.0
1.0,-5.0,4.0,3.0,-9.0,0.0,0.0,0.0,1650822950442938.0
-1.0,4.0,1.0,6.0,16.0,6.0,-1.0,-1.0,1650822950442938.0
1.0,3.0,1.0,-3.0,-3.0,-1.0,2.0,-1.0,1650822950443869.0
0.0,-2.0,-3.0,-2.0,-3.0,-8.0,-1.0,-1.0,1650822950443869.0
-1.0,1.0,5.0,0.0,-7.0,-2.0,1.0,1.0,1650822950457899.0
1.0,5.0,4.0,-2.0,-3.0,-2.0,-1.0,0.0,1650822950457899.0
-1.0,-8.0,-10.0,2.0,6.0,2.0,0.0,0.0,1650822950465876.0
-4.0,-5.0,-2.0,-2.0,-5.0,1.0,-1.0,-2.0,1650822950465876.0
0.0,3.0,-2.0,-1.0,0.0,-1.0,0.0,0.0,1650822950480836.0
0.0,4.0,9.0,5.0,11.0,3.0,2.0,1.0,1650822950480836.0
-1.0,2.0,4.0,5.0,-11.0,-1.0,0.0,0.0,1650822950481768.0
-3.0,-6.0,-12.0,-10.0,8.0,0.0,0.0,-2.0,1650822950481768.0
1.0,5.0,-4.0,-9.0,-24.0,-7.0,-4.0,-2.0,1650822950503687.0
-1.0,-4.0,-1.0,-3.0,-6.0,-2.0,1.0,0.0,1650822950503687.0
1.0,-5.0,0.0,1.0,11.0,3.0,-1.0,1.0,1650822950503687.0
-1.0,1.0,7.0,2.0,-2.0,-1.0,-1.0,-1.0,1650822950503687.0
-1.0,-1.0,1.0,0.0,3.0,0.0,2.0,1.0,1650822950518826.0
-2.0,-1.0,-4.0,-2.0,1.0,-2.0,-1.0,0.0,1650822950518826.0
-2.0,-4.0,-4.0,-1.0,-3.0,-3.0,-2.0,0.0,1650822950526176.0
-1.0,3.0,0.0,2.0,0.0,1.0,-3.0,-2.0,1650822950526176.0
-1.0,11.0,4.0,5.0,3.0,-1.0,-1.0,-2.0,1650822950540735.0
3.0,-9.0,-6.0,-2.0,-6.0,-6.0,-2.0,0.0,1650822950540735.0
1.0,3.0,2.0,1.0,14.0,5.0,3.0,0.0,1650822950541666.0
2.0,-1.0,-3.0,0.0,-10.0,0.0,1.0,0.0,1650822950541666.0
-1.0,-1.0,-1.0,-3.0,-2.0,-1.0,-2.0,-1.0,1650822950563715.0
0.0,5.0,6.0,3.0,6.0,0.0,0.0,0.0,1650822950563715.0
-4.0,-6.0,-6.0,-3.0,-1.0,4.0,-2.0,-2.0,1650822950563715.0
-1.0,2.0,0.0,1.0,2.0,-8.0,0.0,-2.0,1650822950563715.0
0.0,-6.0,1.0,-4.0,-6.0,-3.0,0.0,0.0,1650822950586850.0
1.0,0.0,-1.0,-2.0,-16.0,-4.0,-1.0,-1.0,1650822950586850.0
0.0,-2.0,-3.0,-4.0,0.0,1.0,-4.0,-1.0,1650822950587738.0
2.0,8.0,8.0,1.0,5.0,3.0,3.0,1.0,1650822950587738.0
0.0,-4.0,-1.0,6.0,-3.0,1.0,-2.0,0.0,1650822950600881.0
-2.0,-1.0,1.0,4.0,9.0,1.0,1.0,-1.0,1650822950600881.0
0.0,5.0,1.0,-1.0,9.0,5.0,2.0,-1.0,1650822950601840.0
-2.0,-3.0,1.0,4.0,-4.0,2.0,1.0,-2.0,1650822950601840.0
2.0,-2.0,-4.0,-3.0,-5.0,-8.0,0.0,9.0,1650822950623686.0
1.0,-2.0,-8.0,-8.0,-6.0,-3.0,-4.0,-14.0,1650822950623686.0
-5.0,1.0,2.0,4.0,1.0,0.0,0.0,-3.0,1650822950623686.0
2.0,0.0,2.0,1.0,-5.0,1.0,-1.0,-2.0,1650822950623686.0
0.0,11.0,13.0,8.0,10.0,3.0,3.0,2.0,1650822950637976.0
-2.0,-8.0,-4.0,1.0,1.0,0.0,0.0,2.0,1650822950637976.0
1.0,-4.0,-3.0,-5.0,-4.0,-7.0,0.0,0.0,1650822950645833.0
6.0,0.0,-2.0,-2.0,3.0,0.0,-1.0,1.0,1650822950645833.0
-6.0,-3.0,-6.0,2.0,0.0,2.0,0.0,-4.0,1650822950660862.0
-2.0,1.0,-5.0,-6.0,0.0,-1.0,-1.0,4.0,1650822950660862.0
0.0,-4.0,-4.0,-1.0,8.0,-4.0,0.0,-4.0,1650822950661881.0
2.0,-2.0,-3.0,-3.0,-18.0,-6.0,-1.0,1.0,1650822950661881.0
-2.0,-4.0,-3.0,-3.0,3.0,4.0,-1.0,-2.0,1650822950691899.0
-1.0,0.0,2.0,0.0,7.0,2.0,0.0,0.0,1650822950691899.0
3.0,2.0,6.0,5.0,8.0,4.0,3.0,1.0,1650822950691899.0
-2.0,-2.0,-7.0,-5.0,-6.0,-4.0,-3.0,0.0,1650822950691899.0
5.0,-1.0,5.0,-1.0,-11.0,-2.0,-1.0,1.0,1650822950697907.0
1.0,2.0,0.0,-4.0,4.0,2.0,4.0,0.0,1650822950697907.0
-1.0,-5.0,-7.0,-1.0,-1.0,-2.0,0.0,-2.0,1650822950706154.0
-10.0,-5.0,-5.0,1.0,16.0,-1.0,-4.0,-3.0,1650822950706154.0
-5.0,-4.0,-9.0,-4.0,-18.0,-5.0,-1.0,-5.0,1650822950720385.0
-6.0,2.0,5.0,-1.0,-2.0,-1.0,1.0,7.0,1650822950720385.0
3.0,0.0,3.0,5.0,4.0,4.0,-7.0,-12.0,1650822950721315.0
5.0,0.0,4.0,3.0,-6.0,-4.0,2.0,-2.0,1650822950721315.0
11.0,3.0,1.0,2.0,7.0,-2.0,3.0,3.0,1650822950743479.0
-17.0,0.0,0.0,3.0,1.0,1.0,0.0,-8.0,1650822950743479.0
0.0,3.0,-5.0,-3.0,-14.0,-10.0,-4.0,2.0,1650822950743479.0
5.0,-4.0,-9.0,-7.0,19.0,8.0,3.0,0.0,1650822950743479.0
-12.0,-3.0,8.0,1.0,-8.0,6.0,-2.0,-9.0,1650822950766851.0
14.0,3.0,1.0,5.0,4.0,2.0,5.0,15.0,1650822950766851.0
-1.0,0.0,8.0,6.0,0.0,2.0,1.0,4.0,1650822950767603.0
4.0,-4.0,-3.0,2.0,19.0,1.0,-2.0,-1.0,1650822950767603.0
18.0,2.0,-11.0,-8.0,-14.0,-6.0,0.0,3.0,1650822950780738.0
-4.0,8.0,10.0,0.0,0.0,-3.0,-3.0,-6.0,1650822950780738.0
2.0,-5.0,-8.0,-5.0,-17.0,-4.0,-2.0,1.0,1650822950781669.0
-20.0,-2.0,6.0,6.0,2.0,2.0,0.0,-4.0,1650822950781669.0
-7.0,-4.0,-6.0,-1.0,10.0,6.0,4.0,-1.0,1650822950802909.0
8.0,-1.0,-5.0,0.0,-2.0,0.0,-1.0,0.0,1650822950802909.0
19.0,7.0,9.0,-2.0,-3.0,-4.0,-2.0,3.0,1650822950803840.0
-11.0,-1.0,-4.0,4.0,-4.0,2.0,2.0,-1.0,1650822950803840.0
-5.0,-7.0,-11.0,-8.0,6.0,3.0,9.0,28.0,1650822950826904.0
-9.0,-6.0,2.0,-1.0,-3.0,-2.0,-13.0,-24.0,1650822950826904.0
-6.0,3.0,3.0,1.0,-5.0,0.0,5.0,1.0,1650822950826904.0
-9.0,1.0,6.0,-1.0,8.0,-2.0,-15.0,-11.0,1650822950826904.0
-1.0,5.0,-2.0,2.0,-6.0,0.0,5.0,2.0,1650822950840937.0
16.0,-9.0,-16.0,-5.0,-5.0,-4.0,-1.0,6.0,1650822950840937.0
-2.0,-2.0,0.0,-4.0,-1.0,-4.0,-3.0,-1.0,1650822950841896.0
-2.0,2.0,4.0,7.0,13.0,10.0,5.0,6.0,1650822950841896.0
-1.0,-5.0,-11.0,-9.0,-11.0,-9.0,-7.0,-7.0,1650822950864126.0
-1.0,-3.0,0.0,-7.0,-3.0,-5.0,-1.0,1.0,1650822950864126.0
-21.0,0.0,-9.0,-3.0,-4.0,-2.0,0.0,-6.0,1650822950864804.0
26.0,8.0,15.0,9.0,-5.0,0.0,4.0,6.0,1650822950864804.0
-14.0,2.0,8.0,11.0,26.0,8.0,-3.0,-7.0,1650822950886887.0
-9.0,-13.0,-8.0,-14.0,-10.0,-5.0,-7.0,-8.0,1650822950886887.0
3.0,1.0,5.0,-7.0,-7.0,-5.0,3.0,3.0,1650822950886887.0
-10.0,-1.0,-8.0,-8.0,-12.0,-4.0,0.0,1.0,1650822950886887.0
17.0,3.0,6.0,11.0,23.0,7.0,-2.0,-3.0,1650822950908976.0
15.0,7.0,2.0,5.0,-5.0,0.0,4.0,10.0,1650822950908976.0
0.0,-4.0,3.0,10.0,3.0,7.0,5.0,3.0,1650822950909936.0
16.0,6.0,-5.0,-2.0,-1.0,-3.0,-7.0,-1.0,1650822950909936.0
11.0,-6.0,-5.0,-6.0,-1.0,-8.0,-9.0,-13.0,1650822950922938.0
-14.0,0.0,-5.0,-3.0,-16.0,-11.0,-2.0,0.0,1650822950922938.0
4.0,-2.0,-3.0,-13.0,-16.0,3.0,-4.0,3.0,1650822950930918.0
-6.0,3.0,19.0,11.0,8.0,10.0,19.0,5.0,1650822950930918.0
-7.0,-2.0,-4.0,10.0,11.0,3.0,-9.0,-3.0,1650822950946901.0
-7.0,-10.0,-38.0,-22.0,13.0,4.0,6.0,7.0,1650822950946901.0
13.0,4.0,-5.0,-2.0,3.0,6.0,6.0,11.0,1650822950946901.0
11.0,1.0,1.0,-8.0,-14.0,-15.0,-18.0,-20.0,1650822950946901.0
-20.0,-9.0,1.0,-2.0,-17.0,-6.0,-4.0,-10.0,1650822950968948.0
-19.0,3.0,17.0,21.0,5.0,-1.0,-1.0,-2.0,1650822950968948.0
0.0,-15.0,-23.0,-19.0,-6.0,-5.0,-2.0,-5.0,1650822950969908.0
10.0,-1.0,-9.0,-7.0,6.0,6.0,7.0,9.0,1650822950969908.0
6.0,3.0,-1.0,1.0,8.0,0.0,6.0,11.0,1650822950982912.0
-2.0,6.0,13.0,8.0,-24.0,-5.0,-4.0,-4.0,1650822950982912.0
-2.0,2.0,3.0,8.0,12.0,5.0,4.0,0.0,1650822950990887.0
-1.0,-3.0,8.0,-9.0,-4.0,-3.0,3.0,6.0,1650822950990887.0
-25.0,-6.0,-27.0,-15.0,-4.0,-4.0,-6.0,-10.0,1650822951006885.0
27.0,-1.0,-3.0,0.0,1.0,2.0,0.0,3.0,1650822951006885.0
-25.0,1.0,10.0,7.0,-6.0,-8.0,-12.0,-9.0,1650822951006885.0
-11.0,-3.0,-8.0,-1.0,2.0,7.0,11.0,4.0,1650822951006885.0
9.0,8.0,11.0,9.0,-2.0,2.0,4.0,2.0,1650822951028016.0
10.0,5.0,8.0,5.0,17.0,16.0,11.0,2.0,1650822951028016.0
-8.0,-4.0,0.0,4.0,-4.0,-15.0,-15.0,0.0,1650822951035936.0
-2.0,-2.0,-11.0,-8.0,-10.0,-4.0,-2.0,2.0,1650822951035936.0
17.0,5.0,12.0,-3.0,-10.0,-5.0,2.0,3.0,1650822951043004.0
-34.0,-10.0,-4.0,-6.0,-6.0,-4.0,-11.0,-10.0,1650822951043004.0
-3.0,4.0,-3.0,2.0,15.0,10.0,14.0,2.0,1650822951051052.0
-32.0,-40.0,-35.0,-14.0,-13.0,-8.0,-8.0,-18.0,1650822951051052.0
31.0,0.0,14.0,10.0,-1.0,-1.0,-5.0,1.0,1650822951065961.0
-23.0,6.0,13.0,-1.0,30.0,8.0,10.0,5.0,1650822951065961.0
18.0,10.0,4.0,-1.0,-17.0,-1.0,4.0,5.0,1650822951073010.0
34.0,33.0,19.0,14.0,4.0,1.0,-18.0,-13.0,1650822951073010.0
-28.0,-5.0,-11.0,-5.0,7.0,8.0,24.0,9.0,1650822951088968.0
14.0,-20.0,-12.0,-9.0,-10.0,-15.0,-21.0,-24.0,1650822951088968.0
9.0,-5.0,-2.0,0.0,-11.0,-15.0,-14.0,-13.0,1650822951089900.0
-35.0,21.0,14.0,2.0,1.0,-2.0,-2.0,15.0,1650822951089900.0
45.0,-3.0,-20.0,3.0,3.0,6.0,-5.0,-1.0,1650822951102931.0
-16.0,-17.0,5.0,-3.0,6.0,14.0,14.0,-3.0,1650822951102931.0
-5.0,-9.0,-8.0,-15.0,-14.0,-24.0,6.0,7.0,1650822951110909.0
-7.0,16.0,19.0,17.0,6.0,-11.0,-2.0,-2.0,1650822951110909.0
16.0,42.0,16.0,-3.0,5.0,-6.0,-11.0,-26.0,1650822951125869.0
-11.0,10.0,4.0,11.0,21.0,14.0,6.0,24.0,1650822951125869.0
13.0,-11.0,-3.0,-3.0,-4.0,20.0,15.0,-10.0,1650822951126829.0
-3.0,-10.0,-4.0,-9.0,-4.0,-6.0,-1.0,4.0,1650822951126829.0
-38.0,60.0,26.0,17.0,6.0,7.0,12.0,10.0,1650822951148949.0
18.0,-59.0,4.0,-2.0,-9.0,-15.0,-26.0,-11.0,1650822951148949.0
-26.0,-57.0,-52.0,-34.0,-16.0,-12.0,-22.0,-24.0,1650822951149908.0
75.0,46.0,21.0,15.0,9.0,15.0,18.0,21.0,1650822951149908.0
-47.0,-15.0,6.0,0.0,8.0,8.0,-2.0,6.0,1650822951162912.0
53.0,85.0,57.0,31.0,11.0,15.0,1.0,-11.0,1650822951162912.0
-20.0,-92.0,-69.0,-16.0,2.0,-9.0,6.0,-7.0,1650822951170890.0
-38.0,19.0,23.0,3.0,-9.0,1.0,11.0,16.0,1650822951170890.0
36.0,-37.0,-57.0,-13.0,-14.0,-10.0,-43.0,-40.0,1650822951186120.0
-51.0,-24.0,2.0,-17.0,-21.0,-11.0,-7.0,55.0,1650822951186120.0
-1.0,42.0,33.0,21.0,15.0,4.0,-16.0,15.0,1650822951186120.0
45.0,48.0,-5.0,-6.0,2.0,14.0,4.0,4.0,1650822951186120.0
1.0,4.0,35.0,19.0,5.0,-1.0,12.0,17.0,1650822951209011.0
34.0,27.0,-26.0,-23.0,-9.0,-1.0,13.0,-1.0,1650822951209011.0
64.0,89.0,20.0,13.0,21.0,27.0,35.0,37.0,1650822951209941.0
-82.0,-108.0,-90.0,-42.0,-18.0,-11.0,-20.0,-54.0,1650822951209941.0
-42.0,3.0,6.0,-22.0,-8.0,-22.0,-19.0,2.0,1650822951222949.0
-32.0,16.0,8.0,21.0,-6.0,23.0,20.0,9.0,1650822951222949.0
45.0,39.0,17.0,5.0,6.0,0.0,53.0,15.0,1650822951230997.0
28.0,16.0,38.0,27.0,8.0,-2.0,-47.0,-3.0,1650822951230997.0
16.0,-8.0,-32.0,-13.0,6.0,16.0,35.0,11.0,1650822951245968.0
-6.0,-64.0,-7.0,10.0,-13.0,-21.0,-44.0,-29.0,1650822951245968.0
29.0,34.0,39.0,18.0,26.0,21.0,28.0,48.0,1650822951246909.0
47.0,5.0,-15.0,-7.0,-1.0,19.0,99.0,94.0,1650822951246909.0
-24.0,-8.0,1.0,-5.0,-4.0,-41.0,-67.0,-75.0,1650822951269019.0
60.0,76.0,35.0,17.0,9.0,7.0,32.0,74.0,1650822951269019.0
-128.0,-68.0,-21.0,-7.0,-11.0,-8.0,-33.0,-40.0,1650822951269978.0
25.0,-12.0,-2.0,10.0,-1.0,0.0,3.0,-5.0,1650822951269978.0
31.0,53.0,65.0,22.0,5.0,21.0,18.0,23.0,1650822951291109.0
-35.0,-23.0,-101.0,-54.0,-4.0,-9.0,-25.0,-50.0,1650822951291109.0
-18.0,44.0,56.0,11.0,5.0,5.0,-12.0,-21.0,1650822951292041.0
68.0,20.0,-14.0,-17.0,5.0,-2.0,0.0,11.0,1650822951292041.0
3.0,-37.0,30.0,9.0,-1.0,9.0,18.0,27.0,1650822951306070.0
-37.0,-9.0,-25.0,0.0,-3.0,-13.0,1.0,-30.0,1650822951306070.0
83.0,8.0,-12.0,-6.0,-16.0,-7.0,-6.0,-2.0,1650822951306070.0
-23.0,6.0,22.0,10.0,15.0,13.0,-13.0,-24.0,1650822951306070.0
6.0,-13.0,29.0,31.0,7.0,-2.0,-7.0,-4.0,1650822951328860.0
3.0,-5.0,2.0,-12.0,-3.0,23.0,32.0,20.0,1650822951328860.0
-20.0,-29.0,-23.0,-5.0,-6.0,-35.0,-47.0,-28.0,1650822951329868.0
-8.0,0.0,12.0,-2.0,-19.0,-14.0,-1.0,6.0,1650822951329868.0
61.0,-52.0,-47.0,-19.0,-2.0,-14.0,-13.0,12.0,1650822951352393.0
-38.0,12.0,9.0,7.0,6.0,-1.0,-18.0,12.0,1650822951352393.0
41.0,57.0,42.0,20.0,9.0,5.0,1.0,-5.0,1650822951354391.0
-30.0,-34.0,-13.0,-5.0,-4.0,-8.0,-18.0,-19.0,1650822951354391.0
-79.0,-19.0,-32.0,-26.0,-29.0,0.0,14.0,5.0,1650822951365940.0
63.0,62.0,37.0,34.0,2.0,8.0,30.0,17.0,1650822951365940.0
22.0,2.0,32.0,-8.0,17.0,18.0,11.0,27.0,1650822951366898.0
-64.0,-95.0,-77.0,-37.0,-5.0,-11.0,16.0,2.0,1650822951366898.0
67.0,29.0,-5.0,-5.0,2.0,15.0,15.0,4.0,1650822951389072.0
-26.0,10.0,22.0,15.0,-3.0,-9.0,-5.0,-14.0,1650822951389072.0
-32.0,-81.0,-17.0,-2.0,-5.0,-6.0,-14.0,-17.0,1650822951390031.0
36.0,47.0,38.0,25.0,7.0,1.0,-6.0,26.0,1650822951390031.0
-25.0,-17.0,-6.0,-4.0,-5.0,0.0,1.0,-9.0,1650822951418935.0
13.0,5.0,0.0,-1.0,13.0,12.0,2.0,-7.0,1650822951418935.0
-44.0,-18.0,-1.0,7.0,-10.0,-23.0,-14.0,-24.0,1650822951419869.0
-15.0,1.0,-6.0,-10.0,-6.0,8.0,-15.0,-26.0,1650822951419869.0
63.0,43.0,0.0,-5.0,-8.0,-7.0,26.0,53.0,1650822951425879.0
-43.0,-66.0,-16.0,-4.0,1.0,-7.0,22.0,-23.0,1650822951425879.0
11.0,7.0,-10.0,5.0,9.0,4.0,-14.0,8.0,1650822951426876.0
3.0,-27.0,-1.0,3.0,-10.0,-3.0,-5.0,-9.0,1650822951426876.0
-12.0,42.0,31.0,16.0,6.0,3.0,-19.0,-22.0,1650822951448943.0
23.0,0.0,-9.0,-9.0,-6.0,-6.0,2.0,-1.0,1650822951448943.0
13.0,-9.0,-33.0,-42.0,-7.0,-1.0,11.0,28.0,1650822951449940.0
9.0,23.0,-37.0,-9.0,4.0,4.0,-10.0,-29.0,1650822951449940.0
-43.0,-76.0,14.0,6.0,5.0,3.0,5.0,15.0,1650822951471879.0
33.0,22.0,-6.0,-3.0,5.0,-6.0,-5.0,-12.0,1650822951471879.0
-7.0,10.0,39.0,39.0,-1.0,9.0,8.0,4.0,1650822951471879.0
-11.0,46.0,26.0,-12.0,-11.0,-8.0,-3.0,2.0,1650822951471879.0
-17.0,-33.0,-32.0,-19.0,-12.0,-14.0,-1.0,-20.0,1650822951486182.0
-31.0,-9.0,9.0,14.0,7.0,9.0,-4.0,8.0,1650822951486182.0
8.0,14.0,-5.0,-5.0,4.0,11.0,41.0,23.0,1650822951486182.0
-14.0,-6.0,8.0,5.0,-1.0,0.0,-22.0,-44.0,1650822951486182.0
5.0,0.0,-36.0,-21.0,-4.0,9.0,22.0,56.0,1650822951509425.0
-5.0,-4.0,8.0,0.0,-4.0,-30.0,-51.0,-22.0,1650822951509425.0
0.0,18.0,-5.0,-3.0,3.0,12.0,22.0,20.0,1650822951509425.0
-10.0,-37.0,-8.0,-11.0,-8.0,-5.0,8.0,-1.0,1650822951509425.0
-36.0,17.0,16.0,17.0,-1.0,4.0,2.0,-6.0,1650822951531802.0
23.0,12.0,21.0,15.0,14.0,12.0,25.0,12.0,1650822951531802.0
43.0,32.0,-47.0,-33.0,-13.0,-4.0,-7.0,6.0,1650822951531802.0
-80.0,-89.0,-14.0,-4.0,2.0,-7.0,-13.0,-10.0,1650822951531802.0
23.0,28.0,10.0,0.0,16.0,3.0,-9.0,-19.0,1650822951545674.0
10.0,-22.0,-5.0,-15.0,-15.0,-12.0,0.0,13.0,1650822951545674.0
21.0,48.0,29.0,-3.0,-4.0,3.0,10.0,0.0,1650822951546675.0
1.0,-7.0,-14.0,13.0,-3.0,-14.0,-15.0,-6.0,1650822951546675.0
2.0,6.0,-26.0,-21.0,-8.0,-3.0,-13.0,-36.0,1650822951568898.0
-41.0,-2.0,18.0,6.0,-4.0,-4.0,0.0,-9.0,1650822951568898.0
-67.0,-24.0,-10.0,-5.0,-2.0,-11.0,-19.0,-11.0,1650822951569899.0
23.0,43.0,27.0,9.0,-1.0,19.0,25.0,19.0,1650822951569899.0
17.0,-3.0,5.0,7.0,-1.0,2.0,24.0,19.0,1650822951591042.0
62.0,6.0,-28.0,-16.0,-6.0,-14.0,-64.0,-22.0,1650822951591042.0
-65.0,-39.0,-14.0,-7.0,-10.0,-3.0,9.0,-27.0,1650822951592002.0
-1.0,4.0,14.0,15.0,16.0,-11.0,-22.0,13.0,1650822951592002.0
58.0,44.0,27.0,38.0,3.0,11.0,24.0,5.0,1650822951605065.0
26.0,13.0,-12.0,-31.0,-9.0,-1.0,6.0,5.0,1650822951605065.0
-5.0,-21.0,-66.0,-34.0,1.0,-3.0,-16.0,-9.0,1650822951614161.0
2.0,22.0,28.0,23.0,7.0,10.0,2.0,-1.0,1650822951614161.0
19.0,43.0,40.0,12.0,7.0,7.0,15.0,6.0,1650822951628873.0
-8.0,13.0,-20.0,-23.0,2.0,-1.0,2.0,1.0,1650822951628873.0
23.0,26.0,45.0,35.0,3.0,2.0,-15.0,-3.0,1650822951630828.0
14.0,15.0,0.0,-1.0,3.0,4.0,41.0,26.0,1650822951630828.0
-34.0,-34.0,-36.0,-18.0,-13.0,-10.0,-26.0,-13.0,1650822951651885.0
-45.0,2.0,15.0,8.0,13.0,16.0,21.0,16.0,1650822951651885.0
15.0,-23.0,-3.0,0.0,-3.0,-7.0,-11.0,-19.0,1650822951652853.0
6.0,45.0,13.0,-1.0,-28.0,-4.0,8.0,-9.0,1650822951652853.0
-6.0,-18.0,12.0,15.0,13.0,8.0,-12.0,-5.0,1650822951664867.0
6.0,-10.0,-10.0,0.0,0.0,-9.0,8.0,-3.0,1650822951664867.0
1.0,-27.0,12.0,16.0,8.0,17.0,16.0,2.0,1650822951673795.0
-49.0,-5.0,-5.0,-2.0,4.0,-15.0,-26.0,4.0,1650822951673795.0
-28.0,-25.0,-27.0,-31.0,-15.0,-26.0,-29.0,-13.0,1650822951687826.0
-14.0,-22.0,7.0,7.0,-1.0,14.0,-8.0,-29.0,1650822951687826.0
55.0,96.0,72.0,46.0,12.0,12.0,37.0,29.0,1650822951696881.0
-8.0,-41.0,-38.0,-4.0,13.0,5.0,-10.0,-14.0,1650822951696881.0
-24.0,40.0,-19.0,-38.0,-8.0,5.0,10.0,9.0,1650822951711047.0
4.0,5.0,11.0,0.0,-5.0,-9.0,2.0,3.0,1650822951711047.0
-18.0,-9.0,7.0,0.0,-1.0,-6.0,-10.0,-6.0,1650822951712975.0
38.0,-10.0,-7.0,5.0,3.0,3.0,3.0,6.0,1650822951712975.0
9.0,-34.0,-10.0,8.0,-5.0,-4.0,-6.0,1.0,1650822951725018.0
13.0,25.0,18.0,16.0,1.0,6.0,3.0,7.0,1650822951725018.0
73.0,42.0,21.0,9.0,2.0,8.0,0.0,16.0,1650822951733786.0
-57.0,-51.0,-19.0,-10.0,-12.0,-25.0,-32.0,-15.0,1650822951733786.0
4.0,-6.0,-2.0,-6.0,-1.0,5.0,-8.0,-28.0,1650822951748949.0
-30.0,-11.0,-9.0,-7.0,-15.0,-18.0,4.0,-29.0,1650822951748949.0
-15.0,-32.0,-20.0,-4.0,4.0,10.0,-19.0,7.0,1650822951750905.0
73.0,39.0,29.0,7.0,2.0,-14.0,19.0,33.0,1650822951750905.0
-111.0,-20.0,-8.0,-6.0,-8.0,-12.0,-24.0,-78.0,1650822951771415.0
14.0,10.0,5.0,12.0,19.0,11.0,1.0,-3.0,1650822951771415.0
-7.0,-72.0,-53.0,-18.0,-15.0,-4.0,-11.0,-16.0,1650822951773370.0
-16.0,43.0,46.0,8.0,3.0,12.0,15.0,0.0,1650822951773370.0
7.0,-22.0,-19.0,28.0,1.0,3.0,10.0,24.0,1650822951785504.0
36.0,49.0,-2.0,-37.0,7.0,5.0,7.0,9.0,1650822951785504.0
-59.0,-61.0,-16.0,-44.0,-7.0,-8.0,-1.0,-7.0,1650822951793727.0
12.0,-5.0,-3.0,13.0,6.0,13.0,5.0,0.0,1650822951793727.0
29.0,11.0,30.0,23.0,14.0,5.0,25.0,29.0,1650822951808763.0
-31.0,-18.0,-5.0,17.0,-3.0,-2.0,-3.0,19.0,1650822951808763.0
17.0,8.0,-3.0,-3.0,-7.0,-13.0,-20.0,3.0,1650822951810720.0
8.0,-4.0,-12.0,-18.0,-12.0,2.0,4.0,-4.0,1650822951810720.0
-18.0,12.0,20.0,9.0,13.0,8.0,11.0,-3.0,1650822951831880.0
20.0,-4.0,-5.0,7.0,-2.0,4.0,-4.0,9.0,1650822951831880.0
-12.0,-8.0,-5.0,-4.0,0.0,7.0,4.0,-17.0,1650822951832852.0
-14.0,14.0,0.0,-1.0,0.0,-6.0,-22.0,-20.0,1650822951832852.0
16.0,-1.0,2.0,-5.0,-3.0,-10.0,-12.0,8.0,1650822951844868.0
47.0,9.0,-3.0,10.0,1.0,1.0,-14.0,21.0,1650822951844868.0
-6.0,-26.0,11.0,24.0,8.0,7.0,17.0,17.0,1650822951853830.0
20.0,0.0,-53.0,-29.0,-8.0,1.0,7.0,-10.0,1650822951853830.0
7.0,6.0,0.0,-32.0,13.0,6.0,-6.0,11.0,1650822951868976.0
-21.0,-28.0,-23.0,-3.0,-14.0,-11.0,-4.0,-15.0,1650822951868976.0
-19.0,-9.0,10.0,-6.0,0.0,2.0,-2.0,-2.0,1650822951870923.0
17.0,1.0,8.0,10.0,8.0,9.0,17.0,13.0,1650822951870923.0
5.0,-5.0,14.0,13.0,-6.0,-3.0,3.0,10.0,1650822951891867.0
10.0,35.0,18.0,4.0,2.0,6.0,20.0,28.0,1650822951891867.0
6.0,1.0,-16.0,9.0,7.0,-1.0,10.0,12.0,1650822951892843.0
-37.0,-14.0,-3.0,-15.0,-2.0,0.0,2.0,-13.0,1650822951892843.0
-53.0,-78.0,-22.0,-17.0,-29.0,-19.0,-39.0,-17.0,1650822951904837.0
19.0,23.0,24.0,10.0,5.0,9.0,8.0,-14.0,1650822951904837.0
27.0,34.0,16.0,20.0,15.0,-9.0,1.0,28.0,1650822951913807.0
-1.0,-12.0,-2.0,-14.0,-12.0,-6.0,-10.0,9.0,1650822951913807.0
10.0,-7.0,-11.0,10.0,14.0,10.0,5.0,26.0,1650822951928930.0
-19.0,-54.0,2.0,-4.0,-13.0,-6.0,-10.0,-2.0,1650822951928930.0
21.0,60.0,40.0,22.0,13.0,7.0,13.0,-5.0,1650822951930886.0
51.0,-7.0,-25.0,-25.0,-4.0,2.0,11.0,13.0,1650822951930886.0
-3.0,16.0,29.0,26.0,15.0,12.0,21.0,18.0,1650822951951956.0
21.0,4.0,-15.0,-33.0,-6.0,-2.0,9.0,25.0,1650822951951956.0
-2.0,-23.0,-32.0,-8.0,-6.0,6.0,3.0,-16.0,1650822951952957.0
-60.0,-5.0,11.0,4.0,-5.0,-9.0,-8.0,-4.0,1650822951952957.0
35.0,24.0,11.0,5.0,-11.0,-8.0,-5.0,-7.0,1650822951973998.0
-16.0,9.0,9.0,11.0,7.0,4.0,35.0,42.0,1650822951973998.0
3.0,-4.0,-8.0,-14.0,-9.0,-9.0,-44.0,-35.0,1650822951975009.0
-8.0,7.0,18.0,16.0,-3.0,-6.0,3.0,25.0,1650822951975009.0
-16.0,-2.0,-22.0,-15.0,-2.0,-3.0,-5.0,-10.0,1650822951989143.0
-19.0,-24.0,-9.0,10.0,9.0,6.0,29.0,4.0,1650822951989143.0
-4.0,45.0,-1.0,-12.0,-7.0,-5.0,-3.0,-7.0,1650822951990101.0
40.0,-14.0,-9.0,2.0,1.0,-4.0,-28.0,-8.0,1650822951990101.0
3.0,13.0,15.0,10.0,-1.0,-4.0,9.0,14.0,1650822952011250.0
-22.0,-4.0,-26.0,-23.0,0.0,19.0,26.0,9.0,1650822952011250.0
-5.0,-21.0,-3.0,7.0,-12.0,-16.0,13.0,-9.0,1650822952013179.0
-27.0,40.0,36.0,6.0,-1.0,0.0,-7.0,-20.0,1650822952013179.0
19.0,-26.0,-74.0,-39.0,14.0,7.0,-1.0,-3.0,1650822952025481.0
11.0,-13.0,12.0,18.0,-14.0,-1.0,-10.0,-12.0,1650822952025481.0
-17.0,27.0,1.0,-4.0,0.0,5.0,6.0,7.0,1650822952033621.0
12.0,43.0,35.0,11.0,0.0,0.0,8.0,14.0,1650822952033621.0
15.0,7.0,5.0,0.0,-1.0,-9.0,0.0,6.0,1650822952048884.0
-8.0,-3.0,-11.0,13.0,7.0,-1.0,-19.0,-30.0,1650822952048884.0
12.0,-1.0,-4.0,-7.0,-4.0,-17.0,-8.0,6.0,1650822952050840.0
10.0,-16.0,-3.0,8.0,7.0,8.0,-4.0,-4.0,1650822952050840.0
15.0,25.0,14.0,2.0,-11.0,-8.0,-15.0,-12.0,1650822952078935.0
-15.0,-31.0,-22.0,-16.0,-7.0,-12.0,21.0,16.0,1650822952078935.0
-10.0,-10.0,0.0,7.0,7.0,11.0,-9.0,-9.0,1650822952080893.0
-1.0,-6.0,-2.0,5.0,5.0,1.0,-1.0,10.0,1650822952080893.0
-11.0,-3.0,-4.0,0.0,3.0,2.0,0.0,-20.0,1650822952084873.0
3.0,22.0,31.0,1.0,-12.0,-15.0,-36.0,-12.0,1650822952084873.0
-1.0,-31.0,-19.0,-1.0,4.0,7.0,3.0,10.0,1650822952093835.0
-18.0,-30.0,-59.0,-38.0,-9.0,-1.0,4.0,-12.0,1650822952093835.0
3.0,18.0,13.0,0.0,-11.0,-1.0,3.0,12.0,1650822952108686.0
8.0,-13.0,11.0,18.0,1.0,-6.0,-18.0,-13.0,1650822952108686.0
-10.0,18.0,2.0,-19.0,-2.0,1.0,7.0,3.0,1650822952110633.0
5.0,-23.0,2.0,11.0,3.0,-1.0,-2.0,1.0,1650822952110633.0
5.0,11.0,6.0,2.0,2.0,10.0,0.0,-31.0,1650822952131898.0
2.0,10.0,-1.0,-3.0,-1.0,-5.0,-8.0,-18.0,1650822952131898.0
-17.0,-11.0,3.0,1.0,-3.0,5.0,-5.0,-9.0,1650822952132868.0
4.0,2.0,1.0,2.0,7.0,-12.0,-8.0,-2.0,1650822952132868.0
12.0,7.0,2.0,2.0,-9.0,-1.0,2.0,7.0,1650822952154913.0
-4.0,-1.0,1.0,-2.0,1.0,-5.0,15.0,8.0,1650822952154913.0
-9.0,5.0,0.0,0.0,-8.0,1.0,-20.0,-8.0,1650822952155910.0
8.0,0.0,-7.0,-5.0,14.0,5.0,5.0,0.0,1650822952155910.0
-1.0,-4.0,3.0,4.0,-11.0,-4.0,3.0,8.0,1650822952169026.0
2.0,-6.0,-5.0,1.0,4.0,0.0,-5.0,-12.0,1650822952169026.0
-4.0,-7.0,-1.0,3.0,11.0,2.0,5.0,8.0,1650822952170963.0
5.0,3.0,5.0,0.0,-9.0,7.0,10.0,0.0,1650822952170963.0
-7.0,-11.0,-3.0,-9.0,1.0,1.0,-2.0,-3.0,1650822952191122.0
-3.0,-8.0,-13.0,-10.0,-8.0,-4.0,-5.0,-3.0,1650822952191122.0
-3.0,2.0,2.0,9.0,4.0,-3.0,3.0,-1.0,1650822952193054.0
6.0,23.0,20.0,5.0,6.0,5.0,4.0,0.0,1650822952193054.0
-4.0,-26.0,-19.0,-6.0,-2.0,-4.0,2.0,5.0,1650822952214041.0
-3.0,-9.0,-7.0,0.0,15.0,3.0,-12.0,-4.0,1650822952214041.0
-5.0,0.0,5.0,-2.0,-16.0,-2.0,0.0,2.0,1650822952215969.0
2.0,5.0,5.0,8.0,2.0,1.0,2.0,-4.0,1650822952215969.0
1.0,2.0,3.0,3.0,-3.0,-3.0,2.0,7.0,1650822952229168.0
-2.0,1.0,-4.0,-12.0,-3.0,-4.0,-4.0,-1.0,1650822952229168.0
-4.0,-14.0,-6.0,6.0,10.0,1.0,1.0,-5.0,1650822952230136.0
2.0,-5.0,0.0,5.0,-2.0,2.0,9.0,9.0,1650822952230136.0
-2.0,0.0,-26.0,-14.0,2.0,2.0,-4.0,-5.0,1650822952251381.0
0.0,0.0,6.0,-3.0,4.0,-1.0,-12.0,-9.0,1650822952251381.0
-3.0,-1.0,-15.0,-15.0,-24.0,-9.0,-1.0,-3.0,1650822952253310.0
3.0,-2.0,6.0,4.0,5.0,4.0,8.0,24.0,1650822952253310.0
4.0,8.0,8.0,20.0,18.0,6.0,-2.0,-8.0,1650822952274320.0
-6.0,1.0,11.0,2.0,3.0,7.0,4.0,-10.0,1650822952274320.0
-1.0,1.0,-2.0,-7.0,-3.0,-6.0,-10.0,3.0,1650822952275250.0
0.0,-2.0,2.0,1.0,-15.0,3.0,16.0,1.0,1650822952275250.0
-1.0,-4.0,-5.0,-4.0,-2.0,-13.0,-13.0,-3.0,1650822952289384.0
6.0,5.0,-2.0,4.0,-14.0,-8.0,5.0,16.0,1650822952289384.0
0.0,0.0,6.0,2.0,-5.0,3.0,0.0,-25.0,1650822952290361.0
-8.0,-13.0,-14.0,-14.0,5.0,-6.0,-13.0,4.0,1650822952290361.0
2.0,5.0,8.0,2.0,5.0,5.0,8.0,11.0,1650822952311519.0
0.0,-5.0,-11.0,0.0,-8.0,-2.0,-4.0,-3.0,1650822952311519.0
1.0,9.0,20.0,11.0,9.0,-1.0,3.0,9.0,1650822952313449.0
4.0,9.0,20.0,23.0,5.0,6.0,-6.0,-24.0,1650822952313449.0
-5.0,-9.0,-9.0,-21.0,-9.0,-2.0,8.0,8.0,1650822952334299.0
1.0,-12.0,-31.0,-18.0,-11.0,-5.0,-8.0,1.0,1650822952334299.0
1.0,1.0,-2.0,-10.0,-9.0,-5.0,3.0,18.0,1650822952335520.0
-6.0,2.0,2.0,6.0,8.0,6.0,3.0,-19.0,1650822952335520.0
-4.0,8.0,26.0,14.0,1.0,3.0,0.0,15.0,1650822952356572.0
9.0,4.0,7.0,10.0,10.0,4.0,-3.0,-14.0,1650822952356572.0
9.0,-2.0,-9.0,-2.0,0.0,-7.0,2.0,13.0,1650822952357576.0
0.0,3.0,1.0,-7.0,-13.0,-3.0,-7.0,8.0,1650822952357576.0
2.0,3.0,2.0,4.0,4.0,0.0,-5.0,-18.0,1650822952371722.0
-13.0,-19.0,-8.0,-2.0,-5.0,6.0,0.0,-6.0,1650822952371722.0
-4.0,-1.0,-3.0,-3.0,3.0,-3.0,-1.0,-10.0,1650822952372679.0
-1.0,10.0,6.0,4.0,-3.0,-4.0,-1.0,-3.0,1650822952372679.0
-2.0,0.0,-11.0,-3.0,5.0,-1.0,5.0,13.0,1650822952393999.0
-1.0,0.0,1.0,-7.0,-9.0,-6.0,-12.0,-23.0,1650822952393999.0
1.0,4.0,11.0,10.0,5.0,4.0,-1.0,0.0,1650822952394999.0
-3.0,-9.0,-2.0,-3.0,8.0,0.0,4.0,-4.0,1650822952394999.0
2.0,3.0,-1.0,1.0,-3.0,3.0,4.0,2.0,1650822952408806.0
3.0,20.0,-9.0,-5.0,-6.0,-2.0,0.0,2.0,1650822952408806.0
-10.0,-31.0,-3.0,-6.0,-3.0,-4.0,-3.0,-5.0,1650822952422866.0
4.0,9.0,-10.0,-5.0,11.0,9.0,-1.0,3.0,1650822952422866.0
-3.0,-26.0,-4.0,3.0,-19.0,-9.0,-3.0,-6.0,1650822952431694.0
9.0,37.0,24.0,8.0,6.0,1.0,4.0,15.0,1650822952431694.0
-13.0,-29.0,-7.0,0.0,20.0,3.0,-3.0,-10.0,1650822952432630.0
-2.0,-13.0,-11.0,-11.0,-26.0,-6.0,-5.0,0.0,1650822952432630.0
-4.0,6.0,-3.0,-3.0,2.0,-2.0,-3.0,-3.0,1650822952461831.0
-3.0,-12.0,1.0,2.0,5.0,5.0,4.0,2.0,1650822952461831.0
6.0,13.0,-3.0,1.0,-5.0,1.0,1.0,4.0,1650822952462808.0
0.0,-8.0,-5.0,-2.0,4.0,-5.0,-1.0,-2.0,1650822952462808.0
-2.0,5.0,10.0,-1.0,3.0,3.0,0.0,-3.0,1650822952467777.0
-3.0,-13.0,-9.0,-1.0,-3.0,1.0,0.0,5.0,1650822952467777.0
-1.0,13.0,-2.0,-6.0,-1.0,1.0,0.0,0.0,1650822952474759.0
5.0,10.0,-4.0,0.0,-3.0,-3.0,1.0,1.0,1650822952474759.0
-2.0,2.0,2.0,-4.0,0.0,7.0,0.0,-1.0,1650822952491890.0
-2.0,10.0,13.0,2.0,2.0,-2.0,0.0,2.0,1650822952491890.0
5.0,31.0,-4.0,3.0,-3.0,-6.0,0.0,1.0,1650822952492851.0
-7.0,-52.0,-7.0,-4.0,-2.0,-1.0,0.0,-3.0,1650822952492851.0
2.0,-6.0,-15.0,-3.0,-3.0,-2.0,-1.0,-2.0,1650822952514324.0
5.0,-11.0,10.0,11.0,12.0,6.0,2.0,4.0,1650822952514324.0
-12.0,-15.0,-10.0,-8.0,-3.0,2.0,-4.0,-6.0,1650822952515829.0
0.0,7.0,-14.0,-5.0,-6.0,-3.0,-3.0,-6.0,1650822952515829.0
2.0,18.0,9.0,-2.0,1.0,-3.0,1.0,9.0,1650822952528649.0
-7.0,-35.0,-8.0,-2.0,19.0,-1.0,-3.0,-3.0,1650822952528649.0
4.0,5.0,3.0,2.0,-28.0,-1.0,2.0,0.0,1650822952535478.0
6.0,13.0,9.0,3.0,11.0,5.0,1.0,2.0,1650822952535478.0
-1.0,-11.0,-5.0,-1.0,0.0,-2.0,5.0,4.0,1650822952551646.0
-2.0,-11.0,-6.0,-2.0,-2.0,-5.0,-10.0,-23.0,1650822952551646.0
0.0,43.0,8.0,-5.0,6.0,1.0,-5.0,4.0,1650822952552612.0
-5.0,-11.0,6.0,3.0,-7.0,-5.0,-1.0,-2.0,1650822952552612.0
4.0,17.0,8.0,7.0,11.0,6.0,1.0,-1.0,1650822952573915.0
10.0,9.0,2.0,1.0,-3.0,0.0,5.0,12.0,1650822952573915.0
-1.0,-5.0,-2.0,-1.0,3.0,-1.0,-3.0,-5.0,1650822952575873.0
0.0,-9.0,-7.0,-7.0,-9.0,-4.0,-4.0,-2.0,1650822952575873.0
-3.0,5.0,9.0,2.0,4.0,5.0,3.0,-1.0,1650822952587807.0
2.0,34.0,23.0,6.0,-8.0,2.0,3.0,4.0,1650822952587807.0
1.0,-22.0,-3.0,2.0,8.0,2.0,2.0,1.0,1650822952596236.0
2.0,6.0,-4.0,-2.0,5.0,2.0,0.0,5.0,1650822952596236.0
-3.0,-6.0,-7.0,-7.0,-8.0,-5.0,-2.0,-3.0,1650822952611855.0
-4.0,-20.0,-5.0,-1.0,-6.0,-1.0,-2.0,1.0,1650822952611855.0
-11.0,-23.0,-29.0,-6.0,-4.0,-4.0,-4.0,-8.0,1650822952612853.0
1.0,6.0,1.0,-4.0,9.0,1.0,-1.0,0.0,1650822952612853.0
-1.0,-10.0,-11.0,0.0,-10.0,-4.0,-4.0,-3.0,1650822952634350.0
-1.0,-9.0,-5.0,-2.0,-5.0,1.0,1.0,-6.0,1650822952634350.0
8.0,18.0,14.0,9.0,2.0,0.0,18.0,70.0,1650822952635809.0
-3.0,-17.0,5.0,7.0,8.0,0.0,-21.0,-57.0,1650822952635809.0
-3.0,-12.0,-19.0,-12.0,3.0,3.0,1.0,-5.0,1650822952648805.0
-1.0,-2.0,-12.0,-5.0,6.0,-2.0,3.0,-1.0,1650822952648805.0
5.0,-6.0,11.0,5.0,-10.0,0.0,-7.0,-4.0,1650822952654864.0
1.0,-1.0,1.0,4.0,-3.0,1.0,10.0,28.0,1650822952654864.0
1.0,9.0,7.0,4.0,1.0,0.0,-4.0,0.0,1650822952671014.0
16.0,14.0,20.0,14.0,5.0,-1.0,6.0,10.0,1650822952671014.0
-18.0,23.0,3.0,-11.0,-3.0,1.0,-5.0,-22.0,1650822952672949.0
1.0,1.0,0.0,-1.0,0.0,-6.0,1.0,6.0,1650822952672949.0
1.0,19.0,1.0,-3.0,-15.0,-8.0,-4.0,-12.0,1650822952694021.0
1.0,-4.0,6.0,-4.0,5.0,7.0,3.0,15.0,1650822952694021.0
7.0,-25.0,-12.0,5.0,3.0,1.0,0.0,-10.0,1650822952695021.0
0.0,23.0,1.0,-1.0,9.0,-2.0,2.0,-2.0,1650822952695021.0
5.0,5.0,8.0,1.0,-10.0,2.0,2.0,12.0,1650822952707977.0
-10.0,-25.0,-16.0,-4.0,-1.0,2.0,-2.0,-7.0,1650822952707977.0
2.0,-6.0,2.0,6.0,3.0,0.0,-2.0,-8.0,1650822952716132.0
-4.0,-3.0,-1.0,-3.0,-8.0,-1.0,1.0,5.0,1650822952716132.0
-2.0,-22.0,-9.0,-5.0,2.0,-6.0,-5.0,-7.0,1650822952739205.0
-2.0,27.0,-3.0,-2.0,-6.0,-1.0,-4.0,11.0,1650822952739205.0
2.0,-19.0,5.0,3.0,6.0,1.0,4.0,-6.0,1650822952740134.0
5.0,32.0,6.0,3.0,-1.0,-1.0,2.0,9.0,1650822952740134.0
-4.0,6.0,16.0,-2.0,1.0,1.0,0.0,-2.0,1650822952754163.0
-5.0,-4.0,-4.0,-3.0,-6.0,-2.0,-5.0,-7.0,1650822952754163.0
10.0,9.0,-2.0,-5.0,-1.0,0.0,0.0,4.0,1650822952755092.0
0.0,-31.0,-13.0,2.0,-12.0,-4.0,2.0,7.0,1650822952755092.0
5.0,21.0,15.0,7.0,9.0,5.0,0.0,-12.0,1650822952767316.0
-4.0,16.0,-4.0,-8.0,-6.0,-1.0,-6.0,-7.0,1650822952767316.0
-1.0,-12.0,-1.0,-6.0,3.0,-3.0,-4.0,-3.0,1650822952776295.0
4.0,8.0,3.0,-3.0,-2.0,4.0,1.0,2.0,1650822952776295.0
-6.0,12.0,1.0,1.0,-7.0,-5.0,-2.0,1.0,1650822952791894.0
0.0,33.0,7.0,-3.0,2.0,-1.0,-2.0,1.0,1650822952791894.0
8.0,9.0,5.0,6.0,3.0,1.0,3.0,-2.0,1650822952792861.0
-13.0,-33.0,-7.0,-3.0,-2.0,-3.0,-3.0,-7.0,1650822952792861.0
-1.0,-12.0,-1.0,1.0,4.0,-1.0,2.0,6.0,1650822952814066.0
10.0,5.0,5.0,7.0,4.0,0.0,2.0,4.0,1650822952814066.0
-13.0,2.0,1.0,-9.0,-17.0,2.0,-3.0,-7.0,1650822952814998.0
-3.0,7.0,2.0,1.0,5.0,-2.0,1.0,-1.0,1650822952814998.0
1.0,-15.0,-6.0,6.0,-2.0,-1.0,3.0,4.0,1650822952828098.0
-2.0,8.0,-1.0,1.0,7.0,2.0,0.0,-3.0,1650822952828098.0
-2.0,-13.0,-4.0,1.0,2.0,-1.0,-1.0,-4.0,1650822952836916.0
7.0,19.0,-1.0,1.0,13.0,5.0,1.0,3.0,1650822952836916.0
-8.0,4.0,1.0,-8.0,-18.0,-7.0,-5.0,-3.0,1650822952851831.0
-2.0,-9.0,-5.0,-4.0,-5.0,-3.0,-1.0,-1.0,1650822952851831.0
-3.0,-4.0,-2.0,4.0,5.0,0.0,0.0,-1.0,1650822952852789.0
0.0,18.0,1.0,-1.0,-2.0,2.0,1.0,-2.0,1650822952852789.0
0.0,-24.0,1.0,12.0,17.0,7.0,1.0,2.0,1650822952874349.0
-6.0,-23.0,-15.0,-11.0,-19.0,-10.0,-3.0,-5.0,1650822952874349.0
-5.0,-20.0,-4.0,-2.0,2.0,-3.0,-2.0,-3.0,1650822952875806.0
-1.0,16.0,-6.0,-6.0,0.0,-3.0,-1.0,-2.0,1650822952875806.0
4.0,17.0,7.0,5.0,13.0,7.0,1.0,1.0,1650822952887941.0
-5.0,-20.0,-17.0,-7.0,-15.0,0.0,0.0,-1.0,1650822952887941.0
4.0,15.0,8.0,1.0,-2.0,-3.0,-2.0,-1.0,1650822952896852.0
2.0,-17.0,3.0,3.0,-7.0,0.0,-2.0,1.0,1650822952896852.0
-7.0,20.0,-6.0,-6.0,7.0,-2.0,-3.0,-2.0,1650822952912429.0
-2.0,1.0,5.0,4.0,6.0,0.0,2.0,-1.0,1650822952912429.0
2.0,11.0,-4.0,-4.0,-4.0,-2.0,-2.0,1.0,1650822952914428.0
-3.0,-8.0,0.0,1.0,-5.0,2.0,0.0,0.0,1650822952914428.0
5.0,-7.0,-7.0,-5.0,-2.0,-1.0,-2.0,4.0,1650822952934349.0
-2.0,-10.0,-3.0,-3.0,-3.0,-4.0,-4.0,0.0,1650822952934349.0
2.0,-5.0,1.0,4.0,4.0,3.0,1.0,1.0,1650822952935830.0
-8.0,-27.0,4.0,1.0,-9.0,0.0,-1.0,-5.0,1650822952935830.0
-1.0,-3.0,-13.0,-3.0,-3.0,-1.0,-2.0,0.0,1650822952947974.0
0.0,0.0,1.0,-2.0,6.0,2.0,1.0,-1.0,1650822952947974.0
-2.0,0.0,-1.0,-1.0,1.0,-1.0,-2.0,0.0,1650822952956124.0
1.0,-5.0,-4.0,-5.0,-1.0,-10.0,-3.0,1.0,1650822952956124.0
-1.0,-11.0,-3.0,1.0,-8.0,1.0,1.0,0.0,1650822952970150.0
-1.0,3.0,8.0,3.0,-6.0,-1.0,1.0,2.0,1650822952970150.0
6.0,23.0,6.0,2.0,5.0,3.0,1.0,3.0,1650822952979115.0
7.0,36.0,6.0,4.0,-3.0,-2.0,-1.0,2.0,1650822952979115.0
-7.0,9.0,-4.0,-6.0,5.0,-1.0,-1.0,-3.0,1650822952994324.0
4.0,14.0,12.0,9.0,9.0,6.0,2.0,2.0,1650822952994324.0
-2.0,-17.0,-12.0,-12.0,3.0,2.0,1.0,-1.0,1650822952995805.0
1.0,31.0,7.0,-3.0,-3.0,-3.0,-2.0,-2.0,1650822952995805.0
1.0,-14.0,1.0,-2.0,-5.0,-3.0,-3.0,-1.0,1650822953008003.0
0.0,-10.0,-3.0,3.0,6.0,4.0,0.0,-1.0,1650822953008003.0
4.0,19.0,10.0,3.0,-7.0,-4.0,-1.0,1.0,1650822953016995.0
1.0,-33.0,-11.0,3.0,-10.0,-2.0,-1.0,2.0,1650822953016995.0
-10.0,-3.0,-19.0,-4.0,7.0,0.0,-1.0,-5.0,1650822953031898.0
-4.0,14.0,8.0,4.0,8.0,5.0,1.0,-1.0,1650822953031898.0
-4.0,-16.0,-6.0,0.0,0.0,-2.0,-1.0,-2.0,1650822953032880.0
5.0,1.0,-12.0,-3.0,3.0,3.0,1.0,5.0,1650822953032880.0
-6.0,-45.0,-4.0,-3.0,-8.0,-4.0,-2.0,-3.0,1650822953054349.0
1.0,-5.0,-3.0,-5.0,-3.0,-5.0,-3.0,0.0,1650822953054349.0
-2.0,8.0,-2.0,0.0,2.0,-1.0,-1.0,-3.0,1650822953055809.0
-5.0,-2.0,-1.0,-8.0,-15.0,-3.0,-2.0,-1.0,1650822953055809.0
4.0,9.0,6.0,0.0,-8.0,-4.0,0.0,1.0,1650822953067956.0
-1.0,2.0,1.0,6.0,12.0,7.0,2.0,-1.0,1650822953067956.0
-3.0,-36.0,-7.0,6.0,2.0,-7.0,1.0,2.0,1650822953082917.0
-1.0,41.0,15.0,-3.0,8.0,0.0,-1.0,-3.0,1650822953082917.0
1.0,-3.0,-5.0,-6.0,-1.0,-2.0,-1.0,0.0,1650822953091879.0
-5.0,-22.0,-10.0,-9.0,-10.0,-7.0,-3.0,-3.0,1650822953091879.0
-3.0,2.0,0.0,1.0,3.0,2.0,-2.0,-3.0,1650822953092833.0
-3.0,-4.0,-11.0,-1.0,0.0,-1.0,-1.0,-2.0,1650822953092833.0
3.0,5.0,7.0,1.0,-3.0,0.0,1.0,1.0,1650822953113910.0
10.0,35.0,5.0,0.0,0.0,-2.0,1.0,3.0,1650822953113910.0
-16.0,-61.0,-7.0,0.0,-6.0,6.0,1.0,-6.0,1650822953115840.0
-1.0,3.0,7.0,6.0,6.0,-1.0,-1.0,0.0,1650822953115840.0
2.0,5.0,-2.0,-10.0,2.0,2.0,1.0,-1.0,1650822953136866.0
-2.0,-7.0,-1.0,1.0,2.0,-1.0,-1.0,0.0,1650822953136866.0
3.0,20.0,2.0,-1.0,-6.0,-6.0,-2.0,1.0,1650822953137862.0
-4.0,-16.0,-2.0,2.0,-2.0,1.0,0.0,-2.0,1650822953137862.0
0.0,-2.0,3.0,9.0,7.0,1.0,-1.0,1.0,1650822953151868.0
1.0,-6.0,-4.0,-7.0,-10.0,-7.0,-3.0,-1.0,1650822953151868.0
-5.0,2.0,-13.0,-5.0,-18.0,-6.0,-4.0,-6.0,1650822953152836.0
0.0,-4.0,5.0,7.0,23.0,13.0,7.0,-1.0,1650822953152836.0
11.0,14.0,7.0,9.0,9.0,5.0,3.0,9.0,1650822953173999.0
-6.0,-15.0,-12.0,-6.0,0.0,-2.0,-3.0,-3.0,1650822953173999.0
7.0,22.0,7.0,0.0,-4.0,-1.0,-2.0,3.0,1650822953175001.0
-4.0,-10.0,-5.0,-5.0,-6.0,-6.0,-3.0,-3.0,1650822953175001.0
0.0,-8.0,-2.0,2.0,-2.0,-1.0,0.0,0.0,1650822953196882.0
0.0,4.0,-4.0,-1.0,-4.0,1.0,0.0,2.0,1650822953196882.0
6.0,15.0,11.0,2.0,15.0,6.0,0.0,-3.0,1650822953197882.0
-3.0,-28.0,-9.0,1.0,-4.0,3.0,1.0,-2.0,1650822953197882.0
7.0,1.0,-2.0,-1.0,2.0,-1.0,3.0,5.0,1650822953211882.0
1.0,-17.0,-4.0,3.0,-15.0,-6.0,-1.0,-3.0,1650822953211882.0
-15.0,22.0,-1.0,-5.0,1.0,-6.0,-4.0,-2.0,1650822953212858.0
0.0,0.0,2.0,-4.0,2.0,1.0,-2.0,1.0,1650822953212858.0
-2.0,-3.0,-2.0,-2.0,-4.0,1.0,-1.0,-2.0,1650822953234148.0
5.0,-14.0,0.0,-7.0,16.0,0.0,-2.0,1.0,1650822953234148.0
-1.0,14.0,0.0,-8.0,-25.0,-7.0,-2.0,-2.0,1650822953235147.0
0.0,-3.0,15.0,20.0,18.0,16.0,7.0,1.0,1650822953235147.0
-2.0,3.0,4.0,1.0,5.0,-1.0,-1.0,-2.0,1650822953257076.0
-3.0,-2.0,1.0,-2.0,1.0,0.0,2.0,2.0,1650822953257076.0
0.0,6.0,4.0,-2.0,-1.0,-5.0,0.0,-2.0,1650822953258035.0
-2.0,-2.0,-9.0,-12.0,-14.0,-7.0,-5.0,-2.0,1650822953258035.0
-3.0,0.0,4.0,-4.0,-11.0,-7.0,-6.0,-2.0,1650822953271040.0
-6.0,9.0,1.0,5.0,3.0,2.0,0.0,-4.0,1650822953271040.0
5.0,3.0,10.0,5.0,15.0,6.0,3.0,4.0,1650822953272968.0
0.0,-8.0,-13.0,-6.0,-13.0,-3.0,-1.0,-1.0,1650822953272968.0
-3.0,-2.0,3.0,-2.0,1.0,-4.0,-1.0,0.0,1650822953294416.0
-3.0,0.0,1.0,-1.0,-8.0,-3.0,-1.0,-1.0,1650822953294416.0
9.0,10.0,3.0,2.0,3.0,1.0,2.0,1.0,1650822953295391.0
-5.0,-4.0,4.0,0.0,8.0,0.0,-3.0,-2.0,1650822953295391.0
-5.0,-11.0,-13.0,-8.0,-5.0,2.0,-1.0,-2.0,1650822953316824.0
-1.0,1.0,4.0,1.0,-2.0,3.0,0.0,1.0,1650822953316824.0
2.0,-23.0,-21.0,-3.0,7.0,3.0,0.0,2.0,1650822953317839.0
-3.0,-17.0,-1.0,-4.0,-10.0,-11.0,1.0,-1.0,1650822953317839.0
-2.0,2.0,2.0,3.0,-14.0,-2.0,1.0,-1.0,1650822953330874.0
1.0,1.0,3.0,4.0,3.0,-1.0,1.0,0.0,1650822953330874.0
1.0,-6.0,8.0,1.0,-2.0,2.0,-1.0,-1.0,1650822953337900.0
0.0,9.0,-3.0,-4.0,3.0,0.0,-2.0,0.0,1650822953337900.0
-3.0,0.0,0.0,9.0,14.0,6.0,3.0,-2.0,1650822953354099.0
3.0,9.0,4.0,5.0,7.0,1.0,1.0,-1.0,1650822953354099.0
-2.0,-9.0,-2.0,-4.0,-18.0,-5.0,-2.0,-1.0,1650822953359877.0
1.0,8.0,-8.0,-9.0,-2.0,-3.0,-1.0,1.0,1650822953359877.0
5.0,-9.0,-9.0,-8.0,-4.0,0.0,0.0,0.0,1650822953376832.0
-10.0,1.0,-4.0,-1.0,1.0,1.0,-2.0,-3.0,1650822953376832.0
2.0,9.0,10.0,11.0,12.0,2.0,3.0,1.0,1650822953377763.0
2.0,1.0,6.0,-1.0,-3.0,-4.0,-3.0,0.0,1650822953377763.0
-1.0,-9.0,0.0,2.0,-5.0,0.0,1.0,0.0,1650822953390794.0
-1.0,16.0,4.0,-1.0,0.0,-2.0,-2.0,-2.0,1650822953390794.0
-1.0,4.0,-1.0,-4.0,-3.0,-2.0,1.0,-1.0,1650822953397976.0
1.0,6.0,-4.0,-1.0,-9.0,-2.0,1.0,0.0,1650822953397976.0
1.0,5.0,-3.0,1.0,22.0,11.0,0.0,0.0,1650822953413947.0
0.0,0.0,7.0,5.0,-14.0,-2.0,1.0,1.0,1650822953413947.0
-2.0,18.0,-1.0,-8.0,-2.0,-3.0,-2.0,-3.0,1650822953415964.0
0.0,5.0,2.0,-3.0,2.0,-3.0,0.0,-1.0,1650822953415964.0
-2.0,2.0,-1.0,3.0,7.0,-2.0,0.0,-1.0,1650822953436860.0
-3.0,-12.0,10.0,7.0,-8.0,2.0,1.0,-2.0,1650822953436860.0
-6.0,-10.0,-12.0,-3.0,-3.0,-2.0,0.0,0.0,1650822953437860.0
1.0,4.0,-8.0,-3.0,-1.0,6.0,1.0,-1.0,1650822953437860.0
-4.0,-1.0,-1.0,-2.0,-6.0,-13.0,-4.0,-1.0,1650822953450923.0
3.0,11.0,-6.0,-3.0,-5.0,-1.0,1.0,-2.0,1650822953450923.0
-2.0,-18.0,0.0,2.0,5.0,1.0,-1.0,0.0,1650822953457999.0
-3.0,-3.0,-5.0,2.0,6.0,7.0,-1.0,-2.0,1650822953457999.0
1.0,10.0,1.0,-2.0,-7.0,-9.0,0.0,-1.0,1650822953473822.0
4.0,-9.0,-2.0,-1.0,2.0,0.0,0.0,0.0,1650822953473822.0
-4.0,13.0,7.0,5.0,-5.0,-4.0,0.0,-2.0,1650822953475778.0
-3.0,-6.0,-12.0,-12.0,3.0,0.0,-1.0,-2.0,1650822953475778.0
0.0,-7.0,-1.0,2.0,0.0,4.0,0.0,-1.0,1650822953496824.0
-5.0,-11.0,-11.0,-9.0,-15.0,-4.0,-5.0,-2.0,1650822953496824.0
0.0,0.0,-2.0,4.0,2.0,0.0,1.0,-1.0,1650822953497792.0
5.0,4.0,10.0,6.0,-3.0,-4.0,2.0,1.0,1650822953497792.0
0.0,-5.0,0.0,-2.0,-10.0,-2.0,-1.0,0.0,1650822953510924.0
-1.0,2.0,-2.0,0.0,7.0,1.0,-1.0,1.0,1650822953510924.0
-3.0,-9.0,-6.0,-2.0,2.0,2.0,-4.0,-4.0,1650822953517934.0
-9.0,3.0,4.0,5.0,2.0,0.0,1.0,1.0,1650822953517934.0
-11.0,-7.0,0.0,-5.0,-1.0,-1.0,-2.0,-3.0,1650822953534060.0
3.0,-2.0,-1.0,-1.0,0.0,2.0,0.0,1.0,1650822953534060.0
2.0,5.0,-10.0,-4.0,1.0,0.0,1.0,1.0,1650822953534991.0
6.0,15.0,16.0,1.0,-2.0,-3.0,-2.0,-2.0,1650822953534991.0
2.0,-2.0,-4.0,2.0,0.0,3.0,2.0,2.0,1650822953556193.0
-2.0,3.0,0.0,-1.0,7.0,1.0,0.0,0.0,1650822953556193.0
6.0,-2.0,-4.0,1.0,3.0,2.0,1.0,2.0,1650822953558191.0
1.0,0.0,3.0,1.0,-3.0,-3.0,-3.0,-1.0,1650822953558191.0
-4.0,7.0,5.0,-3.0,-9.0,-1.0,-2.0,-1.0,1650822953571258.0
-2.0,-2.0,-8.0,4.0,13.0,-1.0,0.0,-1.0,1650822953571258.0
6.0,-3.0,-1.0,-5.0,-25.0,-3.0,3.0,2.0,1650822953577307.0
-8.0,-22.0,-16.0,-2.0,-4.0,0.0,-1.0,-1.0,1650822953577307.0
1.0,-3.0,8.0,-2.0,3.0,-3.0,-1.0,-1.0,1650822953594328.0
-5.0,-11.0,-10.0,-10.0,-2.0,1.0,0.0,-1.0,1650822953594328.0
-4.0,1.0,0.0,1.0,14.0,0.0,-1.0,-1.0,1650822953595804.0
3.0,0.0,-5.0,2.0,-1.0,-2.0,1.0,1.0,1650822953595804.0
12.0,24.0,6.0,4.0,-3.0,6.0,1.0,3.0,1650822953616886.0
-1.0,2.0,3.0,3.0,5.0,-4.0,-2.0,0.0,1650822953616886.0
8.0,2.0,-1.0,-3.0,-4.0,-2.0,0.0,0.0,1650822953617848.0
-6.0,12.0,4.0,2.0,-3.0,-3.0,-1.0,-2.0,1650822953617848.0
2.0,-21.0,-8.0,3.0,7.0,1.0,2.0,0.0,1650822953629873.0
-2.0,8.0,3.0,2.0,-3.0,1.0,1.0,-2.0,1650822953629873.0
-2.0,-8.0,5.0,2.0,2.0,0.0,0.0,1.0,1650822953638827.0
1.0,18.0,9.0,-6.0,-3.0,-1.0,-2.0,-2.0,1650822953638827.0
-4.0,-24.0,-4.0,3.0,5.0,0.0,-1.0,-2.0,1650822953654324.0
1.0,-1.0,-2.0,0.0,-5.0,2.0,0.0,3.0,1650822953654324.0
1.0,2.0,-4.0,-4.0,1.0,-3.0,-3.0,-1.0,1650822953655832.0
-2.0,-11.0,-8.0,-6.0,-6.0,-3.0,-2.0,-1.0,1650822953655832.0
-2.0,12.0,5.0,2.0,2.0,2.0,1.0,0.0,1650822953676826.0
0.0,-7.0,6.0,3.0,-9.0,0.0,2.0,0.0,1650822953676826.0
-2.0,9.0,9.0,7.0,-4.0,-2.0,2.0,0.0,1650822953677837.0
3.0,-6.0,-7.0,5.0,12.0,1.0,2.0,1.0,1650822953677837.0
-2.0,1.0,-13.0,-18.0,1.0,1.0,-2.0,-3.0,1650822953689925.0
-2.0,-4.0,-6.0,-3.0,-3.0,-5.0,-1.0,0.0,1650822953689925.0
1.0,0.0,-4.0,4.0,11.0,3.0,0.0,0.0,1650822953698836.0
5.0,3.0,4.0,-2.0,-5.0,-3.0,-1.0,2.0,1650822953698836.0
-13.0,13.0,4.0,6.0,-5.0,0.0,0.0,-2.0,1650822953713977.0
-6.0,-13.0,-3.0,-4.0,1.0,0.0,-2.0,-3.0,1650822953713977.0
-5.0,10.0,5.0,-10.0,2.0,8.0,-3.0,-1.0,1650822953715907.0
8.0,-20.0,-22.0,-1.0,2.0,-5.0,0.0,-1.0,1650822953715907.0
-11.0,18.0,13.0,1.0,-10.0,-4.0,0.0,-1.0,1650822953735908.0
9.0,4.0,1.0,-4.0,18.0,-3.0,-1.0,-2.0,1650822953735908.0
-4.0,-5.0,5.0,8.0,-21.0,0.0,4.0,5.0,1650822953742900.0
-3.0,6.0,9.0,8.0,10.0,9.0,1.0,11.0,1650822953742900.0
19.0,-2.0,-4.0,-4.0,-1.0,-2.0,-6.0,-25.0,1650822953749882.0
0.0,-3.0,-1.0,-3.0,-5.0,-5.0,-3.0,-4.0,1650822953749882.0
5.0,5.0,0.0,-4.0,13.0,0.0,0.0,-1.0,1650822953758834.0
0.0,-1.0,-3.0,-1.0,-15.0,-1.0,-1.0,-4.0,1650822953758834.0
1.0,-5.0,-1.0,-5.0,-1.0,-2.0,2.0,9.0,1650822953774299.0
3.0,7.0,-3.0,0.0,2.0,1.0,1.0,4.0,1650822953774299.0
-3.0,-6.0,-2.0,3.0,3.0,-2.0,-5.0,-5.0,1650822953775832.0
-2.0,-3.0,-3.0,-3.0,-5.0,-4.0,1.0,1.0,1650822953775832.0
1.0,5.0,11.0,8.0,8.0,1.0,0.0,3.0,1650822953796889.0
2.0,0.0,5.0,3.0,-19.0,-4.0,-2.0,-1.0,1650822953796889.0
7.0,2.0,-11.0,-3.0,7.0,13.0,4.0,7.0,1650822953797859.0
-17.0,-4.0,14.0,-6.0,9.0,-3.0,2.0,2.0,1650822953797859.0
-6.0,-9.0,-3.0,-4.0,-11.0,-4.0,-7.0,-6.0,1650822953810823.0
1.0,-9.0,-12.0,-7.0,6.0,3.0,-5.0,-4.0,1650822953810823.0
-1.0,-5.0,2.0,5.0,-1.0,-9.0,0.0,2.0,1650822953818803.0
-12.0,-1.0,10.0,7.0,-7.0,2.0,1.0,-9.0,1650822953818803.0
15.0,2.0,0.0,4.0,4.0,0.0,-2.0,1.0,1650822953833815.0
-5.0,-7.0,-7.0,1.0,-2.0,1.0,3.0,10.0,1650822953833815.0
-12.0,-10.0,-3.0,-4.0,1.0,-6.0,-15.0,-25.0,1650822953835746.0
5.0,18.0,5.0,-1.0,-9.0,1.0,-1.0,-1.0,1650822953835746.0
-4.0,5.0,1.0,2.0,1.0,3.0,3.0,4.0,1650822953856851.0
2.0,7.0,4.0,2.0,0.0,0.0,0.0,0.0,1650822953856851.0
4.0,2.0,4.0,-1.0,5.0,-1.0,0.0,7.0,1650822953857811.0
2.0,-6.0,-5.0,3.0,3.0,2.0,3.0,-4.0,1650822953857811.0
1.0,-4.0,-7.0,1.0,14.0,2.0,6.0,21.0,1650822953869837.0
4.0,6.0,1.0,2.0,-17.0,0.0,-7.0,-38.0,1650822953869837.0
-17.0,-6.0,0.0,-10.0,-2.0,-5.0,-9.0,-3.0,1650822953878798.0
2.0,-2.0,3.0,-3.0,2.0,0.0,1.0,0.0,1650822953878798.0
5.0,5.0,0.0,1.0,-1.0,0.0,-1.0,3.0,1650822953893909.0
-4.0,-7.0,-10.0,-9.0,-1.0,2.0,4.0,12.0,1650822953893909.0
-7.0,3.0,3.0,11.0,4.0,-4.0,2.0,0.0,1650822953895933.0
12.0,-4.0,-7.0,-8.0,-5.0,-3.0,-3.0,-3.0,1650822953895933.0
-2.0,1.0,-8.0,-7.0,-5.0,2.0,3.0,3.0,1650822953915963.0
-13.0,-6.0,9.0,5.0,4.0,-1.0,-1.0,1.0,1650822953915963.0
11.0,5.0,-1.0,0.0,-5.0,4.0,16.0,21.0,1650822953917930.0
-8.0,0.0,4.0,3.0,8.0,2.0,-17.0,-20.0,1650822953917930.0
15.0,-3.0,-4.0,-4.0,8.0,-5.0,1.0,-5.0,1650822953930045.0
11.0,9.0,4.0,-1.0,-19.0,-1.0,0.0,5.0,1650822953930045.0
-9.0,-4.0,4.0,4.0,27.0,14.0,4.0,-3.0,1650822953939040.0
0.0,-5.0,-5.0,-3.0,-13.0,-11.0,4.0,7.0,1650822953939040.0
-8.0,-3.0,-8.0,-7.0,-14.0,-4.0,-2.0,-1.0,1650822953953974.0
-8.0,1.0,-4.0,2.0,5.0,-4.0,-7.0,-5.0,1650822953953974.0
4.0,1.0,2.0,-2.0,-6.0,2.0,3.0,-3.0,1650822953955903.0
13.0,-1.0,0.0,3.0,23.0,6.0,3.0,8.0,1650822953955903.0
-20.0,-9.0,-14.0,-3.0,-15.0,0.0,5.0,17.0,1650822953976883.0
6.0,4.0,0.0,-2.0,4.0,-4.0,-6.0,-16.0,1650822953976883.0
-10.0,-6.0,-3.0,-3.0,-10.0,-5.0,-4.0,-9.0,1650822953977894.0
6.0,0.0,2.0,12.0,4.0,1.0,-2.0,0.0,1650822953977894.0
9.0,7.0,15.0,7.0,5.0,7.0,6.0,8.0,1650822953990016.0
-4.0,-7.0,-4.0,-1.0,9.0,4.0,11.0,6.0,1650822953990016.0
27.0,9.0,7.0,5.0,-8.0,-5.0,-13.0,5.0,1650822953998809.0
-20.0,-4.0,-13.0,-6.0,2.0,-2.0,1.0,-5.0,1650822953998809.0
2.0,-12.0,-3.0,-8.0,-10.0,-5.0,-7.0,-14.0,1650822954021881.0
1.0,8.0,9.0,-1.0,-8.0,-1.0,0.0,8.0,1650822954021881.0
7.0,-1.0,-11.0,2.0,-5.0,0.0,0.0,-2.0,1650822954022878.0
-6.0,-7.0,0.0,-3.0,-4.0,-1.0,3.0,-8.0,1650822954022878.0
1.0,12.0,10.0,3.0,4.0,3.0,-17.0,-13.0,1650822954035981.0
9.0,-4.0,-2.0,0.0,23.0,-1.0,10.0,12.0,1650822954035981.0
-13.0,-4.0,0.0,5.0,-17.0,-1.0,5.0,3.0,1650822954037979.0
5.0,1.0,-8.0,-3.0,-3.0,-1.0,2.0,2.0,1650822954037979.0
-10.0,-6.0,1.0,0.0,-3.0,-4.0,-5.0,-5.0,1650822954049926.0
4.0,10.0,20.0,4.0,4.0,3.0,1.0,0.0,1650822954049926.0
-1.0,-1.0,-1.0,20.0,13.0,0.0,-1.0,-3.0,1650822954058835.0
3.0,-17.0,-30.0,-25.0,-3.0,4.0,4.0,6.0,1650822954058835.0
12.0,0.0,0.0,-17.0,-10.0,-9.0,-6.0,-8.0,1650822954073937.0
-10.0,6.0,2.0,7.0,-7.0,1.0,2.0,9.0,1650822954073937.0
-18.0,-12.0,6.0,-21.0,-5.0,-7.0,-8.0,-8.0,1650822954075867.0
17.0,9.0,8.0,8.0,-9.0,1.0,-1.0,4.0,1650822954075867.0
-23.0,-3.0,-7.0,16.0,6.0,-1.0,-2.0,-5.0,1650822954096910.0
15.0,2.0,-3.0,-1.0,-5.0,0.0,-1.0,4.0,1650822954096910.0
-1.0,8.0,5.0,-2.0,2.0,-1.0,3.0,-3.0,1650822954097910.0
-5.0,4.0,7.0,4.0,-6.0,5.0,3.0,7.0,1650822954097910.0
6.0,-2.0,1.0,-2.0,4.0,5.0,10.0,5.0,1650822954118863.0
8.0,15.0,9.0,14.0,9.0,9.0,16.0,30.0,1650822954118863.0
-5.0,-18.0,-20.0,-17.0,-5.0,-8.0,-26.0,-72.0,1650822954120887.0
-2.0,-7.0,-10.0,-13.0,0.0,-4.0,-12.0,-6.0,1650822954120887.0
-14.0,-1.0,6.0,6.0,-12.0,-9.0,-7.0,-10.0,1650822954133893.0
2.0,-7.0,-20.0,-5.0,7.0,5.0,6.0,1.0,1650822954133893.0
20.0,20.0,13.0,11.0,22.0,16.0,15.0,35.0,1650822954135820.0
-44.0,-10.0,-4.0,-6.0,-6.0,-15.0,2.0,-4.0,1650822954135820.0
10.0,-1.0,9.0,10.0,-2.0,1.0,13.0,0.0,1650822954156882.0
13.0,5.0,3.0,0.0,2.0,-9.0,0.0,-5.0,1650822954156882.0
-4.0,28.0,-2.0,7.0,-10.0,6.0,19.0,18.0,1650822954157881.0
-30.0,-35.0,23.0,5.0,22.0,7.0,-7.0,-12.0,1650822954157881.0
13.0,-1.0,-38.0,-17.0,-8.0,-7.0,-14.0,3.0,1650822954179233.0
-12.0,-21.0,-5.0,-18.0,-14.0,-7.0,-16.0,-6.0,1650822954179233.0
-17.0,-29.0,-39.0,-10.0,-7.0,5.0,28.0,35.0,1650822954180243.0
20.0,19.0,20.0,-9.0,-15.0,-1.0,0.0,-13.0,1650822954180243.0
4.0,-8.0,-2.0,16.0,27.0,5.0,-16.0,-19.0,1650822954201509.0
13.0,28.0,37.0,0.0,-6.0,15.0,43.0,29.0,1650822954201509.0
22.0,17.0,-18.0,-20.0,-22.0,-27.0,-28.0,-18.0,1650822954203439.0
-30.0,-18.0,-16.0,-1.0,-6.0,-4.0,-13.0,-6.0,1650822954203439.0
9.0,14.0,19.0,3.0,1.0,22.0,15.0,-12.0,1650822954216824.0
3.0,2.0,-15.0,-8.0,-3.0,-30.0,-71.0,-46.0,1650822954216824.0
28.0,28.0,26.0,8.0,7.0,5.0,46.0,45.0,1650822954217551.0
16.0,2.0,-11.0,-2.0,0.0,1.0,21.0,14.0,1650822954217551.0
-78.0,-21.0,-5.0,-6.0,-9.0,-28.0,-67.0,-67.0,1650822954238874.0
-6.0,0.0,-13.0,8.0,-6.0,4.0,-4.0,2.0,1650822954238874.0
2.0,23.0,21.0,-7.0,1.0,10.0,-8.0,1.0,1650822954240900.0
29.0,-29.0,-15.0,12.0,11.0,-2.0,49.0,19.0,1650822954240900.0
28.0,24.0,43.0,45.0,2.0,19.0,24.0,27.0,1650822954253836.0
-38.0,-23.0,-50.0,-56.0,24.0,18.0,8.0,1.0,1650822954253836.0
17.0,-6.0,-7.0,10.0,-12.0,-15.0,-45.0,-38.0,1650822954259822.0
-7.0,17.0,-9.0,-3.0,23.0,23.0,15.0,32.0,1650822954259822.0
10.0,2.0,-2.0,-7.0,-16.0,-16.0,-5.0,0.0,1650822954276883.0
21.0,8.0,34.0,27.0,2.0,-1.0,19.0,23.0,1650822954276883.0
32.0,56.0,27.0,6.0,6.0,9.0,4.0,18.0,1650822954277883.0
-34.0,-21.0,0.0,15.0,3.0,3.0,-1.0,-17.0,1650822954277883.0
1.0,18.0,14.0,4.0,0.0,7.0,-5.0,-8.0,1650822954299145.0
9.0,4.0,-1.0,-5.0,-10.0,-7.0,-4.0,3.0,1650822954299145.0
59.0,-18.0,-4.0,4.0,7.0,17.0,-12.0,-26.0,1650822954300089.0
-66.0,44.0,40.0,25.0,0.0,-12.0,-4.0,-28.0,1650822954300089.0
-36.0,11.0,-51.0,-44.0,4.0,-9.0,-10.0,15.0,1650822954312112.0
34.0,-72.0,-12.0,-2.0,-6.0,-13.0,-19.0,5.0,1650822954312112.0
-45.0,-2.0,1.0,-2.0,-1.0,-2.0,-8.0,-14.0,1650822954322026.0
57.0,14.0,17.0,26.0,-9.0,16.0,25.0,32.0,1650822954322026.0
-19.0,22.0,2.0,-17.0,25.0,16.0,7.0,6.0,1650822954336166.0
-43.0,-57.0,-34.0,-7.0,-21.0,-10.0,2.0,-15.0,1650822954336166.0
28.0,-17.0,7.0,-9.0,2.0,0.0,15.0,20.0,1650822954338096.0
-13.0,19.0,-25.0,-12.0,-11.0,0.0,-5.0,24.0,1650822954338096.0
4.0,2.0,-1.0,3.0,3.0,-3.0,30.0,13.0,1650822954358875.0
-37.0,-21.0,37.0,35.0,20.0,11.0,-18.0,-3.0,1650822954358875.0
38.0,8.0,-28.0,-11.0,-3.0,2.0,-4.0,21.0,1650822954360896.0
-18.0,-27.0,9.0,-8.0,-16.0,-11.0,-20.0,-17.0,1650822954360896.0
17.0,-15.0,-1.0,-2.0,-1.0,-2.0,-16.0,-26.0,1650822954372906.0
-58.0,8.0,2.0,0.0,-3.0,-2.0,11.0,-20.0,1650822954372906.0
31.0,2.0,10.0,6.0,0.0,9.0,16.0,-8.0,1650822954381816.0
57.0,45.0,9.0,-1.0,3.0,-8.0,-28.0,7.0,1650822954381816.0
38.0,6.0,-1.0,4.0,-6.0,-11.0,29.0,25.0,1650822954396848.0
-1.0,-6.0,-9.0,-2.0,2.0,3.0,-13.0,11.0,1650822954396848.0
-78.0,-30.0,-6.0,-9.0,-16.0,-16.0,-19.0,5.0,1650822954397841.0
-4.0,-22.0,-10.0,-11.0,-6.0,-1.0,17.0,11.0,1650822954397841.0
-26.0,-10.0,32.0,43.0,-3.0,5.0,16.0,14.0,1650822954418986.0
28.0,58.0,-7.0,-39.0,12.0,9.0,14.0,-3.0,1650822954418986.0
-7.0,-2.0,-6.0,12.0,4.0,2.0,45.0,57.0,1650822954420959.0
-32.0,-40.0,-4.0,-35.0,-22.0,-20.0,-13.0,-23.0,1650822954420959.0
31.0,3.0,-36.0,-23.0,-8.0,-5.0,-20.0,0.0,1650822954432994.0
4.0,41.0,24.0,33.0,8.0,11.0,35.0,21.0,1650822954432994.0
-30.0,-40.0,-27.0,-10.0,3.0,-8.0,-21.0,-26.0,1650822954440046.0
66.0,45.0,21.0,12.0,-2.0,3.0,-9.0,16.0,1650822954440046.0
-29.0,-25.0,23.0,15.0,-1.0,0.0,31.0,-2.0,1650822954456799.0
27.0,-13.0,-21.0,-12.0,-2.0,-10.0,-24.0,-31.0,1650822954456799.0
-24.0,-22.0,-20.0,-13.0,-11.0,-16.0,-29.0,-37.0,1650822954458085.0
22.0,41.0,9.0,5.0,1.0,-7.0,-13.0,11.0,1650822954458085.0
35.0,-8.0,-5.0,-3.0,10.0,27.0,8.0,40.0,1650822954479221.0
34.0,2.0,-2.0,-2.0,-7.0,-10.0,5.0,-41.0,1650822954479221.0
-93.0,-16.0,20.0,11.0,-4.0,-14.0,-4.0,-12.0,1650822954480170.0
51.0,8.0,-22.0,-13.0,-7.0,-4.0,-30.0,-16.0,1650822954480170.0
51.0,48.0,45.0,30.0,6.0,2.0,-17.0,4.0,1650822954493786.0
-44.0,-86.0,-39.0,-25.0,1.0,5.0,25.0,10.0,1650822954493786.0
-34.0,-13.0,-55.0,-29.0,-8.0,0.0,-4.0,-14.0,1650822954499774.0
33.0,-34.0,-17.0,-31.0,-14.0,-7.0,-2.0,15.0,1650822954499774.0
-13.0,12.0,18.0,1.0,-8.0,0.0,-1.0,-35.0,1650822954516849.0
25.0,28.0,26.0,28.0,8.0,3.0,-14.0,3.0,1650822954516849.0
-3.0,37.0,30.0,15.0,13.0,4.0,11.0,1.0,1650822954517860.0
-65.0,-35.0,-17.0,5.0,7.0,14.0,-5.0,-12.0,1650822954517860.0
6.0,-33.0,-22.0,-16.0,-7.0,-14.0,5.0,26.0,1650822954538858.0
40.0,52.0,22.0,9.0,-10.0,-10.0,0.0,-6.0,1650822954538858.0
-47.0,3.0,-7.0,-13.0,3.0,0.0,-8.0,0.0,1650822954540882.0
50.0,9.0,7.0,19.0,11.0,4.0,8.0,15.0,1650822954540882.0
-25.0,-17.0,-3.0,-3.0,5.0,9.0,-9.0,5.0,1650822954552916.0
-46.0,6.0,-9.0,-16.0,-18.0,-22.0,-8.0,-35.0,1650822954552916.0
29.0,-31.0,4.0,9.0,-3.0,-6.0,-30.0,-12.0,1650822954561856.0
-2.0,12.0,24.0,38.0,18.0,15.0,40.0,38.0,1650822954561856.0
3.0,-13.0,-22.0,-44.0,-13.0,-13.0,-12.0,-20.0,1650822954577357.0
-53.0,-15.0,8.0,24.0,-15.0,-4.0,-10.0,9.0,1650822954577357.0
62.0,8.0,13.0,0.0,26.0,13.0,17.0,8.0,1650822954578367.0
-58.0,-14.0,-27.0,-35.0,-16.0,-13.0,-20.0,-29.0,1650822954578367.0
52.0,31.0,5.0,-2.0,6.0,3.0,-20.0,-17.0,1650822954598698.0
-41.0,-7.0,29.0,32.0,13.0,15.0,21.0,30.0,1650822954598698.0
20.0,6.0,14.0,-5.0,-15.0,-5.0,-15.0,-17.0,1650822954600626.0
17.0,38.0,2.0,7.0,12.0,13.0,-3.0,-12.0,1650822954600626.0
17.0,11.0,3.0,12.0,1.0,-11.0,8.0,13.0,1650822954614385.0
31.0,51.0,15.0,-6.0,-2.0,14.0,2.0,-17.0,1650822954614385.0
6.0,-5.0,-6.0,0.0,-9.0,-1.0,21.0,11.0,1650822954621380.0
13.0,-27.0,5.0,-3.0,-2.0,-14.0,-27.0,-14.0,1650822954621380.0
-19.0,-15.0,-46.0,-18.0,-3.0,12.0,46.0,26.0,1650822954636906.0
-18.0,5.0,6.0,1.0,4.0,-7.0,-52.0,-11.0,1650822954636906.0
46.0,0.0,0.0,8.0,9.0,2.0,22.0,7.0,1650822954637905.0
-30.0,10.0,22.0,21.0,-5.0,0.0,-39.0,-51.0,1650822954637905.0
-37.0,-27.0,-36.0,-31.0,2.0,-6.0,-5.0,-5.0,1650822954658865.0
24.0,-3.0,-16.0,-24.0,-8.0,-4.0,-12.0,9.0,1650822954658865.0
-24.0,31.0,87.0,70.0,11.0,20.0,18.0,11.0,1650822954660890.0
41.0,-18.0,-75.0,-41.0,9.0,0.0,16.0,15.0,1650822954660890.0
-3.0,-16.0,-14.0,-15.0,-12.0,-12.0,-25.0,-28.0,1650822954672901.0
-1.0,8.0,-3.0,-4.0,4.0,3.0,18.0,15.0,1650822954672901.0
18.0,-17.0,-7.0,-9.0,-9.0,-8.0,-17.0,-4.0,1650822954681826.0
-8.0,34.0,61.0,44.0,14.0,20.0,27.0,8.0,1650822954681826.0
-27.0,-5.0,8.0,5.0,-3.0,-9.0,-19.0,-17.0,1650822954696895.0
36.0,14.0,-8.0,3.0,3.0,3.0,29.0,31.0,1650822954696895.0
-13.0,7.0,-6.0,-1.0,-3.0,-15.0,-7.0,-5.0,1650822954697877.0
-32.0,-14.0,-17.0,-18.0,-8.0,-12.0,-59.0,-26.0,1650822954697877.0
53.0,18.0,7.0,-2.0,11.0,-1.0,-5.0,-13.0,1650822954718859.0
-71.0,-18.0,3.0,1.0,-15.0,8.0,12.0,24.0,1650822954718859.0
-10.0,1.0,-10.0,-1.0,4.0,1.0,-8.0,-37.0,1650822954720857.0
-38.0,-3.0,-5.0,-6.0,14.0,-5.0,22.0,-9.0,1650822954720857.0
9.0,22.0,19.0,25.0,-14.0,0.0,3.0,18.0,1650822954732935.0
19.0,-62.0,-5.0,-8.0,-2.0,-9.0,-6.0,-23.0,1650822954732935.0
1.0,-14.0,-50.0,-26.0,7.0,7.0,8.0,10.0,1650822954748870.0
7.0,14.0,-21.0,-32.0,-9.0,7.0,7.0,-4.0,1650822954748870.0
11.0,-3.0,32.0,29.0,3.0,5.0,6.0,9.0,1650822954756896.0
-13.0,3.0,1.0,1.0,21.0,7.0,5.0,-7.0,1650822954756896.0
24.0,15.0,28.0,9.0,-2.0,3.0,3.0,4.0,1650822954757850.0
3.0,1.0,-8.0,-8.0,-8.0,-4.0,3.0,15.0,1650822954757850.0
-1.0,-28.0,-9.0,8.0,-1.0,5.0,21.0,16.0,1650822954778856.0
-47.0,3.0,-9.0,-17.0,-19.0,-26.0,-49.0,-71.0,1650822954778856.0
-7.0,11.0,-4.0,-18.0,-4.0,-7.0,-1.0,24.0,1650822954780784.0
14.0,-20.0,13.0,16.0,7.0,16.0,32.0,23.0,1650822954780784.0
2.0,-12.0,-12.0,-5.0,7.0,11.0,10.0,18.0,1650822954792819.0
42.0,4.0,-7.0,5.0,1.0,-4.0,2.0,11.0,1650822954792819.0
-77.0,-14.0,-14.0,-12.0,-6.0,-12.0,-16.0,-20.0,1650822954801728.0
-5.0,13.0,37.0,27.0,3.0,0.0,-9.0,-1.0,1650822954801728.0
14.0,-8.0,-14.0,-10.0,7.0,-1.0,10.0,16.0,1650822954816827.0
30.0,30.0,-5.0,-29.0,-37.0,0.0,23.0,-10.0,1650822954816827.0
31.0,-15.0,-52.0,9.0,21.0,1.0,-31.0,-5.0,1650822954817775.0
-31.0,4.0,11.0,-5.0,-11.0,-4.0,10.0,12.0,1650822954817775.0
-14.0,20.0,35.0,18.0,-2.0,1.0,-14.0,-6.0,1650822954839112.0
27.0,-1.0,-26.0,-7.0,19.0,5.0,10.0,22.0,1650822954839112.0
-33.0,-20.0,-3.0,-20.0,-15.0,2.0,20.0,21.0,1650822954840047.0
-15.0,-9.0,-4.0,4.0,9.0,-4.0,-9.0,-54.0,1650822954840047.0
-2.0,16.0,-13.0,-1.0,-3.0,-3.0,-16.0,-22.0,1650822954853011.0
38.0,24.0,20.0,7.0,-1.0,0.0,-6.0,17.0,1650822954853011.0
-43.0,-18.0,2.0,3.0,-10.0,1.0,-8.0,-9.0,1650822954861988.0
56.0,-17.0,0.0,11.0,14.0,9.0,-11.0,-15.0,1650822954861988.0
-55.0,49.0,17.0,-13.0,-12.0,-11.0,25.0,-18.0,1650822954876885.0
-10.0,-59.0,-28.0,2.0,1.0,-21.0,-19.0,14.0,1650822954876885.0
18.0,12.0,-8.0,-1.0,5.0,5.0,-10.0,7.0,1650822954877885.0
45.0,20.0,24.0,20.0,0.0,-18.0,2.0,17.0,1650822954877885.0
-92.0,-61.0,-26.0,-31.0,-18.0,2.0,9.0,-12.0,1650822954898906.0
17.0,29.0,20.0,9.0,6.0,17.0,14.0,8.0,1650822954898906.0
-2.0,8.0,12.0,0.0,23.0,1.0,6.0,8.0,1650822954900862.0
35.0,9.0,15.0,41.0,2.0,11.0,6.0,21.0,1650822954900862.0
22.0,4.0,-3.0,7.0,3.0,-2.0,-6.0,5.0,1650822954912868.0
-14.0,-11.0,-21.0,-18.0,7.0,2.0,4.0,1.0,1650822954912868.0
25.0,8.0,12.0,-4.0,-10.0,2.0,10.0,5.0,1650822954921787.0
-9.0,-25.0,-9.0,-16.0,-1.0,-9.0,5.0,6.0,1650822954921787.0
12.0,-12.0,0.0,3.0,-3.0,3.0,1.0,9.0,1650822954936803.0
7.0,33.0,24.0,17.0,6.0,3.0,8.0,23.0,1650822954936803.0
-21.0,-7.0,0.0,0.0,-10.0,-4.0,7.0,0.0,1650822954937738.0
2.0,-20.0,-23.0,-23.0,-12.0,-15.0,-36.0,-34.0,1650822954937738.0
-1.0,-13.0,0.0,8.0,7.0,4.0,2.0,-1.0,1650822954958984.0
-2.0,6.0,8.0,7.0,7.0,7.0,-9.0,-6.0,1650822954958984.0
8.0,10.0,2.0,0.0,2.0,32.0,58.0,14.0,1650822954960911.0
3.0,-10.0,-14.0,-11.0,-6.0,-28.0,-7.0,19.0,1650822954960911.0
-80.0,-5.0,9.0,11.0,-7.0,-24.0,-39.0,-15.0,1650822954972946.0
34.0,12.0,-11.0,-11.0,3.0,-2.0,-22.0,-20.0,1650822954972946.0
-5.0,3.0,19.0,-5.0,-23.0,-5.0,4.0,15.0,1650822954981869.0
2.0,-12.0,-15.0,-4.0,3.0,15.0,17.0,3.0,1650822954981869.0
34.0,-21.0,-1.0,-1.0,3.0,5.0,0.0,4.0,1650822954996898.0
-35.0,-23.0,-26.0,12.0,1.0,-9.0,-4.0,-5.0,1650822954996898.0
13.0,-27.0,1.0,-5.0,-12.0,-10.0,-20.0,-23.0,1650822954997869.0
0.0,41.0,-7.0,-9.0,7.0,11.0,22.0,26.0,1650822954997869.0
13.0,2.0,-5.0,-6.0,4.0,-2.0,-14.0,11.0,1650822955026901.0
-49.0,-17.0,15.0,14.0,-3.0,1.0,3.0,-75.0,1650822955026901.0
13.0,-12.0,-8.0,-11.0,1.0,-9.0,-12.0,-21.0,1650822955027853.0
0.0,0.0,10.0,4.0,-7.0,-6.0,-20.0,-14.0,1650822955027853.0
-3.0,-1.0,-6.0,0.0,1.0,4.0,23.0,15.0,1650822955041842.0
3.0,-1.0,-15.0,-16.0,0.0,10.0,16.0,8.0,1650822955041842.0
25.0,38.0,18.0,14.0,-1.0,-9.0,-25.0,3.0,1650822955042813.0
-48.0,-18.0,-26.0,-14.0,4.0,2.0,-8.0,-41.0,1650822955042813.0
21.0,5.0,-2.0,-1.0,2.0,-10.0,-12.0,20.0,1650822955055989.0
-10.0,5.0,17.0,11.0,-1.0,10.0,23.0,16.0,1650822955055989.0
21.0,29.0,11.0,15.0,16.0,-13.0,-10.0,31.0,1650822955057997.0
-20.0,-35.0,-8.0,-6.0,-15.0,3.0,20.0,9.0,1650822955057997.0
3.0,-38.0,-17.0,1.0,-7.0,-1.0,-28.0,-28.0,1650822955079147.0
-16.0,29.0,-13.0,-18.0,0.0,-1.0,-2.0,10.0,1650822955079147.0
30.0,17.0,-16.0,2.0,2.0,12.0,17.0,17.0,1650822955080108.0
32.0,41.0,18.0,-3.0,12.0,12.0,5.0,20.0,1650822955080108.0
12.0,11.0,-2.0,-3.0,0.0,-1.0,23.0,11.0,1650822955101261.0
18.0,-12.0,12.0,4.0,-20.0,-12.0,-19.0,2.0,1650822955101261.0
13.0,-2.0,-1.0,4.0,12.0,-1.0,-14.0,-63.0,1650822955103189.0
-47.0,-5.0,-1.0,-6.0,-9.0,3.0,22.0,21.0,1650822955103189.0
14.0,8.0,8.0,5.0,9.0,4.0,-7.0,-16.0,1650822955116335.0
76.0,10.0,2.0,-3.0,0.0,4.0,5.0,38.0,1650822955116335.0
-26.0,6.0,-6.0,-6.0,-7.0,-10.0,-5.0,-8.0,1650822955118291.0
-22.0,-21.0,-11.0,0.0,0.0,0.0,-2.0,-17.0,1650822955118291.0
2.0,-1.0,-8.0,-14.0,-10.0,1.0,-9.0,19.0,1650822955139322.0
3.0,-1.0,0.0,1.0,1.0,-8.0,-3.0,0.0,1650822955139322.0
-23.0,-16.0,5.0,-1.0,-9.0,-5.0,-11.0,-7.0,1650822955140315.0
24.0,10.0,14.0,16.0,11.0,4.0,-4.0,16.0,1650822955140315.0
-3.0,23.0,9.0,-7.0,1.0,6.0,27.0,-12.0,1650822955161452.0
-33.0,-4.0,-8.0,-9.0,-13.0,-13.0,-25.0,-7.0,1650822955161452.0
-2.0,-42.0,-18.0,0.0,-1.0,7.0,5.0,13.0,1650822955163407.0
16.0,20.0,5.0,6.0,7.0,1.0,-9.0,-42.0,1650822955163407.0
4.0,9.0,14.0,-3.0,-11.0,-5.0,5.0,13.0,1650822955176203.0
-1.0,-19.0,-8.0,-8.0,-4.0,-3.0,5.0,7.0,1650822955176203.0
12.0,-4.0,-1.0,7.0,2.0,-2.0,-2.0,4.0,1650822955182258.0
17.0,22.0,-1.0,-6.0,-7.0,-6.0,3.0,23.0,1650822955182258.0
-9.0,-5.0,5.0,0.0,-1.0,4.0,-10.0,-8.0,1650822955199354.0
-38.0,-5.0,2.0,6.0,8.0,-3.0,-9.0,-24.0,1650822955199354.0
12.0,2.0,2.0,-3.0,2.0,6.0,-3.0,7.0,1650822955200299.0
-18.0,-18.0,4.0,2.0,3.0,6.0,4.0,0.0,1650822955200299.0
8.0,8.0,-6.0,1.0,6.0,5.0,-3.0,-7.0,1650822955221567.0
14.0,10.0,12.0,5.0,-5.0,-9.0,-1.0,6.0,1650822955221567.0
-6.0,-5.0,-4.0,-3.0,-6.0,-7.0,1.0,0.0,1650822955222525.0
0.0,-1.0,-2.0,-1.0,-14.0,-9.0,0.0,4.0,1650822955222525.0
2.0,-6.0,-6.0,0.0,7.0,6.0,-2.0,-3.0,1650822955235530.0
4.0,-10.0,-3.0,1.0,8.0,4.0,-6.0,-1.0,1650822955235530.0
-8.0,-5.0,-3.0,-3.0,-3.0,4.0,9.0,-1.0,1650822955242505.0
-9.0,3.0,-1.0,-5.0,-4.0,-6.0,-4.0,-1.0,1650822955242505.0
2.0,1.0,-6.0,2.0,3.0,7.0,-2.0,1.0,1650822955259398.0
-2.0,9.0,3.0,-2.0,-5.0,-7.0,5.0,3.0,1650822955259398.0
-3.0,-12.0,-2.0,-1.0,-2.0,-8.0,1.0,-4.0,1650822955260396.0
2.0,7.0,5.0,4.0,4.0,5.0,5.0,7.0,1650822955260396.0
-3.0,1.0,-5.0,-3.0,-9.0,-9.0,7.0,2.0,1650822955281340.0
13.0,4.0,6.0,5.0,14.0,12.0,6.0,9.0,1650822955281340.0
2.0,4.0,2.0,2.0,1.0,5.0,6.0,-8.0,1650822955283336.0
-3.0,-5.0,-5.0,-4.0,-6.0,-7.0,-5.0,1.0,1650822955283336.0
-3.0,0.0,4.0,2.0,8.0,0.0,-3.0,-3.0,1650822955304428.0
1.0,-5.0,2.0,2.0,-2.0,1.0,6.0,0.0,1650822955304428.0
1.0,6.0,1.0,0.0,-4.0,0.0,2.0,5.0,1650822955305415.0
-9.0,-10.0,-8.0,-10.0,-6.0,-1.0,-4.0,-4.0,1650822955305415.0
0.0,0.0,-3.0,3.0,-10.0,-15.0,0.0,-4.0,1650822955318518.0
2.0,-2.0,-12.0,-8.0,-10.0,-1.0,-2.0,5.0,1650822955318518.0
-1.0,8.0,10.0,4.0,19.0,11.0,4.0,-2.0,1650822955320446.0
0.0,5.0,6.0,5.0,4.0,0.0,2.0,4.0,1650822955320446.0
0.0,-5.0,-12.0,-7.0,-1.0,1.0,0.0,4.0,1650822955341607.0
-3.0,-5.0,-1.0,-2.0,2.0,-1.0,-5.0,-8.0,1650822955341607.0
0.0,7.0,17.0,10.0,-1.0,-2.0,1.0,2.0,1650822955342563.0
4.0,0.0,0.0,6.0,-15.0,-9.0,1.0,-2.0,1650822955342563.0
-10.0,-17.0,-42.0,-28.0,5.0,-1.0,-6.0,-5.0,1650822955355932.0
14.0,7.0,24.0,21.0,-1.0,5.0,15.0,35.0,1650822955355932.0
-15.0,-2.0,-23.0,-9.0,2.0,-2.0,-12.0,-32.0,1650822955362964.0
-4.0,3.0,32.0,-6.0,-2.0,-2.0,-16.0,-43.0,1650822955362964.0
4.0,11.0,29.0,21.0,12.0,0.0,1.0,-14.0,1650822955379141.0
-3.0,-21.0,-64.0,-31.0,-18.0,-2.0,-1.0,5.0,1650822955379141.0
5.0,1.0,11.0,-1.0,-9.0,-6.0,8.0,34.0,1650822955380104.0
2.0,5.0,-9.0,8.0,7.0,1.0,-3.0,-29.0,1650822955380104.0
-7.0,2.0,13.0,7.0,3.0,0.0,-1.0,-8.0,1650822955401247.0
2.0,0.0,-1.0,-1.0,3.0,-2.0,-6.0,5.0,1650822955401247.0
1.0,-7.0,-21.0,-12.0,-3.0,2.0,-2.0,5.0,1650822955403204.0
-2.0,-4.0,-4.0,-10.0,-1.0,-6.0,9.0,23.0,1650822955403204.0
-3.0,3.0,11.0,6.0,-6.0,2.0,-7.0,-22.0,1650822955415308.0
-3.0,18.0,41.0,32.0,17.0,10.0,10.0,-6.0,1650822955415308.0
2.0,-3.0,5.0,3.0,11.0,4.0,5.0,2.0,1650822955422357.0
-7.0,-18.0,-56.0,-28.0,-26.0,-13.0,-8.0,-3.0,1650822955422357.0
6.0,0.0,9.0,8.0,-9.0,5.0,8.0,15.0,1650822955439401.0
-3.0,-3.0,-8.0,-8.0,1.0,-2.0,-10.0,-14.0,1650822955439401.0
0.0,-1.0,-7.0,-8.0,-11.0,-8.0,0.0,-5.0,1650822955440399.0
2.0,11.0,25.0,19.0,8.0,8.0,5.0,12.0,1650822955440399.0
9.0,4.0,1.0,0.0,1.0,0.0,0.0,11.0,1650822955461826.0
-7.0,-13.0,-18.0,-12.0,-16.0,-6.0,-3.0,-9.0,1650822955461826.0
0.0,5.0,6.0,1.0,12.0,3.0,-1.0,-9.0,1650822955462822.0
-2.0,-29.0,-11.0,3.0,3.0,3.0,7.0,40.0,1650822955462822.0
0.0,0.0,-15.0,-11.0,-2.0,-4.0,-6.0,-14.0,1650822955475905.0
8.0,40.0,25.0,7.0,10.0,6.0,1.0,5.0,1650822955475905.0
-9.0,-51.0,-11.0,-2.0,-10.0,-6.0,-6.0,-19.0,1650822955482886.0
7.0,21.0,13.0,-2.0,-4.0,-4.0,-9.0,-10.0,1650822955482886.0
-9.0,-31.0,-3.0,3.0,5.0,5.0,7.0,8.0,1650822955498858.0
-3.0,-6.0,3.0,8.0,13.0,4.0,-1.0,-8.0,1650822955498858.0
2.0,24.0,-5.0,-7.0,-7.0,-4.0,0.0,10.0,1650822955500882.0
1.0,7.0,3.0,2.0,-2.0,-5.0,1.0,-2.0,1650822955500882.0
5.0,8.0,13.0,0.0,7.0,5.0,3.0,9.0,1650822955521953.0
-1.0,7.0,3.0,10.0,-6.0,-3.0,-1.0,-11.0,1650822955521953.0
3.0,0.0,0.0,2.0,6.0,5.0,2.0,12.0,1650822955522949.0
-14.0,-6.0,-19.0,-12.0,10.0,-5.0,-9.0,-12.0,1650822955522949.0
-1.0,-5.0,-1.0,-5.0,-14.0,-1.0,0.0,0.0,1650822955534842.0
4.0,11.0,0.0,-3.0,-2.0,0.0,4.0,9.0,1650822955534842.0
5.0,-3.0,14.0,5.0,-8.0,-1.0,-1.0,-1.0,1650822955543826.0
1.0,7.0,7.0,3.0,10.0,4.0,1.0,3.0,1650822955543826.0
3.0,15.0,-6.0,-1.0,-3.0,-4.0,0.0,7.0,1650822955558867.0
-5.0,-16.0,1.0,-8.0,2.0,10.0,-1.0,-6.0,1650822955558867.0
3.0,5.0,-4.0,0.0,-2.0,-19.0,0.0,2.0,1650822955560891.0
-3.0,-8.0,8.0,3.0,-8.0,1.0,-1.0,-9.0,1650822955560891.0
2.0,9.0,10.0,13.0,22.0,7.0,4.0,9.0,1650822955582025.0
0.0,-2.0,-20.0,-10.0,-5.0,-1.0,0.0,-3.0,1650822955582025.0
3.0,12.0,-5.0,-1.0,3.0,4.0,-2.0,3.0,1650822955582997.0
0.0,-20.0,7.0,-3.0,-8.0,-1.0,-1.0,4.0,1650822955582997.0
1.0,17.0,-3.0,-4.0,-11.0,-9.0,-1.0,-9.0,1650822955594969.0
-1.0,-20.0,1.0,0.0,2.0,-2.0,-3.0,-3.0,1650822955594969.0
-3.0,-2.0,-1.0,2.0,0.0,1.0,-2.0,1.0,1650822955604039.0
-1.0,8.0,-7.0,8.0,6.0,3.0,4.0,1.0,1650822955604039.0
2.0,2.0,0.0,4.0,1.0,0.0,0.0,3.0,1650822955619067.0
-2.0,-4.0,5.0,-8.0,2.0,-6.0,-3.0,1.0,1650822955619067.0
-5.0,-13.0,-11.0,-6.0,-5.0,-2.0,-1.0,-4.0,1650822955620027.0
-2.0,-18.0,-1.0,3.0,-14.0,5.0,1.0,4.0,1650822955620027.0
0.0,-1.0,2.0,3.0,4.0,-1.0,2.0,2.0,1650822955640940.0
-2.0,-10.0,-12.0,1.0,0.0,-3.0,-4.0,-10.0,1650822955640940.0
7.0,22.0,10.0,1.0,-1.0,0.0,0.0,3.0,1650822955642881.0
2.0,29.0,2.0,0.0,3.0,4.0,1.0,1.0,1650822955642881.0
-3.0,6.0,1.0,-2.0,-1.0,-2.0,-2.0,-3.0,1650822955655525.0
-3.0,-5.0,-7.0,-6.0,-11.0,-7.0,0.0,-1.0,1650822955655525.0
2.0,6.0,3.0,2.0,9.0,7.0,1.0,3.0,1650822955663622.0
-1.0,-10.0,-5.0,-2.0,6.0,-2.0,-4.0,-1.0,1650822955663622.0
-1.0,7.0,-1.0,-4.0,-9.0,-1.0,2.0,2.0,1650822955686676.0
3.0,11.0,11.0,8.0,8.0,1.0,3.0,2.0,1650822955686676.0
-2.0,2.0,-6.0,-1.0,-2.0,0.0,-3.0,-2.0,1650822955687685.0
-7.0,-19.0,0.0,-3.0,-4.0,-3.0,-1.0,-2.0,1650822955687685.0
4.0,7.0,-4.0,1.0,1.0,0.0,0.0,0.0,1650822955701826.0
-3.0,6.0,-10.0,-4.0,4.0,7.0,0.0,-2.0,1650822955701826.0
1.0,-20.0,-11.0,-16.0,-5.0,-2.0,1.0,-1.0,1650822955702790.0
-2.0,9.0,3.0,1.0,-5.0,-5.0,-1.0,-1.0,1650822955702790.0
-2.0,-19.0,-4.0,-4.0,1.0,-7.0,-3.0,2.0,1650822955714848.0
5.0,47.0,12.0,5.0,-10.0,-4.0,-1.0,0.0,1650822955714848.0
-15.0,-83.0,-18.0,1.0,1.0,4.0,0.0,-5.0,1650822955723827.0
3.0,22.0,9.0,6.0,3.0,4.0,3.0,1.0,1650822955723827.0
0.0,2.0,2.0,2.0,-1.0,6.0,0.0,0.0,1650822955739007.0
-2.0,-11.0,-2.0,-11.0,-3.0,-7.0,-1.0,-1.0,1650822955739007.0
5.0,26.0,8.0,5.0,0.0,0.0,3.0,1.0,1650822955740982.0
6.0,-9.0,0.0,0.0,7.0,0.0,0.0,2.0,1650822955740982.0
-7.0,15.0,15.0,0.0,10.0,0.0,-2.0,-2.0,1650822955763185.0
6.0,0.0,0.0,2.0,-20.0,-3.0,0.0,3.0,1650822955763185.0
-11.0,0.0,4.0,-4.0,1.0,-4.0,-6.0,-7.0,1650822955764184.0
3.0,-2.0,7.0,9.0,10.0,6.0,3.0,4.0,1650822955764184.0
-2.0,-20.0,-22.0,-3.0,0.0,1.0,0.0,-3.0,1650822955775557.0
-2.0,-7.0,-5.0,-3.0,-1.0,-3.0,-1.0,0.0,1650822955775557.0
-4.0,4.0,-1.0,-3.0,-12.0,-6.0,-4.0,-3.0,1650822955783787.0
3.0,16.0,6.0,0.0,6.0,5.0,2.0,1.0,1650822955783787.0
-3.0,-5.0,-10.0,-7.0,-6.0,-4.0,-2.0,-1.0,1650822955799033.0
2.0,6.0,3.0,2.0,11.0,-2.0,2.0,1.0,1650822955799033.0
-2.0,-17.0,-8.0,3.0,-17.0,2.0,-2.0,-3.0,1650822955800014.0
6.0,13.0,6.0,-1.0,-1.0,-2.0,0.0,3.0,1650822955800014.0
-3.0,-11.0,-5.0,-3.0,1.0,1.0,-1.0,0.0,1650822955821948.0
-3.0,-21.0,-3.0,3.0,2.0,0.0,2.0,-2.0,1650822955821948.0
8.0,16.0,6.0,1.0,-9.0,-9.0,-1.0,3.0,1650822955822952.0
0.0,5.0,-4.0,-4.0,13.0,0.0,-1.0,0.0,1650822955822952.0
2.0,25.0,2.0,-1.0,-19.0,0.0,0.0,0.0,1650822955834915.0
-14.0,-78.0,-14.0,2.0,9.0,4.0,-1.0,-3.0,1650822955834915.0
4.0,28.0,11.0,4.0,6.0,4.0,2.0,0.0,1650822955843976.0
-3.0,-19.0,-12.0,-11.0,-6.0,-3.0,-2.0,-3.0,1650822955843976.0
0.0,-9.0,-4.0,-6.0,-1.0,-3.0,-2.0,0.0,1650822955859195.0
3.0,16.0,13.0,7.0,-4.0,0.0,0.0,1.0,1650822955859195.0
-3.0,20.0,-2.0,-5.0,8.0,3.0,-1.0,0.0,1650822955861123.0
-3.0,-27.0,-5.0,-2.0,-5.0,-4.0,-2.0,0.0,1650822955861123.0
3.0,12.0,3.0,6.0,7.0,5.0,5.0,1.0,1650822955881238.0
-4.0,-1.0,-2.0,2.0,5.0,2.0,0.0,-3.0,1650822955881238.0
2.0,21.0,11.0,4.0,-5.0,-4.0,0.0,0.0,1650822955883233.0
2.0,21.0,4.0,-3.0,2.0,6.0,-4.0,-4.0,1650822955883233.0
-3.0,-28.0,-11.0,-7.0,-15.0,-12.0,-2.0,-4.0,1650822955895202.0
-1.0,-2.0,-10.0,-5.0,-17.0,-4.0,-2.0,-1.0,1650822955895202.0
0.0,-18.0,-2.0,3.0,6.0,0.0,1.0,2.0,1650822955904259.0
5.0,6.0,-3.0,3.0,-1.0,2.0,3.0,2.0,1650822955904259.0
-9.0,1.0,5.0,0.0,12.0,4.0,-4.0,-5.0,1650822955919383.0
0.0,-5.0,-4.0,-6.0,-8.0,0.0,-1.0,1.0,1650822955919383.0
2.0,-5.0,1.0,0.0,2.0,2.0,0.0,2.0,1650822955920368.0
-2.0,-7.0,-3.0,-1.0,-3.0,-3.0,0.0,0.0,1650822955920368.0
-2.0,0.0,0.0,2.0,3.0,-2.0,0.0,-1.0,1650822955942332.0
2.0,13.0,8.0,4.0,3.0,0.0,1.0,2.0,1650822955942332.0
1.0,8.0,5.0,-1.0,0.0,2.0,-1.0,1.0,1650822955943338.0
-3.0,-11.0,-5.0,-1.0,0.0,3.0,-1.0,-3.0,1650822955943338.0
5.0,27.0,10.0,2.0,1.0,-5.0,1.0,2.0,1650822955964805.0
-3.0,5.0,10.0,3.0,-12.0,-3.0,0.0,-3.0,1650822955964805.0
5.0,20.0,1.0,-5.0,8.0,5.0,2.0,1.0,1650822955965801.0
0.0,-5.0,-5.0,5.0,1.0,1.0,1.0,1.0,1650822955965801.0
3.0,-4.0,7.0,-3.0,0.0,1.0,-1.0,-1.0,1650822955978832.0
7.0,-20.0,-1.0,2.0,21.0,4.0,2.0,4.0,1650822955978832.0
-14.0,-2.0,-4.0,-12.0,-30.0,-11.0,-6.0,-7.0,1650822955980788.0
1.0,17.0,2.0,5.0,-4.0,-3.0,1.0,1.0,1650822955980788.0
-1.0,-15.0,2.0,-2.0,14.0,9.0,4.0,2.0,1650822956001948.0
2.0,4.0,-1.0,1.0,-8.0,-3.0,-2.0,0.0,1650822956001948.0
2.0,-12.0,-1.0,3.0,8.0,5.0,0.0,2.0,1650822956002947.0
-6.0,-8.0,-3.0,-4.0,-1.0,-3.0,-3.0,-2.0,1650822956002947.0
-4.0,-8.0,-1.0,-2.0,-10.0,-4.0,-3.0,-2.0,1650822956023846.0
-3.0,-3.0,-6.0,-4.0,5.0,0.0,0.0,-1.0,1650822956023846.0
-1.0,3.0,3.0,4.0,5.0,2.0,1.0,1.0,1650822956025841.0
3.0,2.0,1.0,2.0,-5.0,2.0,-1.0,0.0,1650822956025841.0
2.0,-1.0,-3.0,2.0,0.0,-3.0,-1.0,1.0,1650822956038931.0
3.0,8.0,2.0,-2.0,8.0,9.0,1.0,-1.0,1650822956038931.0
-6.0,2.0,0.0,0.0,-3.0,-10.0,-2.0,-3.0,1650822956040887.0
0.0,-1.0,2.0,1.0,12.0,-5.0,-1.0,0.0,1650822956040887.0
-1.0,-10.0,-5.0,-1.0,-20.0,-1.0,-1.0,-2.0,1650822956061957.0
-5.0,-11.0,3.0,-1.0,1.0,2.0,-1.0,-4.0,1650822956061957.0
7.0,-1.0,3.0,7.0,9.0,8.0,2.0,3.0,1650822956062956.0
-5.0,-3.0,-5.0,-7.0,2.0,-11.0,-2.0,-5.0,1650822956062956.0
-4.0,-15.0,-21.0,-2.0,-16.0,-5.0,0.0,-1.0,1650822956083868.0
-1.0,9.0,2.0,-2.0,0.0,-5.0,-2.0,0.0,1650822956083868.0
3.0,-4.0,-1.0,3.0,6.0,3.0,3.0,1.0,1650822956085888.0
1.0,-10.0,5.0,4.0,2.0,4.0,1.0,1.0,1650822956085888.0
4.0,22.0,9.0,-2.0,2.0,2.0,-1.0,0.0,1650822956098859.0
2.0,13.0,0.0,6.0,-2.0,-1.0,1.0,2.0,1650822956098859.0
-5.0,2.0,2.0,-10.0,-2.0,-5.0,-3.0,-2.0,1650822956100883.0
0.0,4.0,-1.0,-2.0,-9.0,-3.0,-2.0,-3.0,1650822956100883.0
0.0,-8.0,-5.0,3.0,2.0,-2.0,-3.0,1.0,1650822956121950.0
-1.0,-10.0,-11.0,-4.0,4.0,2.0,-3.0,-2.0,1650822956121950.0
6.0,28.0,10.0,3.0,-1.0,-3.0,2.0,1.0,1650822956122965.0
-1.0,-6.0,-7.0,-4.0,-1.0,3.0,1.0,0.0,1650822956122965.0
-3.0,33.0,13.0,-1.0,9.0,2.0,-2.0,-4.0,1650822956144299.0
-3.0,4.0,-4.0,-4.0,-22.0,-9.0,-2.0,-2.0,1650822956144299.0
2.0,-10.0,-4.0,1.0,-4.0,-4.0,-1.0,-1.0,1650822956145836.0
0.0,4.0,1.0,1.0,-2.0,-2.0,1.0,1.0,1650822956145836.0
0.0,-24.0,-3.0,1.0,0.0,-1.0,-1.0,-1.0,1650822956158837.0
0.0,13.0,-1.0,-2.0,8.0,3.0,-2.0,-2.0,1650822956158837.0
-4.0,-1.0,-3.0,2.0,19.0,2.0,1.0,1.0,1650822956164868.0
1.0,-9.0,1.0,0.0,-20.0,-2.0,-1.0,0.0,1650822956164868.0
1.0,-11.0,2.0,0.0,4.0,-1.0,-2.0,2.0,1650822956181932.0
6.0,4.0,5.0,-2.0,-7.0,-3.0,0.0,1.0,1650822956181932.0
-11.0,-9.0,-5.0,0.0,-4.0,-2.0,-2.0,-5.0,1650822956182928.0
2.0,15.0,12.0,6.0,12.0,3.0,0.0,2.0,1650822956182928.0
-1.0,-25.0,-20.0,-9.0,-6.0,0.0,-1.0,0.0,1650822956203803.0
2.0,5.0,5.0,0.0,-3.0,-3.0,1.0,3.0,1650822956203803.0
-5.0,5.0,-11.0,-2.0,4.0,7.0,-1.0,-3.0,1650822956205839.0
-7.0,-11.0,7.0,-4.0,4.0,-9.0,-3.0,-4.0,1650822956205839.0
3.0,15.0,7.0,4.0,-24.0,-4.0,-1.0,2.0,1650822956217931.0
-2.0,-31.0,-5.0,-2.0,12.0,9.0,1.0,-1.0,1650822956217931.0
-3.0,-11.0,-14.0,-8.0,-3.0,-9.0,-3.0,-2.0,1650822956224916.0
-1.0,-5.0,0.0,5.0,-6.0,-1.0,1.0,0.0,1650822956224916.0
-2.0,-6.0,0.0,-1.0,6.0,0.0,0.0,-2.0,1650822956249908.0
-3.0,-5.0,-5.0,-1.0,-1.0,-1.0,0.0,0.0,1650822956249908.0
6.0,-8.0,4.0,3.0,12.0,5.0,-2.0,2.0,1650822956250876.0
-4.0,1.0,-3.0,-1.0,-7.0,5.0,1.0,-2.0,1650822956250876.0
1.0,5.0,4.0,5.0,9.0,1.0,4.0,2.0,1650822956263988.0
1.0,13.0,4.0,0.0,-1.0,-3.0,-1.0,-1.0,1650822956263988.0
-2.0,2.0,5.0,0.0,-1.0,-2.0,-1.0,3.0,1650822956265992.0
19.0,20.0,2.0,-5.0,-24.0,-10.0,-8.0,-4.0,1650822956265992.0
-24.0,-10.0,-4.0,-4.0,5.0,10.0,-2.0,-4.0,1650822956278101.0
1.0,5.0,7.0,3.0,-9.0,-20.0,1.0,-5.0,1650822956278101.0
-8.0,-13.0,-12.0,1.0,-2.0,1.0,3.0,1.0,1650822956285086.0
0.0,-4.0,-4.0,4.0,23.0,8.0,2.0,3.0,1650822956285086.0
7.0,3.0,3.0,3.0,2.0,3.0,1.0,2.0,1650822956301854.0
-1.0,-1.0,1.0,-5.0,-2.0,3.0,-1.0,-2.0,1650822956301854.0
8.0,-4.0,6.0,-3.0,-14.0,-6.0,-2.0,-3.0,1650822956302852.0
-15.0,-17.0,-18.0,-7.0,-10.0,-4.0,-5.0,-5.0,1650822956302852.0
0.0,7.0,1.0,-1.0,7.0,0.0,-1.0,-4.0,1650822956324349.0
-7.0,14.0,-1.0,-3.0,-2.0,-2.0,-3.0,0.0,1650822956324349.0
8.0,15.0,3.0,1.0,8.0,-2.0,0.0,2.0,1650822956325768.0
-2.0,-7.0,2.0,-3.0,-12.0,4.0,1.0,0.0,1650822956325768.0
7.0,12.0,6.0,3.0,4.0,1.0,2.0,1.0,1650822956338819.0
-5.0,-32.0,-21.0,1.0,6.0,3.0,1.0,-2.0,1650822956338819.0
3.0,4.0,6.0,0.0,-6.0,1.0,0.0,-2.0,1650822956344876.0
3.0,-16.0,-9.0,-2.0,4.0,-3.0,-1.0,1.0,1650822956344876.0
0.0,11.0,-3.0,-5.0,-10.0,-6.0,-4.0,-2.0,1650822956361930.0
1.0,5.0,8.0,5.0,-4.0,1.0,1.0,1.0,1650822956361930.0
0.0,-14.0,-2.0,1.0,-4.0,-3.0,0.0,2.0,1650822956362928.0
-7.0,19.0,10.0,3.0,16.0,4.0,3.0,1.0,1650822956362928.0
1.0,-27.0,-5.0,0.0,-2.0,0.0,-1.0,1.0,1650822956384134.0
-1.0,2.0,-4.0,-2.0,8.0,2.0,-2.0,-1.0,1650822956384134.0
-1.0,-4.0,0.0,-2.0,-9.0,-6.0,-3.0,1.0,1650822956385065.0
5.0,-5.0,0.0,-2.0,-19.0,-9.0,-1.0,-2.0,1650822956385065.0
-11.0,-1.0,-6.0,-9.0,11.0,5.0,3.0,1.0,1650822956398189.0
-1.0,12.0,6.0,1.0,1.0,0.0,-3.0,-3.0,1650822956398189.0
-1.0,-3.0,-4.0,-2.0,0.0,5.0,0.0,-1.0,1650822956404867.0
6.0,-1.0,-1.0,-2.0,9.0,-5.0,0.0,2.0,1650822956404867.0
-5.0,3.0,0.0,-1.0,-30.0,-9.0,-4.0,-3.0,1650822956421905.0
1.0,0.0,2.0,-3.0,6.0,6.0,2.0,3.0,1650822956421905.0
-2.0,-1.0,-1.0,2.0,0.0,-1.0,1.0,-2.0,1650822956422868.0
-1.0,7.0,1.0,1.0,-3.0,4.0,-1.0,0.0,1650822956422868.0
4.0,-16.0,1.0,-1.0,9.0,-4.0,-1.0,0.0,1650822956443897.0
-2.0,27.0,5.0,0.0,-8.0,0.0,0.0,-2.0,1650822956443897.0
0.0,-3.0,1.0,1.0,2.0,3.0,-1.0,-1.0,1650822956445851.0
-7.0,7.0,-2.0,-2.0,0.0,-6.0,-1.0,-3.0,1650822956445851.0
1.0,-12.0,-6.0,-3.0,3.0,1.0,1.0,2.0,1650822956457950.0
-2.0,-11.0,-7.0,1.0,-2.0,-2.0,0.0,-1.0,1650822956457950.0
0.0,-11.0,-2.0,-1.0,2.0,-2.0,-1.0,2.0,1650822956466255.0
-2.0,4.0,0.0,-2.0,0.0,4.0,-1.0,-1.0,1650822956466255.0
2.0,10.0,-3.0,8.0,-2.0,-5.0,-3.0,-1.0,1650822956481401.0
7.0,17.0,11.0,-1.0,2.0,2.0,1.0,3.0,1650822956481401.0
-7.0,12.0,-1.0,-3.0,3.0,7.0,0.0,-6.0,1650822956483332.0
1.0,4.0,8.0,6.0,-4.0,-5.0,1.0,2.0,1650822956483332.0
7.0,11.0,4.0,8.0,5.0,2.0,1.0,-1.0,1650822956504323.0
-2.0,-12.0,-3.0,-7.0,16.0,-1.0,-1.0,0.0,1650822956504323.0
-1.0,10.0,0.0,-7.0,-30.0,-2.0,-2.0,-2.0,1650822956505829.0
-8.0,-8.0,-15.0,-5.0,17.0,1.0,-3.0,-3.0,1650822956505829.0
1.0,-3.0,6.0,-5.0,-13.0,-1.0,-1.0,-1.0,1650822956517999.0
-2.0,-6.0,-5.0,0.0,-4.0,0.0,-2.0,-2.0,1650822956517999.0
0.0,-6.0,-3.0,4.0,6.0,-1.0,1.0,-2.0,1650822956526800.0
1.0,5.0,-1.0,3.0,9.0,9.0,4.0,2.0,1650822956526800.0
-2.0,-10.0,2.0,1.0,7.0,3.0,0.0,-1.0,1650822956540979.0
0.0,-3.0,-5.0,-5.0,-10.0,-11.0,-2.0,0.0,1650822956540979.0
-1.0,-12.0,-6.0,-4.0,-10.0,-5.0,-3.0,-1.0,1650822956542908.0
0.0,12.0,4.0,-2.0,-5.0,-1.0,-1.0,-2.0,1650822956542908.0
0.0,1.0,-5.0,1.0,6.0,1.0,-3.0,-4.0,1650822956564349.0
-4.0,-24.0,-16.0,-10.0,1.0,0.0,-1.0,0.0,1650822956564349.0
-2.0,-3.0,0.0,0.0,-8.0,-2.0,0.0,1.0,1650822956565840.0
1.0,-2.0,3.0,1.0,-6.0,1.0,3.0,0.0,1650822956565840.0
2.0,1.0,-2.0,1.0,12.0,2.0,0.0,1.0,1650822956577848.0
-1.0,-16.0,-3.0,3.0,-9.0,2.0,0.0,-1.0,1650822956577848.0
2.0,-9.0,-3.0,0.0,7.0,-1.0,1.0,2.0,1650822956586758.0
-2.0,3.0,0.0,-6.0,-7.0,-4.0,-2.0,-2.0,1650822956586758.0
-2.0,-1.0,-3.0,-9.0,-8.0,-5.0,-3.0,0.0,1650822956601923.0
0.0,4.0,2.0,5.0,-4.0,-7.0,-3.0,-2.0,1650822956601923.0
1.0,0.0,7.0,6.0,12.0,6.0,5.0,0.0,1650822956602918.0
1.0,-1.0,2.0,1.0,11.0,9.0,0.0,1.0,1650822956602918.0
2.0,3.0,0.0,1.0,1.0,0.0,1.0,-1.0,1650822956624348.0
-1.0,-5.0,-3.0,-4.0,-5.0,4.0,-1.0,-1.0,1650822956624348.0
1.0,-1.0,-5.0,1.0,-6.0,-13.0,-2.0,-1.0,1650822956625819.0
1.0,1.0,-1.0,-1.0,12.0,1.0,-1.0,1.0,1650822956625819.0
1.0,28.0,6.0,-1.0,-17.0,-3.0,1.0,0.0,1650822956637961.0
0.0,12.0,7.0,4.0,1.0,0.0,0.0,-1.0,1650822956637961.0
1.0,8.0,6.0,1.0,5.0,4.0,0.0,0.0,1650822956646966.0
-2.0,-6.0,-1.0,-1.0,-2.0,-5.0,-1.0,1.0,1650822956646966.0
-1.0,-10.0,-7.0,-3.0,15.0,0.0,-1.0,-1.0,1650822956661923.0
-1.0,3.0,2.0,-4.0,-15.0,5.0,0.0,-1.0,1650822956661923.0
-2.0,4.0,-1.0,1.0,14.0,-3.0,-1.0,2.0,1650822956662922.0
1.0,-4.0,-2.0,-1.0,-19.0,-7.0,-3.0,0.0,1650822956662922.0
0.0,14.0,7.0,3.0,7.0,0.0,0.0,0.0,1650822956691926.0
-5.0,9.0,4.0,2.0,7.0,0.0,2.0,-1.0,1650822956691926.0
-1.0,-6.0,-3.0,-1.0,0.0,2.0,0.0,-1.0,1650822956692915.0
-1.0,-25.0,-15.0,-9.0,-11.0,-2.0,-3.0,-2.0,1650822956692915.0
-2.0,4.0,-2.0,-2.0,-7.0,-4.0,0.0,0.0,1650822956697929.0
0.0,-7.0,3.0,3.0,1.0,-1.0,-1.0,0.0,1650822956697929.0
1.0,-3.0,0.0,3.0,4.0,4.0,0.0,0.0,1650822956706259.0
-2.0,3.0,-3.0,-1.0,-12.0,0.0,1.0,-1.0,1650822956706259.0
3.0,-10.0,2.0,2.0,0.0,0.0,0.0,1.0,1650822956721495.0
-1.0,0.0,8.0,5.0,1.0,-4.0,-1.0,2.0,1650822956721495.0
-2.0,7.0,-18.0,-19.0,-6.0,-1.0,-3.0,-1.0,1650822956723422.0
0.0,-5.0,0.0,3.0,4.0,-1.0,-1.0,-3.0,1650822956723422.0
-7.0,-7.0,0.0,1.0,1.0,-1.0,-2.0,-1.0,1650822956744323.0
4.0,5.0,-2.0,-1.0,3.0,12.0,1.0,1.0,1650822956744323.0
0.0,6.0,7.0,7.0,2.0,-10.0,2.0,1.0,1650822956745630.0
2.0,3.0,10.0,1.0,-9.0,-2.0,-2.0,-5.0,1650822956745630.0
3.0,-5.0,-13.0,-3.0,1.0,-2.0,-2.0,-1.0,1650822956757676.0
-5.0,-3.0,-4.0,-9.0,-5.0,-2.0,-1.0,2.0,1650822956757676.0
-1.0,-7.0,-4.0,-7.0,-4.0,-2.0,-4.0,-5.0,1650822956766204.0
1.0,1.0,0.0,8.0,4.0,4.0,3.0,2.0,1650822956766204.0
3.0,8.0,22.0,14.0,13.0,12.0,7.0,7.0,1650822956781895.0
-4.0,-7.0,-4.0,3.0,6.0,-2.0,5.0,5.0,1650822956781895.0
-3.0,-3.0,-12.0,-4.0,-4.0,-1.0,-4.0,1.0,1650822956782866.0
-8.0,-3.0,-11.0,-10.0,-7.0,-4.0,0.0,1.0,1650822956782866.0
-2.0,-3.0,-3.0,-11.0,-18.0,-8.0,-9.0,-19.0,1650822956804323.0
19.0,5.0,2.0,6.0,-2.0,-1.0,5.0,18.0,1650822956804323.0
-34.0,2.0,9.0,5.0,4.0,2.0,-6.0,-18.0,1650822956805814.0
5.0,-3.0,-4.0,-5.0,8.0,8.0,-4.0,-2.0,1650822956805814.0
-13.0,-11.0,-13.0,-3.0,1.0,-4.0,8.0,6.0,1650822956817961.0
-5.0,-2.0,3.0,-3.0,7.0,-4.0,-8.0,-12.0,1650822956817961.0
11.0,1.0,0.0,0.0,-2.0,-3.0,-2.0,4.0,1650822956826964.0
5.0,3.0,12.0,3.0,-11.0,2.0,1.0,2.0,1650822956826964.0
-4.0,1.0,1.0,-1.0,4.0,3.0,7.0,-2.0,1650822956841550.0
2.0,2.0,5.0,3.0,27.0,5.0,3.0,19.0,1650822956841550.0
9.0,6.0,7.0,9.0,-37.0,-4.0,-13.0,-41.0,1650822956842510.0
-6.0,-4.0,-36.0,-11.0,13.0,-6.0,6.0,-1.0,1650822956842510.0
5.0,-1.0,10.0,-6.0,-5.0,-1.0,1.0,8.0,1650822956864881.0
-5.0,-5.0,2.0,-3.0,-6.0,0.0,-1.0,-11.0,1650822956864881.0
22.0,8.0,13.0,6.0,12.0,8.0,0.0,21.0,1650822956865842.0
-12.0,5.0,10.0,2.0,6.0,-4.0,0.0,-1.0,1650822956865842.0
1.0,-9.0,-11.0,-2.0,-14.0,-4.0,-9.0,-11.0,1650822956877874.0
-5.0,-1.0,-4.0,1.0,5.0,4.0,5.0,-7.0,1650822956877874.0
21.0,-5.0,-5.0,-5.0,1.0,0.0,14.0,19.0,1650822956886815.0
-9.0,10.0,19.0,9.0,-1.0,1.0,-2.0,14.0,1650822956886815.0
-4.0,-2.0,-4.0,-5.0,3.0,0.0,-9.0,-7.0,1650822956900845.0
3.0,9.0,15.0,7.0,11.0,3.0,3.0,3.0,1650822956900845.0
-24.0,-13.0,-2.0,8.0,-13.0,-9.0,-3.0,-12.0,1650822956907827.0
7.0,-11.0,-24.0,-31.0,-4.0,1.0,-6.0,-3.0,1650822956907827.0
2.0,1.0,1.0,5.0,8.0,4.0,6.0,10.0,1650822956923788.0
-7.0,-5.0,-21.0,-15.0,-13.0,-13.0,-14.0,-17.0,1650822956923788.0
9.0,1.0,11.0,3.0,-3.0,-2.0,4.0,8.0,1650822956925716.0
5.0,4.0,17.0,14.0,8.0,0.0,4.0,2.0,1650822956925716.0
-8.0,6.0,11.0,16.0,4.0,5.0,6.0,0.0,1650822956946853.0
28.0,3.0,-8.0,-8.0,-4.0,8.0,-7.0,3.0,1650822956946853.0
-37.0,-17.0,-18.0,-13.0,-5.0,-10.0,0.0,0.0,1650822956947784.0
-7.0,-5.0,16.0,-3.0,-11.0,-7.0,-1.0,-16.0,1650822956947784.0
16.0,0.0,-2.0,-2.0,1.0,1.0,5.0,9.0,1650822956968856.0
-26.0,0.0,1.0,2.0,-4.0,3.0,5.0,2.0,1650822956968856.0
35.0,13.0,0.0,-8.0,8.0,1.0,-11.0,9.0,1650822956970882.0
-14.0,2.0,6.0,4.0,-2.0,-5.0,4.0,-6.0,1650822956970882.0
-17.0,-10.0,0.0,1.0,1.0,-7.0,0.0,-9.0,1650822956983966.0
19.0,8.0,15.0,10.0,-1.0,0.0,-2.0,2.0,1650822956983966.0
9.0,3.0,-1.0,12.0,12.0,18.0,4.0,-3.0,1650822956985964.0
-5.0,-9.0,-12.0,-9.0,1.0,0.0,8.0,4.0,1650822956985964.0
19.0,2.0,-2.0,-12.0,-2.0,-5.0,-10.0,9.0,1650822957006128.0
19.0,5.0,-6.0,-7.0,4.0,-2.0,-6.0,0.0,1650822957006128.0
-39.0,-9.0,-7.0,-8.0,-13.0,-2.0,4.0,-8.0,1650822957008057.0
46.0,6.0,2.0,15.0,0.0,-1.0,1.0,14.0,1650822957008057.0
-40.0,-15.0,-8.0,-5.0,-7.0,-3.0,1.0,-4.0,1650822957021102.0
10.0,0.0,-1.0,9.0,13.0,4.0,3.0,5.0,1650822957021102.0
-24.0,-5.0,4.0,-8.0,4.0,6.0,12.0,9.0,1650822957023059.0
14.0,-3.0,-4.0,-2.0,-3.0,-6.0,-12.0,-7.0,1650822957023059.0
-19.0,5.0,10.0,6.0,-2.0,-2.0,0.0,4.0,1650822957044349.0
18.0,1.0,2.0,-6.0,-11.0,-6.0,-2.0,2.0,1650822957044349.0
-11.0,-5.0,-22.0,-3.0,10.0,2.0,6.0,-1.0,1650822957045805.0
36.0,5.0,-7.0,1.0,-8.0,1.0,8.0,11.0,1650822957045805.0
-41.0,-10.0,-11.0,-6.0,5.0,7.0,9.0,5.0,1650822957074023.0
-32.0,-1.0,16.0,14.0,-10.0,-5.0,-10.0,-12.0,1650822957074023.0
21.0,-9.0,-4.0,9.0,8.0,-3.0,4.0,1.0,1650822957075983.0
4.0,-3.0,3.0,-14.0,7.0,4.0,3.0,7.0,1650822957075983.0
23.0,10.0,-10.0,-5.0,-7.0,-5.0,-19.0,-14.0,1650822957080967.0
-38.0,-14.0,-7.0,-1.0,-1.0,-4.0,-22.0,-28.0,1650822957080967.0
33.0,10.0,2.0,-3.0,4.0,8.0,-1.0,0.0,1650822957087925.0
-13.0,-7.0,8.0,5.0,-9.0,-8.0,17.0,15.0,1650822957087925.0
40.0,16.0,10.0,8.0,6.0,6.0,-13.0,-13.0,1650822957104192.0
-60.0,-25.0,-5.0,-10.0,-25.0,-13.0,6.0,-6.0,1650822957104192.0
0.0,-25.0,-22.0,-7.0,17.0,4.0,-30.0,-19.0,1650822957105134.0
8.0,22.0,10.0,1.0,5.0,12.0,7.0,5.0,1650822957105134.0
-27.0,4.0,4.0,1.0,2.0,-4.0,-10.0,-3.0,1650822957126884.0
4.0,-5.0,1.0,12.0,-10.0,1.0,26.0,17.0,1650822957126884.0
-11.0,-2.0,4.0,-22.0,-8.0,-9.0,0.0,7.0,1650822957127884.0
-16.0,-13.0,2.0,3.0,4.0,-2.0,-10.0,-5.0,1650822957127884.0
53.0,3.0,-25.0,-18.0,-4.0,5.0,23.0,22.0,1650822957140934.0
-1.0,1.0,6.0,14.0,-2.0,-13.0,-6.0,-29.0,1650822957140934.0
-9.0,1.0,6.0,2.0,-1.0,14.0,28.0,17.0,1650822957147916.0
-17.0,-18.0,-24.0,-13.0,-9.0,-19.0,-45.0,-20.0,1650822957147916.0
-37.0,-8.0,9.0,4.0,-11.0,-12.0,-7.0,-2.0,1650822957163873.0
8.0,-23.0,-4.0,13.0,6.0,1.0,-10.0,-19.0,1650822957163873.0
8.0,17.0,-14.0,-12.0,-12.0,-3.0,30.0,22.0,1650822957165802.0
17.0,11.0,14.0,11.0,-6.0,-17.0,-27.0,-5.0,1650822957165802.0
-29.0,-13.0,3.0,11.0,13.0,2.0,-33.0,-28.0,1650822957186905.0
7.0,7.0,-12.0,-19.0,-3.0,-1.0,-7.0,-18.0,1650822957186905.0
-17.0,-8.0,19.0,19.0,-2.0,-2.0,3.0,-12.0,1650822957187907.0
-7.0,20.0,-17.0,-20.0,-6.0,4.0,0.0,1.0,1650822957187907.0
-21.0,-14.0,2.0,7.0,-12.0,-12.0,20.0,8.0,1650822957200919.0
46.0,18.0,-1.0,-13.0,12.0,17.0,10.0,20.0,1650822957200919.0
2.0,25.0,5.0,-8.0,5.0,24.0,25.0,26.0,1650822957207975.0
2.0,-28.0,-8.0,2.0,4.0,-3.0,42.0,-16.0,1650822957207975.0
24.0,27.0,14.0,2.0,-11.0,-39.0,-65.0,-9.0,1650822957223951.0
-56.0,-62.0,-34.0,-20.0,-12.0,3.0,28.0,43.0,1650822957223951.0
18.0,-2.0,19.0,17.0,-12.0,-17.0,-27.0,-29.0,1650822957225945.0
6.0,-2.0,-11.0,-6.0,20.0,23.0,-13.0,35.0,1650822957225945.0
15.0,-18.0,-9.0,-6.0,4.0,16.0,36.0,11.0,1650822957246880.0
58.0,28.0,11.0,21.0,8.0,-6.0,-28.0,-13.0,1650822957246880.0
-69.0,-20.0,2.0,2.0,-8.0,-4.0,27.0,18.0,1650822957247803.0
-20.0,14.0,0.0,12.0,-12.0,-2.0,-9.0,-22.0,1650822957247803.0
55.0,0.0,-24.0,-21.0,0.0,2.0,-13.0,-11.0,1650822957260946.0
0.0,15.0,8.0,-29.0,-6.0,6.0,10.0,28.0,1650822957260946.0
2.0,7.0,6.0,16.0,3.0,-7.0,-16.0,-1.0,1650822957267973.0
-25.0,-43.0,-2.0,-8.0,-10.0,-5.0,0.0,-22.0,1650822957267973.0
-40.0,-41.0,3.0,6.0,10.0,11.0,5.0,-14.0,1650822957283994.0
10.0,21.0,0.0,-3.0,-11.0,4.0,19.0,23.0,1650822957283994.0
18.0,35.0,4.0,-8.0,1.0,7.0,-6.0,-38.0,1650822957285991.0
-11.0,21.0,31.0,17.0,4.0,-15.0,14.0,-4.0,1650822957285991.0
11.0,4.0,-8.0,-10.0,-1.0,0.0,26.0,55.0,1650822957306307.0
-3.0,-28.0,-4.0,8.0,5.0,-18.0,-47.0,-50.0,1650822957306307.0
14.0,34.0,13.0,6.0,0.0,-9.0,-3.0,32.0,1650822957308235.0
2.0,-19.0,-30.0,-13.0,17.0,16.0,8.0,3.0,1650822957308235.0
34.0,19.0,6.0,-10.0,-33.0,-6.0,15.0,2.0,1650822957321246.0
-98.0,5.0,38.0,40.0,-12.0,-6.0,-12.0,-29.0,1650822957321246.0
19.0,-12.0,-24.0,-26.0,35.0,16.0,-2.0,13.0,1650822957327250.0
26.0,32.0,-9.0,0.0,14.0,15.0,21.0,28.0,1650822957327250.0
-35.0,-12.0,-47.0,-40.0,3.0,5.0,8.0,-15.0,1650822957344378.0
13.0,10.0,1.0,14.0,-3.0,1.0,-5.0,3.0,1650822957344378.0
-11.0,-13.0,5.0,-22.0,-28.0,-23.0,-35.0,-20.0,1650822957345379.0
-41.0,14.0,26.0,17.0,-1.0,7.0,-6.0,-12.0,1650822957345379.0
36.0,3.0,17.0,17.0,3.0,3.0,-14.0,-7.0,1650822957366881.0
16.0,-21.0,-16.0,-9.0,9.0,9.0,40.0,51.0,1650822957366881.0
13.0,8.0,-2.0,5.0,-4.0,3.0,17.0,-34.0,1650822957367881.0
52.0,3.0,-3.0,-6.0,-9.0,-2.0,29.0,43.0,1650822957367881.0
-63.0,13.0,-5.0,-4.0,-14.0,-39.0,-79.0,-47.0,1650822957380929.0
-2.0,4.0,7.0,8.0,15.0,10.0,17.0,62.0,1650822957380929.0
24.0,12.0,2.0,3.0,-1.0,-8.0,-6.0,-34.0,1650822957387807.0
-30.0,-30.0,3.0,17.0,-8.0,-4.0,-49.0,-59.0,1650822957387807.0
15.0,30.0,10.0,9.0,0.0,22.0,28.0,24.0,1650822957403918.0
5.0,30.0,-18.0,-3.0,6.0,1.0,5.0,-18.0,1650822957403918.0
3.0,-15.0,11.0,1.0,33.0,14.0,13.0,21.0,1650822957405870.0
-7.0,1.0,-45.0,-75.0,5.0,4.0,-1.0,-2.0,1650822957405870.0
-55.0,-14.0,22.0,33.0,6.0,13.0,21.0,4.0,1650822957427899.0
44.0,7.0,12.0,-1.0,9.0,2.0,-3.0,-3.0,1650822957427899.0
-6.0,37.0,15.0,31.0,-23.0,-6.0,5.0,32.0,1650822957429866.0
-29.0,-90.0,-21.0,13.0,7.0,-8.0,-12.0,0.0,1650822957429866.0
32.0,25.0,6.0,-18.0,4.0,4.0,3.0,-24.0,1650822957439896.0
28.0,10.0,-7.0,-9.0,-13.0,-6.0,-29.0,0.0,1650822957439896.0
7.0,22.0,12.0,6.0,-6.0,-8.0,1.0,8.0,1650822957448809.0
-45.0,-38.0,10.0,8.0,-3.0,-3.0,2.0,-11.0,1650822957448809.0
31.0,1.0,-3.0,6.0,14.0,-1.0,22.0,22.0,1650822957463838.0
-30.0,-4.0,-10.0,-13.0,-10.0,-2.0,-28.0,-5.0,1650822957463838.0
76.0,-10.0,-8.0,-10.0,-9.0,0.0,-17.0,-18.0,1650822957465766.0
-15.0,14.0,4.0,14.0,-5.0,10.0,5.0,7.0,1650822957465766.0
-14.0,-9.0,25.0,21.0,-4.0,2.0,16.0,19.0,1650822957486849.0
-13.0,26.0,-11.0,-27.0,2.0,-4.0,2.0,-8.0,1650822957486849.0
17.0,-56.0,-36.0,-35.0,-2.0,-2.0,-4.0,-2.0,1650822957487850.0
29.0,31.0,5.0,6.0,-2.0,0.0,28.0,37.0,1650822957487850.0
33.0,-30.0,-3.0,6.0,-7.0,-1.0,0.0,-9.0,1650822957499922.0
-13.0,-1.0,21.0,17.0,1.0,-3.0,13.0,10.0,1650822957499922.0
9.0,1.0,-11.0,-15.0,-7.0,-6.0,-12.0,-3.0,1650822957508833.0
-13.0,13.0,-6.0,5.0,-5.0,-3.0,2.0,-6.0,1650822957508833.0
-2.0,-13.0,8.0,11.0,5.0,8.0,27.0,-15.0,1650822957524062.0
4.0,13.0,-7.0,-9.0,0.0,-5.0,-33.0,-30.0,1650822957524062.0
-1.0,-3.0,-10.0,-2.0,2.0,-7.0,-22.0,8.0,1650822957526087.0
40.0,26.0,19.0,10.0,-2.0,-11.0,-4.0,-21.0,1650822957526087.0
21.0,35.0,-2.0,-8.0,3.0,-2.0,-40.0,6.0,1650822957546798.0
-54.0,-88.0,-14.0,3.0,-14.0,0.0,41.0,-27.0,1650822957546798.0
-5.0,-3.0,-3.0,-4.0,14.0,6.0,-6.0,10.0,1650822957547739.0
22.0,-11.0,1.0,-8.0,5.0,10.0,-10.0,8.0,1650822957547739.0
-1.0,9.0,-8.0,-8.0,3.0,2.0,-10.0,-6.0,1650822957559777.0
26.0,-10.0,-8.0,4.0,-4.0,-2.0,2.0,7.0,1650822957559777.0
-4.0,38.0,36.0,18.0,-6.0,-7.0,2.0,-2.0,1650822957568770.0
-9.0,-8.0,-8.0,-17.0,-4.0,-4.0,-3.0,4.0,1650822957568770.0
16.0,-23.0,-14.0,-9.0,6.0,6.0,6.0,8.0,1650822957584348.0
2.0,43.0,7.0,-10.0,-6.0,7.0,12.0,17.0,1650822957584348.0
-38.0,-27.0,8.0,27.0,-5.0,-1.0,13.0,-25.0,1650822957585868.0
-4.0,26.0,4.0,1.0,4.0,3.0,-4.0,8.0,1650822957585868.0
-27.0,10.0,12.0,1.0,-3.0,-2.0,5.0,-5.0,1650822957606886.0
62.0,26.0,-7.0,0.0,6.0,6.0,5.0,6.0,1650822957606886.0
13.0,7.0,10.0,0.0,-2.0,-13.0,-18.0,12.0,1650822957607886.0
-22.0,6.0,3.0,2.0,-7.0,-26.0,-18.0,-17.0,1650822957607886.0
-14.0,-8.0,-1.0,-6.0,1.0,2.0,31.0,36.0,1650822957619867.0
27.0,28.0,0.0,-15.0,-4.0,-7.0,8.0,-21.0,1650822957619867.0
-20.0,-31.0,1.0,22.0,-10.0,1.0,-11.0,13.0,1650822957628807.0
14.0,11.0,-11.0,-32.0,13.0,12.0,-11.0,-9.0,1650822957628807.0
-7.0,-10.0,13.0,15.0,-27.0,-14.0,-1.0,1.0,1650822957643807.0
-30.0,-3.0,-13.0,6.0,35.0,22.0,28.0,24.0,1650822957643807.0
-5.0,-26.0,-21.0,-11.0,-1.0,7.0,9.0,-17.0,1650822957645804.0
10.0,25.0,28.0,46.0,-6.0,-8.0,-10.0,-11.0,1650822957645804.0
-32.0,-3.0,-15.0,-19.0,1.0,7.0,-3.0,-18.0,1650822957666884.0
-3.0,-32.0,1.0,-6.0,4.0,-2.0,-5.0,-2.0,1650822957666884.0
6.0,-18.0,-16.0,-19.0,3.0,-4.0,-21.0,-17.0,1650822957667876.0
13.0,22.0,16.0,18.0,-10.0,2.0,8.0,26.0,1650822957667876.0
16.0,16.0,-3.0,-2.0,11.0,13.0,5.0,-25.0,1650822957679900.0
-13.0,-15.0,9.0,1.0,-6.0,-6.0,4.0,19.0,1650822957679900.0
-7.0,23.0,-10.0,-7.0,3.0,12.0,12.0,-13.0,1650822957696881.0
-42.0,-27.0,-7.0,-12.0,-7.0,-14.0,-9.0,-11.0,1650822957696881.0
47.0,8.0,7.0,6.0,7.0,5.0,18.0,24.0,1650822957703928.0
-32.0,-11.0,0.0,-4.0,-14.0,-4.0,-24.0,-4.0,1650822957703928.0
-4.0,19.0,-2.0,17.0,0.0,7.0,22.0,22.0,1650822957705855.0
-34.0,-20.0,-13.0,-22.0,-16.0,-17.0,-55.0,-43.0,1650822957705855.0
-8.0,-24.0,-19.0,-28.0,4.0,-8.0,-9.0,-7.0,1650822957726183.0
19.0,13.0,9.0,16.0,4.0,13.0,10.0,12.0,1650822957726183.0
-50.0,-15.0,-1.0,-12.0,-4.0,-3.0,12.0,1.0,1650822957728110.0
23.0,11.0,1.0,21.0,1.0,1.0,39.0,47.0,1650822957728110.0
-15.0,18.0,4.0,-13.0,4.0,1.0,-22.0,-35.0,1650822957740227.0
19.0,-10.0,12.0,13.0,-11.0,-13.0,-16.0,-11.0,1650822957740227.0
2.0,17.0,-5.0,-15.0,5.0,-2.0,-6.0,9.0,1650822957748806.0
-4.0,-59.0,-12.0,14.0,7.0,3.0,21.0,6.0,1650822957748806.0
61.0,42.0,5.0,0.0,-2.0,9.0,7.0,48.0,1650822957763974.0
-73.0,-46.0,-22.0,-23.0,-11.0,-15.0,-29.0,-73.0,1650822957763974.0
17.0,8.0,15.0,6.0,-1.0,3.0,39.0,15.0,1650822957764980.0
-51.0,12.0,19.0,17.0,4.0,-12.0,-16.0,-25.0,1650822957764980.0
55.0,-5.0,-1.0,8.0,4.0,10.0,2.0,20.0,1650822957786848.0
20.0,-26.0,-26.0,-14.0,19.0,-19.0,-23.0,4.0,1650822957786848.0
-17.0,-17.0,3.0,0.0,-20.0,-2.0,-10.0,15.0,1650822957787737.0
40.0,12.0,19.0,31.0,-7.0,17.0,35.0,1.0,1650822957787737.0
-4.0,-1.0,-18.0,-16.0,19.0,0.0,-2.0,-4.0,1650822957808903.0
-3.0,36.0,11.0,-14.0,-18.0,-4.0,0.0,5.0,1650822957808903.0
-1.0,-18.0,-17.0,-7.0,18.0,-1.0,-5.0,-13.0,1650822957810857.0
28.0,9.0,0.0,-11.0,-6.0,19.0,12.0,31.0,1650822957810857.0
-24.0,-31.0,2.0,13.0,-1.0,-10.0,-10.0,-1.0,1650822957823864.0
-63.0,-41.0,-21.0,-2.0,-9.0,-8.0,-14.0,-26.0,1650822957823864.0
10.0,9.0,5.0,-5.0,1.0,-7.0,-18.0,-3.0,1650822957825818.0
11.0,21.0,2.0,-20.0,-4.0,-3.0,-17.0,-5.0,1650822957825818.0
38.0,-17.0,-9.0,9.0,-11.0,-2.0,0.0,4.0,1650822957846801.0
-3.0,23.0,18.0,3.0,7.0,-5.0,-21.0,1.0,1650822957846801.0
-22.0,1.0,8.0,19.0,3.0,4.0,14.0,-4.0,1650822957847733.0
25.0,35.0,-11.0,-15.0,19.0,11.0,-6.0,-6.0,1650822957847733.0
-14.0,-24.0,-2.0,2.0,-18.0,-8.0,-20.0,-46.0,1650822957868894.0
27.0,16.0,0.0,6.0,10.0,-11.0,12.0,12.0,1650822957868894.0
-26.0,5.0,-5.0,0.0,-12.0,-4.0,-8.0,4.0,1650822957870850.0
22.0,-13.0,-7.0,-14.0,0.0,7.0,2.0,-7.0,1650822957870850.0
-83.0,-7.0,11.0,12.0,1.0,-1.0,-11.0,-11.0,1650822957883854.0
-3.0,-8.0,-2.0,-25.0,-10.0,-2.0,-21.0,-10.0,1650822957883854.0
10.0,28.0,8.0,-2.0,6.0,5.0,5.0,2.0,1650822957885810.0
29.0,8.0,4.0,-2.0,24.0,4.0,17.0,15.0,1650822957885810.0
-54.0,-15.0,-10.0,0.0,-21.0,-18.0,-44.0,-42.0,1650822957906035.0
27.0,49.0,26.0,14.0,-3.0,7.0,21.0,4.0,1650822957906035.0
7.0,-8.0,-1.0,-18.0,0.0,-3.0,-21.0,-5.0,1650822957908046.0
21.0,-25.0,6.0,6.0,-9.0,-1.0,-4.0,21.0,1650822957908046.0
-3.0,0.0,-1.0,2.0,-2.0,-11.0,20.0,11.0,1650822957928878.0
29.0,1.0,-2.0,13.0,25.0,15.0,15.0,15.0,1650822957928878.0
-61.0,2.0,9.0,1.0,-20.0,4.0,4.0,23.0,1650822957930901.0
-1.0,-16.0,-12.0,-1.0,-5.0,-17.0,9.0,-36.0,1650822957930901.0
43.0,20.0,12.0,4.0,24.0,-10.0,-12.0,11.0,1650822957944297.0
-22.0,19.0,13.0,9.0,-20.0,4.0,47.0,20.0,1650822957944297.0
24.0,-16.0,5.0,22.0,14.0,-2.0,-38.0,-26.0,1650822957945833.0
39.0,38.0,-8.0,-22.0,2.0,10.0,14.0,5.0,1650822957945833.0
-54.0,-35.0,-26.0,-24.0,-4.0,8.0,14.0,25.0,1650822957965925.0
46.0,60.0,18.0,22.0,3.0,3.0,-14.0,-3.0,1650822957965925.0
-5.0,-37.0,-12.0,26.0,12.0,3.0,13.0,1.0,1650822957973785.0
-25.0,7.0,-4.0,-24.0,-5.0,0.0,-9.0,-5.0,1650822957973785.0
23.0,6.0,-7.0,-4.0,-7.0,-3.0,1.0,8.0,1650822957989067.0
4.0,-45.0,-6.0,-2.0,-2.0,3.0,9.0,2.0,1650822957989067.0
23.0,29.0,19.0,5.0,-13.0,-5.0,0.0,3.0,1650822957990024.0
-83.0,18.0,-12.0,-3.0,20.0,-1.0,-26.0,-26.0,1650822957990024.0
-3.0,-5.0,-7.0,0.0,-8.0,8.0,8.0,3.0,1650822958003118.0
12.0,11.0,0.0,-7.0,-1.0,-4.0,9.0,29.0,1650822958003118.0
7.0,5.0,10.0,2.0,0.0,-20.0,-4.0,-43.0,1650822958012066.0
41.0,4.0,4.0,0.0,-6.0,-13.0,-29.0,26.0,1650822958012066.0
5.0,18.0,12.0,15.0,7.0,18.0,-12.0,-42.0,1650822958026082.0
-3.0,-42.0,-17.0,-2.0,-4.0,-6.0,3.0,8.0,1650822958026082.0
16.0,-3.0,-3.0,-15.0,5.0,11.0,19.0,38.0,1650822958028022.0
0.0,-10.0,11.0,31.0,-14.0,1.0,18.0,-11.0,1650822958028022.0
7.0,15.0,-19.0,-51.0,20.0,1.0,15.0,16.0,1650822958048859.0
-14.0,-26.0,-1.0,8.0,1.0,1.0,-19.0,-14.0,1650822958048859.0
13.0,11.0,1.0,21.0,-34.0,-10.0,0.0,-1.0,1650822958050883.0
-33.0,-76.0,-32.0,-35.0,34.0,15.0,13.0,-8.0,1650822958050883.0
8.0,-2.0,11.0,29.0,-10.0,-7.0,-3.0,32.0,1650822958062940.0
3.0,53.0,12.0,-5.0,5.0,12.0,8.0,-11.0,1650822958062940.0
19.0,-3.0,-8.0,-15.0,16.0,1.0,27.0,37.0,1650822958078044.0
-34.0,17.0,31.0,33.0,-19.0,-1.0,-13.0,-44.0,1650822958078044.0
72.0,30.0,23.0,12.0,2.0,7.0,25.0,37.0,1650822958086090.0
-30.0,-15.0,-26.0,-23.0,-1.0,-5.0,11.0,30.0,1650822958086090.0
-28.0,1.0,-5.0,-1.0,-9.0,-27.0,-54.0,-51.0,1650822958088020.0
1.0,9.0,1.0,1.0,-3.0,-5.0,14.0,43.0,1650822958088020.0
-10.0,-47.0,-10.0,0.0,-3.0,-10.0,-42.0,-58.0,1650822958108817.0
15.0,19.0,14.0,12.0,-8.0,19.0,35.0,24.0,1650822958108817.0
26.0,17.0,25.0,32.0,-10.0,-1.0,-1.0,-2.0,1650822958110800.0
-2.0,-34.0,-46.0,-40.0,39.0,22.0,23.0,29.0,1650822958110800.0
-33.0,-45.0,-18.0,-13.0,-9.0,-6.0,0.0,-20.0,1650822958123785.0
4.0,2.0,-2.0,-5.0,-5.0,-1.0,-27.0,-25.0,1650822958123785.0
-12.0,-28.0,-3.0,9.0,8.0,0.0,-2.0,-6.0,1650822958129815.0
15.0,23.0,11.0,-13.0,-21.0,-7.0,-15.0,-11.0,1650822958129815.0
-17.0,17.0,11.0,15.0,-7.0,-1.0,13.0,19.0,1650822958146824.0
0.0,3.0,-4.0,-4.0,6.0,0.0,-9.0,-15.0,1650822958146824.0
21.0,-2.0,-5.0,-15.0,10.0,21.0,5.0,-5.0,1650822958147819.0
-12.0,8.0,9.0,13.0,-13.0,-18.0,38.0,74.0,1650822958147819.0
-16.0,13.0,1.0,-5.0,3.0,8.0,-16.0,-25.0,1650822958168861.0
-3.0,-13.0,-1.0,2.0,-3.0,-29.0,-25.0,-31.0,1650822958168861.0
-5.0,-6.0,-16.0,-23.0,0.0,12.0,-4.0,-23.0,1650822958170858.0
5.0,-6.0,6.0,13.0,-13.0,-11.0,-45.0,-33.0,1650822958170858.0
-15.0,-1.0,-2.0,6.0,11.0,2.0,18.0,37.0,1650822958183824.0
5.0,-10.0,-4.0,2.0,-4.0,14.0,17.0,4.0,1650822958183824.0
-7.0,1.0,-1.0,0.0,9.0,-9.0,4.0,8.0,1650822958189874.0
5.0,6.0,8.0,2.0,-19.0,0.0,-6.0,-2.0,1650822958189874.0
2.0,7.0,12.0,-1.0,3.0,-8.0,5.0,-2.0,1650822958206879.0
-3.0,-9.0,-18.0,-2.0,13.0,10.0,-1.0,-6.0,1650822958206879.0
-1.0,-6.0,-27.0,-23.0,5.0,6.0,10.0,18.0,1650822958207804.0
1.0,-1.0,10.0,11.0,-1.0,-1.0,-4.0,-13.0,1650822958207804.0
-6.0,8.0,4.0,3.0,-7.0,-5.0,-7.0,-2.0,1650822958228882.0
4.0,-14.0,4.0,-6.0,-8.0,8.0,41.0,9.0,1650822958228882.0
-13.0,0.0,-1.0,-6.0,-8.0,-22.0,-55.0,-9.0,1650822958230880.0
1.0,3.0,5.0,8.0,6.0,2.0,4.0,-12.0,1650822958230880.0
-1.0,7.0,4.0,3.0,-5.0,4.0,18.0,-4.0,1650822958251042.0
0.0,1.0,4.0,1.0,10.0,2.0,0.0,10.0,1650822958251042.0
2.0,0.0,1.0,-1.0,12.0,5.0,17.0,23.0,1650822958252971.0
-2.0,1.0,-4.0,-1.0,-13.0,-12.0,-9.0,-27.0,1650822958252971.0
3.0,3.0,-5.0,-6.0,-7.0,9.0,19.0,12.0,1650822958266921.0
3.0,-1.0,2.0,0.0,1.0,-9.0,-10.0,13.0,1650822958266921.0
-4.0,-5.0,-5.0,-2.0,-4.0,11.0,4.0,23.0,1650822958267858.0
0.0,1.0,12.0,9.0,7.0,-1.0,-4.0,0.0,1650822958267858.0
-3.0,2.0,8.0,5.0,8.0,-2.0,3.0,6.0,1650822958288398.0
13.0,1.0,-5.0,0.0,-2.0,0.0,-5.0,10.0,1650822958288398.0
-21.0,-8.0,-7.0,-10.0,-5.0,-5.0,3.0,-16.0,1650822958296792.0
-1.0,-9.0,-46.0,-22.0,-4.0,3.0,11.0,8.0,1650822958296792.0
0.0,5.0,12.0,5.0,1.0,-5.0,-9.0,-9.0,1650822958303796.0
1.0,4.0,16.0,-1.0,-3.0,-6.0,-3.0,25.0,1650822958303796.0
9.0,7.0,6.0,15.0,0.0,7.0,9.0,-7.0,1650822958309849.0
-3.0,-10.0,-3.0,-1.0,2.0,2.0,0.0,9.0,1650822958309849.0
-5.0,-7.0,-11.0,-6.0,15.0,-3.0,-10.0,-13.0,1650822958326701.0
-2.0,-2.0,-5.0,-2.0,-22.0,-7.0,-14.0,-2.0,1650822958326701.0
1.0,2.0,1.0,-7.0,-4.0,0.0,6.0,-5.0,1650822958327700.0
0.0,5.0,5.0,5.0,-12.0,-4.0,0.0,-1.0,1650822958327700.0
6.0,9.0,26.0,21.0,11.0,6.0,16.0,37.0,1650822958356797.0
-3.0,-8.0,-32.0,-5.0,18.0,2.0,-1.0,-67.0,1650822958356797.0
-5.0,-11.0,-8.0,-21.0,-3.0,-6.0,-6.0,-3.0,1650822958357794.0
0.0,-1.0,3.0,1.0,-3.0,1.0,-12.0,-44.0,1650822958357794.0
1.0,1.0,-7.0,-7.0,-13.0,-5.0,7.0,23.0,1650822958362810.0
6.0,3.0,16.0,6.0,2.0,0.0,-1.0,-1.0,1650822958362810.0
-8.0,3.0,-11.0,-4.0,-8.0,1.0,-7.0,-28.0,1650822958371759.0
19.0,22.0,18.0,11.0,13.0,6.0,16.0,45.0,1650822958371759.0
-25.0,-32.0,-14.0,-9.0,-7.0,-6.0,-24.0,-61.0,1650822958386849.0
12.0,15.0,4.0,8.0,-10.0,-3.0,-14.0,-13.0,1650822958386849.0
6.0,-5.0,-34.0,-21.0,-2.0,-2.0,-4.0,15.0,1650822958387847.0
0.0,2.0,12.0,5.0,3.0,4.0,8.0,26.0,1650822958387847.0
-7.0,20.0,5.0,-1.0,-2.0,3.0,2.0,-15.0,1650822958408862.0
13.0,-5.0,2.0,2.0,9.0,-1.0,-7.0,7.0,1650822958408862.0
11.0,-8.0,2.0,5.0,9.0,7.0,10.0,12.0,1650822958410886.0
8.0,19.0,10.0,6.0,-7.0,-3.0,-7.0,-19.0,1650822958410886.0
-1.0,-23.0,-19.0,-4.0,-1.0,-3.0,-10.0,-22.0,1650822958423011.0
-11.0,-8.0,2.0,-11.0,-3.0,-5.0,6.0,32.0,1650822958423011.0
5.0,-24.0,0.0,2.0,-4.0,-4.0,-10.0,-37.0,1650822958432033.0
-18.0,-6.0,-5.0,-3.0,3.0,0.0,-7.0,-19.0,1650822958432033.0
8.0,6.0,0.0,3.0,-9.0,-3.0,-1.0,15.0,1650822958446882.0
-10.0,-8.0,-6.0,-5.0,-3.0,-3.0,4.0,4.0,1650822958446882.0
3.0,3.0,15.0,7.0,6.0,7.0,3.0,0.0,1650822958447882.0
-6.0,-11.0,-14.0,-5.0,-1.0,-10.0,0.0,4.0,1650822958447882.0
1.0,13.0,-2.0,3.0,-7.0,-3.0,-1.0,4.0,1650822958468700.0
-8.0,-15.0,-3.0,-5.0,1.0,2.0,-4.0,-19.0,1650822958468700.0
-2.0,19.0,19.0,6.0,2.0,2.0,9.0,23.0,1650822958470652.0
5.0,10.0,-11.0,-4.0,3.0,0.0,-6.0,-8.0,1650822958470652.0
2.0,-15.0,2.0,1.0,-2.0,-1.0,2.0,12.0,1650822958482663.0
-6.0,-1.0,-5.0,4.0,5.0,3.0,-4.0,-14.0,1650822958482663.0
3.0,20.0,13.0,9.0,7.0,4.0,5.0,5.0,1650822958491573.0
-13.0,-48.0,-9.0,-9.0,-7.0,-3.0,0.0,7.0,1650822958491573.0
3.0,15.0,-16.0,-12.0,-9.0,-4.0,-5.0,-1.0,1650822958506732.0
0.0,6.0,4.0,0.0,-4.0,-2.0,-2.0,4.0,1650822958506732.0
0.0,-12.0,-5.0,0.0,20.0,0.0,2.0,12.0,1650822958507743.0
-4.0,16.0,14.0,5.0,-15.0,3.0,1.0,-11.0,1650822958507743.0
7.0,11.0,7.0,7.0,3.0,3.0,0.0,-11.0,1650822958528862.0
-10.0,-5.0,-11.0,-15.0,-1.0,-2.0,-4.0,-5.0,1650822958528862.0
0.0,15.0,2.0,1.0,1.0,-1.0,4.0,3.0,1650822958530887.0
2.0,3.0,-1.0,-3.0,0.0,-5.0,-2.0,-1.0,1650822958530887.0
1.0,-25.0,-6.0,3.0,1.0,5.0,13.0,26.0,1650822958542894.0
1.0,17.0,2.0,3.0,-1.0,-2.0,-25.0,-58.0,1650822958542894.0
-6.0,4.0,6.0,-3.0,-9.0,-4.0,0.0,12.0,1650822958551803.0
1.0,-3.0,-3.0,0.0,2.0,-3.0,0.0,2.0,1650822958551803.0
2.0,1.0,1.0,5.0,4.0,0.0,2.0,7.0,1650822958566888.0
-4.0,-3.0,-2.0,0.0,3.0,2.0,6.0,9.0,1650822958566888.0
0.0,-1.0,-8.0,-3.0,4.0,1.0,3.0,8.0,1650822958567888.0
-5.0,5.0,3.0,4.0,-11.0,2.0,-4.0,-15.0,1650822958567888.0
-5.0,-17.0,-7.0,-5.0,-5.0,-8.0,-6.0,-2.0,1650822958589046.0
-1.0,-2.0,-1.0,1.0,17.0,-1.0,2.0,14.0,1650822958589046.0
-3.0,2.0,-1.0,0.0,-23.0,-5.0,-4.0,-6.0,1650822958590006.0
4.0,-8.0,0.0,-1.0,8.0,5.0,4.0,16.0,1650822958590006.0
-1.0,-8.0,1.0,-3.0,2.0,-2.0,-4.0,-12.0,1650822958603030.0
2.0,21.0,3.0,6.0,2.0,2.0,4.0,12.0,1650822958603030.0
1.0,7.0,4.0,-3.0,1.0,-2.0,1.0,-5.0,1650822958611920.0
4.0,-11.0,-4.0,-2.0,0.0,-2.0,-3.0,4.0,1650822958611920.0
0.0,28.0,6.0,-3.0,-3.0,3.0,4.0,1.0,1650822958633927.0
0.0,-17.0,-6.0,3.0,-4.0,-2.0,-4.0,0.0,1650822958633927.0
1.0,6.0,2.0,6.0,1.0,0.0,0.0,2.0,1650822958635856.0
-7.0,-11.0,-11.0,-10.0,3.0,3.0,-1.0,-10.0,1650822958635856.0
9.0,33.0,16.0,6.0,3.0,1.0,0.0,-5.0,1650822958648998.0
3.0,2.0,3.0,0.0,-5.0,-3.0,7.0,29.0,1650822958648998.0
-1.0,0.0,6.0,6.0,-5.0,-2.0,0.0,-8.0,1650822958650957.0
10.0,24.0,-1.0,-11.0,4.0,-1.0,2.0,10.0,1650822958650957.0
-14.0,-57.0,-20.0,-9.0,-5.0,-3.0,-6.0,-13.0,1650822958662976.0
1.0,10.0,1.0,1.0,4.0,10.0,5.0,21.0,1650822958662976.0
-7.0,-18.0,-1.0,7.0,8.0,-8.0,-9.0,-35.0,1650822958672004.0
9.0,29.0,13.0,9.0,-18.0,-4.0,-2.0,-3.0,1650822958672004.0
-7.0,4.0,-13.0,-8.0,0.0,-4.0,-3.0,2.0,1650822958686824.0
-6.0,12.0,2.0,-5.0,-14.0,-5.0,0.0,-8.0,1650822958686824.0
2.0,0.0,-4.0,-3.0,15.0,7.0,4.0,17.0,1650822958688108.0
0.0,-5.0,3.0,3.0,1.0,0.0,-3.0,0.0,1650822958688108.0
-2.0,14.0,1.0,0.0,1.0,3.0,-2.0,-12.0,1650822958709378.0
-3.0,-17.0,-1.0,-1.0,-2.0,-4.0,-3.0,3.0,1650822958709378.0
-2.0,0.0,-6.0,-5.0,-4.0,1.0,2.0,2.0,1650822958710283.0
-1.0,-14.0,-2.0,0.0,5.0,2.0,-1.0,-9.0,1650822958710283.0
-11.0,-1.0,6.0,3.0,-3.0,1.0,3.0,12.0,1650822958723007.0
5.0,9.0,6.0,-4.0,-2.0,-2.0,-1.0,-5.0,1650822958723007.0
-1.0,-11.0,-7.0,-2.0,-8.0,-3.0,-3.0,-1.0,1650822958731854.0
-4.0,0.0,-3.0,3.0,0.0,3.0,0.0,1.0,1650822958731854.0
5.0,-2.0,2.0,2.0,4.0,-3.0,-3.0,0.0,1650822958745950.0
-4.0,-32.0,1.0,3.0,-3.0,0.0,-1.0,-8.0,1650822958745950.0
1.0,5.0,-2.0,-5.0,-9.0,-2.0,-3.0,-9.0,1650822958747953.0
-2.0,-9.0,-2.0,0.0,11.0,3.0,1.0,0.0,1650822958747953.0
12.0,-13.0,-8.0,-1.0,8.0,3.0,2.0,7.0,1650822958768956.0
-2.0,37.0,6.0,0.0,-7.0,-5.0,-1.0,-9.0,1650822958768956.0
2.0,5.0,7.0,1.0,-2.0,2.0,4.0,14.0,1650822958770933.0
-4.0,-21.0,-8.0,1.0,20.0,-2.0,-8.0,-3.0,1650822958770933.0
7.0,28.0,10.0,-1.0,-21.0,0.0,2.0,13.0,1650822958782919.0
3.0,-31.0,-8.0,-1.0,-3.0,-1.0,0.0,-8.0,1650822958782919.0
-2.0,-1.0,1.0,0.0,-1.0,-1.0,1.0,0.0,1650822958791830.0
2.0,23.0,9.0,-2.0,3.0,3.0,1.0,-5.0,1650822958791830.0
-8.0,-6.0,-8.0,-5.0,0.0,-4.0,0.0,5.0,1650822958806037.0
0.0,-11.0,-4.0,-2.0,-8.0,-3.0,-17.0,-36.0,1650822958806037.0
-2.0,-2.0,1.0,1.0,-3.0,3.0,0.0,-4.0,1650822958808043.0
2.0,-4.0,4.0,5.0,3.0,2.0,2.0,9.0,1650822958808043.0
4.0,2.0,1.0,5.0,0.0,-2.0,1.0,1.0,1650822958828879.0
-7.0,-2.0,-10.0,-6.0,-1.0,-1.0,3.0,7.0,1650822958828879.0
3.0,10.0,3.0,-7.0,15.0,-2.0,-3.0,0.0,1650822958830836.0
-2.0,-8.0,-8.0,-1.0,-42.0,-8.0,0.0,-4.0,1650822958830836.0
3.0,1.0,7.0,10.0,10.0,5.0,2.0,0.0,1650822958851850.0
3.0,12.0,8.0,14.0,16.0,3.0,2.0,12.0,1650822958851850.0
0.0,-1.0,-6.0,-14.0,3.0,4.0,3.0,0.0,1650822958852846.0
-7.0,-9.0,-6.0,-22.0,-5.0,-7.0,-2.0,0.0,1650822958852846.0
3.0,4.0,2.0,7.0,-4.0,-5.0,-3.0,-2.0,1650822958866880.0
-1.0,-11.0,-6.0,-5.0,-5.0,-2.0,-6.0,-4.0,1650822958866880.0
0.0,14.0,7.0,12.0,4.0,3.0,1.0,3.0,1650822958867880.0
-7.0,-4.0,3.0,0.0,0.0,-1.0,-3.0,-4.0,1650822958867880.0
1.0,2.0,9.0,1.0,-2.0,3.0,1.0,-1.0,1650822958888861.0
-4.0,-28.0,-16.0,-3.0,-2.0,-2.0,3.0,3.0,1650822958888861.0
-1.0,-21.0,-18.0,-4.0,-1.0,1.0,-1.0,-3.0,1650822958890887.0
3.0,29.0,-5.0,1.0,1.0,-7.0,1.0,12.0,1650822958890887.0
-1.0,3.0,2.0,-1.0,-1.0,2.0,-9.0,-22.0,1650822958911795.0
1.0,8.0,9.0,3.0,-5.0,-1.0,4.0,7.0,1650822958911795.0
-10.0,-32.0,-5.0,-4.0,2.0,-5.0,-5.0,-6.0,1650822958913817.0
1.0,-9.0,0.0,7.0,-14.0,1.0,0.0,-3.0,1650822958913817.0
4.0,-4.0,0.0,0.0,11.0,4.0,1.0,6.0,1650822958926820.0
0.0,1.0,-1.0,-7.0,3.0,7.0,1.0,5.0,1650822958926820.0
1.0,-10.0,-6.0,-3.0,-13.0,-14.0,-5.0,-3.0,1650822958927752.0
-2.0,2.0,7.0,2.0,7.0,0.0,-1.0,-3.0,1650822958927752.0
-2.0,2.0,-4.0,-4.0,3.0,4.0,-1.0,-1.0,1650822958949885.0
1.0,4.0,-2.0,-1.0,-4.0,-8.0,1.0,-1.0,1650822958949885.0
3.0,14.0,13.0,15.0,2.0,10.0,6.0,7.0,1650822958951864.0
4.0,1.0,7.0,7.0,11.0,2.0,3.0,2.0,1650822958951864.0
-5.0,-6.0,-19.0,-18.0,-10.0,-6.0,-1.0,2.0,1650822958971871.0
-2.0,16.0,-2.0,-5.0,-1.0,1.0,-2.0,1.0,1650822958971871.0
-2.0,13.0,5.0,1.0,-5.0,-3.0,-3.0,0.0,1650822958972852.0
0.0,10.0,3.0,-6.0,19.0,1.0,-2.0,-4.0,1650822958972852.0
1.0,3.0,1.0,-1.0,-14.0,4.0,0.0,0.0,1650822958986207.0
-3.0,-14.0,-1.0,3.0,4.0,-4.0,-1.0,-1.0,1650822958986207.0
2.0,14.0,-5.0,-7.0,-16.0,-5.0,-1.0,2.0,1650822958992259.0
-1.0,15.0,8.0,5.0,-1.0,3.0,-2.0,-5.0,1650822958992259.0
-2.0,-11.0,-5.0,-1.0,11.0,3.0,0.0,2.0,1650822959008403.0
0.0,-4.0,-3.0,-1.0,-4.0,-3.0,3.0,2.0,1650822959008403.0
-5.0,-3.0,4.0,3.0,0.0,-3.0,-1.0,-3.0,1650822959015453.0
4.0,-7.0,2.0,6.0,3.0,3.0,2.0,2.0,1650822959015453.0
-7.0,-14.0,-1.0,-2.0,-1.0,-3.0,-4.0,-3.0,1650822959031854.0
1.0,-5.0,0.0,-2.0,-4.0,1.0,0.0,-7.0,1650822959031854.0
-3.0,-2.0,-4.0,-8.0,-8.0,-2.0,-7.0,1.0,1650822959032819.0
-1.0,-14.0,-5.0,0.0,6.0,10.0,1.0,-1.0,1650822959032819.0
6.0,18.0,17.0,12.0,12.0,-10.0,3.0,4.0,1650822959045850.0
2.0,19.0,2.0,6.0,-11.0,6.0,3.0,2.0,1650822959045850.0
-1.0,-17.0,-5.0,-6.0,3.0,-3.0,1.0,0.0,1650822959052831.0
-4.0,-9.0,-11.0,-4.0,-10.0,-3.0,-3.0,-4.0,1650822959052831.0
-2.0,-4.0,-2.0,-1.0,5.0,1.0,0.0,-2.0,1650822959068872.0
-1.0,-14.0,-8.0,-4.0,3.0,-3.0,-2.0,3.0,1650822959068872.0
0.0,14.0,2.0,5.0,-1.0,-2.0,1.0,1.0,1650822959070826.0
-3.0,-25.0,-2.0,-2.0,2.0,1.0,-2.0,-2.0,1650822959070826.0
-1.0,1.0,-1.0,-2.0,4.0,-1.0,-2.0,-4.0,1650822959091899.0
2.0,-7.0,-3.0,-4.0,-15.0,-3.0,0.0,2.0,1650822959091899.0
2.0,-3.0,-1.0,1.0,1.0,3.0,1.0,0.0,1650822959092889.0
2.0,5.0,-3.0,1.0,3.0,-2.0,0.0,0.0,1650822959092889.0
-5.0,-1.0,-12.0,-7.0,-8.0,-6.0,-5.0,-1.0,1650822959106148.0
-4.0,0.0,13.0,0.0,0.0,-3.0,-3.0,-4.0,1650822959106148.0
-4.0,-24.0,-11.0,-6.0,9.0,3.0,3.0,-1.0,1650822959112999.0
3.0,15.0,14.0,3.0,-2.0,-5.0,0.0,1.0,1650822959112999.0
8.0,9.0,-6.0,-4.0,-4.0,2.0,1.0,3.0,1650822959129129.0
-6.0,2.0,-6.0,-4.0,20.0,1.0,-4.0,-2.0,1650822959129129.0
-1.0,5.0,4.0,2.0,-21.0,6.0,-2.0,-3.0,1650822959130085.0
-2.0,-13.0,-5.0,4.0,13.0,-2.0,2.0,-1.0,1650822959130085.0
4.0,4.0,3.0,3.0,-10.0,2.0,4.0,3.0,1650822959151196.0
2.0,5.0,0.0,1.0,4.0,-1.0,-1.0,2.0,1650822959151196.0
-1.0,-2.0,1.0,-1.0,2.0,-2.0,-1.0,-1.0,1650822959153216.0
1.0,-3.0,-8.0,-4.0,-2.0,1.0,-1.0,-2.0,1650822959153216.0
-2.0,-2.0,2.0,1.0,-3.0,1.0,-1.0,-1.0,1650822959166210.0
-2.0,4.0,-1.0,-2.0,12.0,1.0,2.0,-3.0,1650822959166210.0
-2.0,-8.0,-4.0,-4.0,-12.0,0.0,-1.0,-2.0,1650822959173058.0
-2.0,3.0,3.0,3.0,-6.0,-2.0,1.0,1.0,1650822959173058.0
-3.0,1.0,1.0,0.0,1.0,-3.0,-1.0,-1.0,1650822959189872.0
-2.0,-33.0,-12.0,-1.0,4.0,-4.0,-3.0,-4.0,1650822959189872.0
2.0,5.0,0.0,3.0,13.0,-1.0,1.0,2.0,1650822959190832.0
2.0,0.0,-3.0,-6.0,-15.0,3.0,-1.0,0.0,1650822959190832.0
-10.0,-18.0,4.0,-11.0,-6.0,-9.0,-3.0,-3.0,1650822959211877.0
3.0,-10.0,-4.0,4.0,3.0,10.0,4.0,3.0,1650822959211877.0
-3.0,-5.0,-3.0,-3.0,5.0,-1.0,-1.0,-2.0,1650822959212860.0
0.0,-10.0,-1.0,3.0,-1.0,1.0,0.0,2.0,1650822959212860.0
-10.0,-13.0,-1.0,-5.0,-4.0,-5.0,-4.0,-6.0,1650822959225930.0
3.0,6.0,1.0,2.0,-9.0,-1.0,-1.0,6.0,1650822959225930.0
-2.0,-9.0,11.0,0.0,7.0,2.0,-1.0,-4.0,1650822959233006.0
2.0,-1.0,-6.0,3.0,2.0,-1.0,-2.0,3.0,1650822959233006.0
3.0,0.0,-14.0,-6.0,-1.0,4.0,1.0,0.0,1650822959248852.0
-2.0,9.0,4.0,-2.0,4.0,6.0,-1.0,2.0,1650822959248852.0
0.0,-1.0,-6.0,-3.0,-8.0,-8.0,-1.0,0.0,1650822959250873.0
-2.0,3.0,0.0,0.0,-6.0,-5.0,-1.0,-3.0,1650822959250873.0
3.0,3.0,-6.0,0.0,0.0,-1.0,0.0,2.0,1650822959271923.0
0.0,4.0,5.0,3.0,20.0,-1.0,1.0,0.0,1650822959271923.0
0.0,7.0,2.0,2.0,-21.0,5.0,2.0,2.0,1650822959272920.0
-3.0,3.0,3.0,0.0,7.0,3.0,0.0,-7.0,1650822959272920.0
4.0,14.0,8.0,9.0,0.0,4.0,0.0,0.0,1650822959286205.0
2.0,4.0,-1.0,0.0,1.0,-2.0,-4.0,1.0,1650822959286205.0
1.0,10.0,11.0,2.0,6.0,0.0,1.0,-1.0,1650822959292258.0
-3.0,-20.0,-15.0,-4.0,-5.0,-5.0,-2.0,-1.0,1650822959292258.0
-1.0,10.0,8.0,1.0,0.0,-1.0,0.0,0.0,1650822959308871.0
4.0,9.0,15.0,4.0,-8.0,1.0,1.0,1.0,1650822959308871.0
-1.0,14.0,-41.0,-17.0,2.0,-3.0,-4.0,-3.0,1650822959310826.0
-5.0,-9.0,-5.0,-12.0,-9.0,-2.0,-1.0,1.0,1650822959310826.0
1.0,-11.0,2.0,4.0,5.0,2.0,2.0,1.0,1650822959331802.0
-4.0,7.0,15.0,1.0,-12.0,-5.0,-3.0,-3.0,1650822959331802.0
1.0,-7.0,0.0,9.0,0.0,1.0,0.0,1.0,1650822959332744.0
-3.0,28.0,-1.0,-2.0,7.0,1.0,2.0,-2.0,1650822959332744.0
-9.0,-16.0,1.0,-4.0,-1.0,-2.0,-6.0,-6.0,1650822959344775.0
2.0,2.0,-2.0,0.0,-3.0,-2.0,2.0,0.0,1650822959344775.0
2.0,-7.0,1.0,1.0,2.0,2.0,2.0,6.0,1650822959353727.0
0.0,0.0,-1.0,6.0,6.0,2.0,-4.0,-17.0,1650822959353727.0
3.0,2.0,3.0,1.0,-4.0,-2.0,-1.0,-3.0,1650822959368886.0
-3.0,3.0,-6.0,-7.0,-10.0,-2.0,-2.0,-3.0,1650822959368886.0
-3.0,-3.0,3.0,-2.0,1.0,-2.0,-4.0,-2.0,1650822959370909.0
2.0,0.0,4.0,-2.0,-5.0,-3.0,2.0,6.0,1650822959370909.0
-2.0,5.0,0.0,3.0,-1.0,-2.0,-2.0,0.0,1650822959391855.0
-2.0,-4.0,-3.0,0.0,23.0,7.0,3.0,-2.0,1650822959391855.0
4.0,-3.0,4.0,1.0,-15.0,3.0,0.0,1.0,1650822959392796.0
-7.0,-10.0,-1.0,-8.0,-2.0,-7.0,-5.0,-2.0,1650822959392796.0
3.0,5.0,5.0,6.0,-5.0,1.0,3.0,1.0,1650822959404824.0
1.0,0.0,-4.0,1.0,-2.0,-1.0,-1.0,4.0,1650822959404824.0
2.0,3.0,1.0,1.0,21.0,6.0,0.0,1.0,1650822959413713.0
4.0,-2.0,2.0,-4.0,-23.0,-4.0,3.0,3.0,1650822959413713.0
-1.0,12.0,-1.0,-6.0,-1.0,-2.0,-1.0,-1.0,1650822959428825.0
-7.0,-19.0,6.0,1.0,-2.0,-1.0,-1.0,-1.0,1650822959428825.0
0.0,-2.0,7.0,4.0,3.0,2.0,1.0,-2.0,1650822959430850.0
-2.0,-9.0,-6.0,-1.0,2.0,0.0,-4.0,0.0,1650822959430850.0
-2.0,-9.0,-9.0,-1.0,-2.0,-3.0,-2.0,0.0,1650822959451853.0
2.0,4.0,-2.0,-2.0,-11.0,-4.0,0.0,-2.0,1650822959451853.0
-5.0,3.0,2.0,-1.0,5.0,2.0,1.0,-1.0,1650822959452773.0
6.0,4.0,8.0,5.0,27.0,8.0,2.0,4.0,1650822959452773.0
-3.0,1.0,4.0,-2.0,-18.0,-4.0,3.0,5.0,1650822959465937.0
-4.0,5.0,-4.0,-2.0,-6.0,-2.0,-1.0,-2.0,1650822959465937.0
1.0,-8.0,-8.0,-3.0,-9.0,-7.0,-2.0,-2.0,1650822959473850.0
1.0,-2.0,-3.0,-4.0,-1.0,0.0,-1.0,4.0,1650822959473850.0
-2.0,0.0,1.0,5.0,10.0,4.0,-1.0,-1.0,1650822959488872.0
-5.0,3.0,-10.0,-5.0,0.0,-1.0,0.0,-2.0,1650822959488872.0
4.0,0.0,2.0,-10.0,-6.0,-4.0,0.0,8.0,1650822959490895.0
-4.0,4.0,1.0,5.0,12.0,2.0,-2.0,-11.0,1650822959490895.0
4.0,-5.0,-2.0,-1.0,-7.0,-1.0,0.0,-1.0,1650822959511031.0
1.0,-4.0,-5.0,8.0,1.0,3.0,7.0,4.0,1650822959511031.0
-4.0,-18.0,-4.0,1.0,1.0,-2.0,-1.0,1.0,1650822959512960.0
-2.0,8.0,-2.0,-3.0,-5.0,-2.0,-2.0,2.0,1650822959512960.0
4.0,-5.0,-7.0,-5.0,0.0,-3.0,-2.0,-1.0,1650822959524717.0
-3.0,2.0,-14.0,-11.0,2.0,4.0,-2.0,-3.0,1650822959524717.0
-9.0,10.0,2.0,1.0,-12.0,-5.0,-3.0,-8.0,1650822959533693.0
-1.0,7.0,4.0,1.0,-12.0,-2.0,1.0,1.0,1650822959533693.0
-2.0,-6.0,-3.0,2.0,9.0,2.0,2.0,0.0,1650822959548912.0
4.0,2.0,6.0,3.0,0.0,4.0,0.0,1.0,1650822959548912.0
-4.0,-7.0,6.0,-2.0,9.0,0.0,-4.0,-6.0,1650822959550871.0
-6.0,-24.0,-9.0,-2.0,-4.0,0.0,-3.0,-4.0,1650822959550871.0
0.0,13.0,22.0,4.0,-1.0,3.0,2.0,3.0,1650822959572384.0
4.0,4.0,3.0,-1.0,1.0,-1.0,1.0,-1.0,1650822959572384.0
6.0,6.0,-4.0,0.0,0.0,-2.0,-1.0,0.0,1650822959573388.0
-1.0,-19.0,-13.0,-4.0,-10.0,-6.0,-2.0,-2.0,1650822959573388.0
-2.0,-3.0,-3.0,-7.0,4.0,3.0,0.0,-3.0,1650822959585472.0
4.0,9.0,7.0,10.0,7.0,6.0,0.0,1.0,1650822959585472.0
-4.0,7.0,-1.0,3.0,3.0,-1.0,3.0,-1.0,1650822959594528.0
3.0,8.0,8.0,0.0,-7.0,-4.0,1.0,1.0,1650822959594528.0
1.0,-4.0,-15.0,-9.0,25.0,3.0,-2.0,0.0,1650822959608876.0
-3.0,-2.0,-3.0,-6.0,-44.0,-12.0,-6.0,-6.0,1650822959608876.0
0.0,0.0,5.0,4.0,-2.0,2.0,2.0,2.0,1650822959610873.0
0.0,2.0,1.0,6.0,11.0,5.0,1.0,6.0,1650822959610873.0
-3.0,-8.0,-1.0,-1.0,-1.0,-2.0,-3.0,-3.0,1650822959639006.0
0.0,-7.0,-9.0,-6.0,7.0,-3.0,1.0,-2.0,1650822959639006.0
0.0,-2.0,2.0,-1.0,2.0,3.0,-1.0,-2.0,1650822959640957.0
1.0,25.0,5.0,1.0,-2.0,9.0,0.0,0.0,1650822959640957.0
-2.0,-32.0,-11.0,4.0,-5.0,-12.0,2.0,8.0,1650822959644925.0
-3.0,-2.0,7.0,3.0,-2.0,-1.0,-8.0,-17.0,1650822959644925.0
1.0,9.0,-3.0,-6.0,-4.0,-1.0,-3.0,-3.0,1650822959653906.0
0.0,-12.0,-3.0,-2.0,4.0,1.0,-2.0,0.0,1650822959653906.0
3.0,10.0,1.0,2.0,-3.0,1.0,1.0,-2.0,1650822959669161.0
0.0,6.0,2.0,-3.0,0.0,-1.0,0.0,5.0,1650822959669161.0
1.0,-13.0,-3.0,4.0,-4.0,-3.0,-1.0,2.0,1650822959670119.0
2.0,15.0,2.0,-2.0,8.0,2.0,0.0,1.0,1650822959670119.0
-3.0,20.0,3.0,-6.0,-19.0,-1.0,-3.0,-4.0,1650822959691854.0
3.0,-3.0,1.0,1.0,5.0,5.0,5.0,4.0,1650822959691854.0
-2.0,3.0,-1.0,1.0,4.0,-1.0,-1.0,-2.0,1650822959692851.0
3.0,1.0,2.0,-3.0,-5.0,-4.0,0.0,3.0,1650822959692851.0
6.0,0.0,-3.0,-1.0,-4.0,1.0,-1.0,-2.0,1650822959714009.0
-9.0,-5.0,-3.0,-2.0,0.0,-2.0,1.0,-1.0,1650822959714009.0
1.0,6.0,5.0,1.0,-7.0,0.0,-3.0,-3.0,1650822959715958.0
-1.0,0.0,5.0,8.0,5.0,0.0,-1.0,7.0,1650822959715958.0
-6.0,-10.0,-5.0,-2.0,3.0,-3.0,-2.0,0.0,1650822959728938.0
3.0,3.0,5.0,0.0,13.0,6.0,0.0,0.0,1650822959728938.0
2.0,6.0,-4.0,0.0,-11.0,-7.0,1.0,0.0,1650822959730923.0
-4.0,-21.0,-14.0,-8.0,7.0,-4.0,-1.0,-5.0,1650822959730923.0
2.0,7.0,6.0,4.0,-6.0,4.0,0.0,-1.0,1650822959751858.0
1.0,15.0,2.0,2.0,2.0,6.0,0.0,4.0,1650822959751858.0
-4.0,-20.0,-8.0,-7.0,0.0,-4.0,-1.0,-1.0,1650822959752838.0
-3.0,-3.0,10.0,-2.0,-18.0,-7.0,1.0,-4.0,1650822959752838.0
4.0,16.0,7.0,9.0,5.0,2.0,2.0,2.0,1650822959774020.0
-4.0,-17.0,1.0,-1.0,-2.0,-2.0,-1.0,-1.0,1650822959774020.0
1.0,6.0,-9.0,-7.0,10.0,6.0,2.0,1.0,1650822959775020.0
1.0,4.0,-2.0,-3.0,-5.0,1.0,4.0,9.0,1650822959775020.0
0.0,-9.0,-3.0,-4.0,5.0,0.0,-3.0,-8.0,1650822959789051.0
-3.0,-1.0,-1.0,-3.0,-16.0,-9.0,-2.0,1.0,1650822959789051.0
-10.0,-1.0,1.0,2.0,0.0,3.0,-1.0,-4.0,1650822959790978.0
6.0,3.0,-1.0,5.0,5.0,5.0,6.0,7.0,1650822959790978.0
-4.0,-1.0,-2.0,0.0,-3.0,-3.0,-5.0,-7.0,1650822959811144.0
5.0,0.0,-1.0,-2.0,5.0,-4.0,-1.0,12.0,1650822959811144.0
-8.0,-3.0,0.0,0.0,-19.0,-3.0,-2.0,-1.0,1650822959813081.0
5.0,5.0,1.0,-1.0,11.0,2.0,2.0,-3.0,1650822959813081.0
0.0,4.0,6.0,1.0,0.0,6.0,3.0,4.0,1650822959834326.0
3.0,-2.0,-12.0,-2.0,-1.0,1.0,-2.0,-6.0,1650822959834326.0
-2.0,-5.0,-3.0,-3.0,9.0,-1.0,0.0,1.0,1650822959835831.0
-4.0,-6.0,0.0,-1.0,-13.0,-7.0,-5.0,-5.0,1650822959835831.0
8.0,1.0,-6.0,-3.0,-1.0,-2.0,-4.0,1.0,1650822959848860.0
-7.0,2.0,7.0,1.0,1.0,2.0,1.0,-2.0,1650822959848860.0
6.0,11.0,4.0,6.0,-5.0,-5.0,1.0,2.0,1650822959850887.0
-1.0,3.0,-7.0,0.0,6.0,3.0,-3.0,-7.0,1650822959850887.0
-5.0,-3.0,6.0,0.0,14.0,-2.0,1.0,1.0,1650822959870862.0
-2.0,-6.0,-8.0,-2.0,-20.0,-7.0,-1.0,-2.0,1650822959870862.0
5.0,6.0,6.0,2.0,11.0,7.0,0.0,1.0,1650822959871822.0
-3.0,-1.0,-7.0,-9.0,-8.0,-4.0,-1.0,-3.0,1650822959871822.0
1.0,-4.0,-3.0,1.0,17.0,4.0,1.0,2.0,1650822959893598.0
4.0,-3.0,2.0,2.0,-7.0,4.0,5.0,3.0,1650822959893598.0
3.0,-1.0,5.0,4.0,4.0,-1.0,-1.0,3.0,1650822959893598.0
-3.0,-8.0,-2.0,2.0,-2.0,2.0,0.0,3.0,1650822959893598.0
1.0,-3.0,-9.0,-4.0,-6.0,0.0,-2.0,1.0,1650822959916840.0
1.0,1.0,5.0,-1.0,3.0,-6.0,-1.0,-2.0,1650822959916840.0
12.0,0.0,1.0,-1.0,4.0,2.0,5.0,9.0,1650822959916840.0
-23.0,-6.0,3.0,0.0,10.0,1.0,-7.0,-11.0,1650822959916840.0
1.0,-3.0,-7.0,3.0,-17.0,-4.0,1.0,1.0,1650822959938970.0
14.0,13.0,4.0,11.0,19.0,4.0,2.0,5.0,1650822959938970.0
-29.0,-2.0,9.0,-3.0,-17.0,-5.0,-4.0,-7.0,1650822959939929.0
-13.0,-20.0,-18.0,-15.0,22.0,10.0,-3.0,-9.0,1650822959939929.0
-9.0,4.0,3.0,-3.0,-29.0,-12.0,1.0,-2.0,1650822959953929.0
2.0,-4.0,-9.0,-3.0,7.0,-1.0,-3.0,0.0,1650822959953929.0
6.0,-3.0,-3.0,-9.0,0.0,-2.0,-1.0,-2.0,1650822959954861.0
10.0,9.0,15.0,11.0,-2.0,4.0,9.0,20.0,1650822959954861.0
-6.0,0.0,-4.0,-3.0,11.0,7.0,-18.0,-36.0,1650822959967991.0
-4.0,-2.0,-3.0,-3.0,0.0,7.0,-2.0,-10.0,1650822959967991.0
9.0,4.0,5.0,14.0,4.0,-6.0,0.0,9.0,1650822959976203.0
3.0,1.0,1.0,-6.0,-14.0,-7.0,0.0,-3.0,1650822959976203.0
-2.0,-3.0,-15.0,-13.0,-4.0,0.0,6.0,12.0,1650822959990441.0
12.0,4.0,3.0,6.0,5.0,1.0,1.0,1.0,1650822959990441.0
-15.0,-8.0,-6.0,1.0,11.0,5.0,2.0,-10.0,1650822959991439.0
0.0,-18.0,-13.0,-14.0,-22.0,-15.0,-16.0,-8.0,1650822959991439.0
-10.0,-1.0,4.0,0.0,2.0,-3.0,7.0,9.0,1650822960012688.0
-1.0,-1.0,1.0,-2.0,1.0,2.0,-3.0,-1.0,1650822960012688.0
-1.0,14.0,33.0,19.0,3.0,0.0,-9.0,-5.0,1650822960020698.0
13.0,9.0,-15.0,2.0,6.0,5.0,16.0,10.0,1650822960020698.0
-4.0,-16.0,-30.0,-16.0,-4.0,0.0,-4.0,-5.0,1650822960027689.0
1.0,-5.0,-11.0,-16.0,-10.0,-6.0,3.0,0.0,1650822960027689.0
19.0,3.0,-8.0,-1.0,30.0,12.0,10.0,5.0,1650822960036207.0
-13.0,13.0,34.0,20.0,-41.0,-12.0,-10.0,-2.0,1650822960036207.0
11.0,6.0,19.0,10.0,13.0,4.0,9.0,1.0,1650822960050387.0
-5.0,0.0,0.0,2.0,6.0,5.0,-3.0,1.0,1650822960050387.0
25.0,-2.0,-12.0,-6.0,-4.0,-2.0,4.0,9.0,1650822960051320.0
6.0,0.0,1.0,-1.0,10.0,0.0,2.0,-1.0,1650822960051320.0
-21.0,-16.0,-21.0,-9.0,-11.0,-9.0,-7.0,0.0,1650822960073648.0
13.0,13.0,9.0,4.0,-7.0,-5.0,-5.0,-5.0,1650822960073648.0
-21.0,1.0,13.0,8.0,7.0,7.0,-6.0,-10.0,1650822960073648.0
20.0,-19.0,-2.0,7.0,8.0,4.0,2.0,0.0,1650822960073648.0
-22.0,-27.0,-75.0,-44.0,-23.0,-15.0,-5.0,0.0,1650822960087793.0
1.0,2.0,18.0,-18.0,-8.0,-5.0,-4.0,-14.0,1650822960087793.0
3.0,-2.0,-14.0,-4.0,6.0,-1.0,7.0,7.0,1650822960096148.0
-4.0,19.0,32.0,35.0,-13.0,-2.0,-9.0,-8.0,1650822960096148.0
12.0,19.0,36.0,3.0,16.0,10.0,8.0,7.0,1650822960110817.0
-4.0,-11.0,-27.0,-6.0,-2.0,-2.0,0.0,2.0,1650822960110817.0
-20.0,-7.0,-2.0,-9.0,-3.0,0.0,2.0,2.0,1650822960111774.0
21.0,7.0,-4.0,-1.0,5.0,1.0,-21.0,-1.0,1650822960111774.0
-2.0,3.0,20.0,2.0,-4.0,9.0,13.0,-17.0,1650822960133648.0
-20.0,3.0,-2.0,7.0,-1.0,-16.0,23.0,33.0,1650822960133648.0
-13.0,-10.0,-4.0,-3.0,-6.0,-2.0,-5.0,-22.0,1650822960133852.0
22.0,2.0,2.0,5.0,19.0,7.0,11.0,4.0,1650822960133852.0
2.0,26.0,4.0,17.0,5.0,9.0,-19.0,7.0,1650822960147997.0
-48.0,-42.0,-3.0,-11.0,-7.0,3.0,-8.0,-24.0,1650822960147997.0
-32.0,-19.0,3.0,0.0,-16.0,-9.0,-10.0,-13.0,1650822960155397.0
-1.0,9.0,-19.0,-19.0,-8.0,-4.0,4.0,-1.0,1650822960155397.0
25.0,13.0,7.0,-1.0,3.0,3.0,19.0,24.0,1650822960170941.0
0.0,-10.0,-9.0,-1.0,3.0,3.0,1.0,-4.0,1650822960170941.0
14.0,11.0,-11.0,2.0,-7.0,-4.0,-21.0,-9.0,1650822960171901.0
-3.0,7.0,19.0,1.0,8.0,2.0,3.0,2.0,1650822960171901.0
-5.0,5.0,11.0,17.0,3.0,9.0,18.0,9.0,1650822960192869.0
14.0,7.0,-3.0,-9.0,-16.0,-10.0,7.0,18.0,1650822960192869.0
50.0,11.0,11.0,-1.0,-5.0,-3.0,-9.0,-13.0,1650822960193880.0
-45.0,-43.0,-16.0,1.0,-9.0,8.0,-18.0,-4.0,1650822960193880.0
1.0,10.0,4.0,5.0,-2.0,-12.0,38.0,3.0,1650822960216904.0
17.0,28.0,15.0,12.0,-4.0,-26.0,-42.0,3.0,1650822960216904.0
-18.0,-19.0,-14.0,-15.0,3.0,-2.0,-13.0,-3.0,1650822960216904.0
15.0,30.0,17.0,5.0,5.0,-13.0,-10.0,-7.0,1650822960216904.0
-17.0,-50.0,-15.0,-18.0,2.0,-1.0,10.0,-6.0,1650822960230935.0
-23.0,-14.0,-22.0,-31.0,-13.0,4.0,-12.0,-10.0,1650822960230935.0
44.0,57.0,5.0,28.0,2.0,5.0,30.0,28.0,1650822960231906.0
-19.0,-54.0,-12.0,-2.0,8.0,15.0,9.0,3.0,1650822960231906.0
20.0,19.0,25.0,10.0,-14.0,-13.0,5.0,-4.0,1650822960253658.0
-50.0,-36.0,3.0,6.0,2.0,8.0,19.0,16.0,1650822960253658.0
-28.0,-42.0,-39.0,-36.0,-4.0,-5.0,-35.0,-15.0,1650822960253658.0
