EMG_s0,EMG_s1,EMG_s2,EMG_s3,EMG_s4,EMG_s5,EMG_s6,EMG_s7,timestamp
0.0,0.0,2.0,1.0,-1.0,5.0,1.0,-1.0,1650823520553049.0
-1.0,-1.0,0.0,-2.0,2.0,1.0,-1.0,0.0,1650823520553049.0
-1.0,1.0,0.0,3.0,4.0,9.0,-1.0,-1.0,1650823520553049.0
0.0,-1.0,-6.0,-4.0,-3.0,-13.0,-2.0,-2.0,1650823520553049.0
-2.0,-1.0,1.0,-4.0,-7.0,-6.0,-1.0,-2.0,1650823520557005.0
-1.0,-1.0,-5.0,1.0,2.0,3.0,1.0,-1.0,1650823520557005.0
-1.0,-2.0,-2.0,-1.0,15.0,6.0,1.0,-1.0,1650823520558975.0
-1.0,-1.0,8.0,2.0,-9.0,0.0,-1.0,0.0,1650823520558975.0
1.0,0.0,-4.0,-1.0,2.0,2.0,2.0,-1.0,1650823520562959.0
0.0,1.0,7.0,2.0,2.0,-2.0,0.0,-2.0,1650823520562959.0
0.0,-2.0,-3.0,-3.0,0.0,0.0,-1.0,0.0,1650823520574933.0
-3.0,-4.0,-7.0,-3.0,-5.0,-4.0,-2.0,-1.0,1650823520574933.0
0.0,1.0,8.0,3.0,6.0,2.0,0.0,1.0,1650823520577918.0
-1.0,-1.0,4.0,-2.0,-5.0,-1.0,-2.0,0.0,1650823520577918.0
0.0,0.0,-3.0,-1.0,-6.0,-5.0,0.0,0.0,1650823520596896.0
-1.0,0.0,-3.0,-4.0,1.0,2.0,-2.0,-2.0,1650823520596896.0
-1.0,-2.0,-7.0,-1.0,5.0,0.0,-1.0,-1.0,1650823520600858.0
0.0,-2.0,-1.0,0.0,-13.0,-4.0,1.0,-2.0,1650823520600858.0
2.0,3.0,0.0,1.0,-7.0,-5.0,-3.0,0.0,1650823520624699.0
-2.0,-1.0,-8.0,-11.0,-4.0,-1.0,1.0,-1.0,1650823520624699.0
-1.0,0.0,0.0,0.0,6.0,2.0,-1.0,-1.0,1650823520626694.0
0.0,-1.0,-2.0,2.0,4.0,0.0,-1.0,2.0,1650823520626694.0
-2.0,-3.0,-5.0,-6.0,-6.0,-5.0,1.0,-2.0,1650823520639639.0
1.0,0.0,5.0,5.0,4.0,6.0,2.0,0.0,1650823520639639.0
-1.0,-4.0,-2.0,3.0,2.0,-1.0,1.0,0.0,1650823520679771.0
-1.0,1.0,-3.0,-2.0,1.0,-1.0,1.0,0.0,1650823520679771.0
0.0,-1.0,-3.0,-2.0,-1.0,10.0,0.0,-1.0,1650823520680764.0
-1.0,-1.0,0.0,-5.0,-10.0,-17.0,-3.0,-2.0,1650823520680764.0
-1.0,-1.0,-1.0,-3.0,-9.0,-2.0,-4.0,-1.0,1650823520683756.0
-1.0,-1.0,0.0,3.0,5.0,3.0,1.0,-2.0,1650823520683756.0
-1.0,2.0,3.0,5.0,9.0,5.0,2.0,0.0,1650823520684754.0
1.0,-2.0,-3.0,3.0,2.0,1.0,1.0,-1.0,1650823520684754.0
0.0,0.0,-3.0,-4.0,0.0,0.0,-2.0,0.0,1650823520691734.0
0.0,-1.0,0.0,-4.0,-9.0,-5.0,-3.0,-2.0,1650823520691734.0
0.0,-1.0,-2.0,-4.0,-5.0,-5.0,-1.0,0.0,1650823520697718.0
0.0,-1.0,0.0,0.0,4.0,6.0,1.0,0.0,1650823520697718.0
-1.0,0.0,0.0,-1.0,-5.0,-5.0,-1.0,-1.0,1650823520714673.0
-1.0,1.0,2.0,0.0,1.0,3.0,0.0,1.0,1650823520714673.0
-1.0,-1.0,-5.0,0.0,-1.0,-3.0,0.0,0.0,1650823520720656.0
-1.0,1.0,5.0,4.0,-4.0,1.0,2.0,-1.0,1650823520720656.0
2.0,1.0,-5.0,2.0,10.0,6.0,2.0,-1.0,1650823520729633.0
0.0,-1.0,1.0,-1.0,3.0,-6.0,-1.0,1.0,1650823520729633.0
-1.0,-4.0,-3.0,-5.0,-8.0,-10.0,-4.0,-1.0,1650823520751573.0
-2.0,-1.0,2.0,-3.0,0.0,3.0,0.0,1.0,1650823520751573.0
-1.0,2.0,4.0,4.0,3.0,1.0,0.0,0.0,1650823520753569.0
0.0,1.0,1.0,5.0,6.0,3.0,-1.0,0.0,1650823520753569.0
0.0,-1.0,-2.0,1.0,-6.0,-3.0,-1.0,-1.0,1650823520774533.0
-1.0,-1.0,0.0,-5.0,-5.0,-6.0,-2.0,-2.0,1650823520774533.0
0.0,-1.0,2.0,1.0,-4.0,3.0,2.0,-1.0,1650823520775521.0
1.0,0.0,0.0,2.0,7.0,2.0,0.0,1.0,1650823520775521.0
0.0,-1.0,2.0,-3.0,1.0,-3.0,0.0,-2.0,1650823520789542.0
-1.0,0.0,0.0,3.0,1.0,-1.0,-1.0,-1.0,1650823520789542.0
0.0,1.0,-3.0,0.0,3.0,-2.0,-1.0,-1.0,1650823520790471.0
-1.0,-3.0,3.0,-3.0,-9.0,-5.0,-3.0,-4.0,1650823520790471.0
0.0,-1.0,-4.0,-2.0,-1.0,-1.0,-1.0,0.0,1650823520811695.0
-1.0,0.0,-4.0,-1.0,0.0,1.0,-2.0,1.0,1650823520811695.0
-1.0,-1.0,-1.0,0.0,6.0,1.0,0.0,0.0,1650823520813670.0
-2.0,-2.0,0.0,-1.0,-8.0,-2.0,-1.0,0.0,1650823520813670.0
0.0,1.0,0.0,-1.0,-4.0,0.0,-1.0,0.0,1650823520834789.0
1.0,0.0,0.0,-1.0,11.0,2.0,-2.0,0.0,1650823520834789.0
-1.0,-1.0,-1.0,0.0,-9.0,3.0,0.0,-1.0,1650823520836746.0
2.0,2.0,-2.0,0.0,3.0,-9.0,-1.0,-1.0,1650823520836746.0
-2.0,-4.0,-3.0,-2.0,-4.0,-6.0,-3.0,0.0,1650823520848723.0
-1.0,1.0,-1.0,4.0,4.0,3.0,1.0,0.0,1650823520848723.0
0.0,-2.0,3.0,-1.0,-3.0,-4.0,-2.0,-1.0,1650823520855770.0
-1.0,-2.0,-6.0,-1.0,1.0,7.0,1.0,-1.0,1650823520855770.0
-1.0,-1.0,-5.0,-3.0,-6.0,-3.0,-2.0,-1.0,1650823520872827.0
-2.0,0.0,9.0,0.0,-11.0,-9.0,-1.0,-1.0,1650823520872827.0
0.0,1.0,3.0,-1.0,3.0,2.0,0.0,-2.0,1650823520873797.0
-2.0,0.0,8.0,-1.0,-3.0,2.0,0.0,-1.0,1650823520873797.0
1.0,3.0,-1.0,5.0,11.0,6.0,3.0,-1.0,1650823520894706.0
1.0,0.0,-3.0,3.0,4.0,2.0,1.0,0.0,1650823520894706.0
-3.0,-2.0,1.0,0.0,-1.0,0.0,0.0,-2.0,1650823520896070.0
-1.0,-2.0,-8.0,-10.0,-9.0,-6.0,-3.0,-2.0,1650823520896070.0
-1.0,1.0,7.0,-1.0,1.0,-2.0,-3.0,-2.0,1650823520909110.0
0.0,-2.0,-4.0,-2.0,-6.0,3.0,1.0,-1.0,1650823520909110.0
0.0,0.0,-7.0,1.0,5.0,1.0,2.0,3.0,1650823520915097.0
2.0,1.0,-1.0,4.0,1.0,0.0,-1.0,0.0,1650823520915097.0
-2.0,-5.0,-7.0,-9.0,-6.0,-3.0,-1.0,0.0,1650823520932316.0
-2.0,-3.0,-3.0,-5.0,0.0,-3.0,-3.0,-1.0,1650823520932316.0
0.0,-1.0,-2.0,0.0,-4.0,-1.0,0.0,0.0,1650823520933317.0
-1.0,1.0,6.0,6.0,8.0,11.0,3.0,-1.0,1650823520933317.0
0.0,2.0,5.0,5.0,16.0,19.0,2.0,1.0,1650823520954224.0
-1.0,-1.0,-3.0,-5.0,-17.0,-21.0,-2.0,-1.0,1650823520954224.0
0.0,-1.0,2.0,-4.0,-4.0,-5.0,-2.0,-1.0,1650823520956221.0
-1.0,0.0,0.0,-2.0,-2.0,-3.0,1.0,0.0,1650823520956221.0
0.0,-2.0,5.0,5.0,7.0,9.0,3.0,-1.0,1650823520969193.0
0.0,0.0,-2.0,-1.0,6.0,2.0,-1.0,-1.0,1650823520969193.0
-1.0,1.0,0.0,-2.0,-4.0,-3.0,0.0,1.0,1650823520975236.0
0.0,-1.0,-2.0,1.0,-4.0,-1.0,0.0,-1.0,1650823520975236.0
-4.0,0.0,-1.0,0.0,0.0,-1.0,-1.0,-2.0,1650823520993331.0
-2.0,-1.0,-1.0,0.0,0.0,2.0,-1.0,0.0,1650823520993331.0
2.0,2.0,3.0,4.0,-5.0,-4.0,0.0,-1.0,1650823520994331.0
1.0,-1.0,1.0,-3.0,2.0,2.0,-2.0,-1.0,1650823520994331.0
-1.0,0.0,-4.0,-1.0,-8.0,-6.0,-1.0,1.0,1650823521014492.0
-2.0,-1.0,-1.0,0.0,13.0,5.0,-1.0,-3.0,1650823521014492.0
0.0,1.0,2.0,-2.0,-5.0,-1.0,-2.0,0.0,1650823521015458.0
-4.0,-2.0,2.0,-3.0,-3.0,-1.0,0.0,-1.0,1650823521015458.0
0.0,1.0,4.0,3.0,-2.0,-4.0,1.0,-2.0,1650823521036556.0
1.0,1.0,-5.0,-1.0,4.0,4.0,1.0,2.0,1650823521036556.0
0.0,-5.0,-8.0,0.0,8.0,6.0,-2.0,0.0,1650823521038491.0
1.0,-2.0,-4.0,-1.0,10.0,-3.0,-2.0,-2.0,1650823521038491.0
-1.0,2.0,3.0,1.0,-18.0,-10.0,0.0,0.0,1650823521051522.0
0.0,-1.0,0.0,-1.0,1.0,3.0,1.0,0.0,1650823521051522.0
0.0,0.0,0.0,0.0,-2.0,-1.0,-1.0,-1.0,1650823521053451.0
0.0,0.0,-1.0,1.0,4.0,0.0,-1.0,0.0,1650823521053451.0
-3.0,-1.0,-1.0,0.0,2.0,-2.0,0.0,-1.0,1650823521074171.0
2.0,1.0,4.0,4.0,-3.0,2.0,0.0,0.0,1650823521074171.0
-1.0,-3.0,0.0,-6.0,-2.0,2.0,-3.0,-2.0,1650823521076100.0
0.0,-1.0,-5.0,-4.0,-4.0,-10.0,-1.0,-3.0,1650823521076100.0
2.0,1.0,2.0,-1.0,-4.0,-8.0,0.0,-1.0,1650823521089066.0
-1.0,-1.0,-2.0,-2.0,-11.0,0.0,-1.0,0.0,1650823521089066.0
-1.0,1.0,1.0,2.0,5.0,-3.0,1.0,0.0,1650823521095063.0
0.0,-2.0,-1.0,0.0,1.0,6.0,-1.0,0.0,1650823521095063.0
-2.0,-3.0,-6.0,0.0,4.0,4.0,-1.0,-1.0,1650823521112155.0
0.0,0.0,-6.0,-8.0,-6.0,-3.0,-1.0,0.0,1650823521112155.0
-2.0,-1.0,-6.0,-1.0,0.0,3.0,0.0,-1.0,1650823521114085.0
-1.0,-1.0,1.0,2.0,-4.0,0.0,2.0,0.0,1650823521114085.0
1.0,2.0,5.0,4.0,5.0,0.0,0.0,0.0,1650823521133925.0
-3.0,-2.0,2.0,2.0,6.0,6.0,0.0,0.0,1650823521133925.0
1.0,-1.0,2.0,1.0,9.0,-7.0,-3.0,-1.0,1650823521135920.0
-3.0,-2.0,-4.0,-7.0,-23.0,-6.0,0.0,-2.0,1650823521135920.0
0.0,-2.0,-1.0,-3.0,4.0,-1.0,-2.0,1.0,1650823521148997.0
1.0,2.0,3.0,6.0,4.0,3.0,2.0,0.0,1650823521148997.0
0.0,-2.0,-4.0,-1.0,-2.0,-1.0,1.0,2.0,1650823521155957.0
-1.0,1.0,2.0,3.0,2.0,3.0,1.0,-1.0,1650823521155957.0
-2.0,-1.0,-2.0,-3.0,-2.0,2.0,-1.0,-2.0,1650823521172342.0
-2.0,-2.0,-7.0,-4.0,-3.0,-3.0,-1.0,-3.0,1650823521172342.0
-2.0,1.0,1.0,-2.0,0.0,-1.0,-1.0,-1.0,1650823521173342.0
-1.0,-4.0,-3.0,-1.0,-7.0,4.0,-2.0,-1.0,1650823521173342.0
0.0,2.0,3.0,5.0,7.0,2.0,4.0,-1.0,1650823521194699.0
1.0,2.0,4.0,9.0,4.0,-2.0,-1.0,3.0,1650823521194699.0
-2.0,-4.0,-14.0,-11.0,-16.0,-8.0,-3.0,-2.0,1650823521195681.0
-1.0,-2.0,-3.0,-6.0,-6.0,-1.0,-4.0,-1.0,1650823521195681.0
1.0,-1.0,-1.0,-4.0,-1.0,-8.0,-3.0,0.0,1650823521207652.0
0.0,-1.0,-2.0,2.0,-1.0,-1.0,-1.0,-1.0,1650823521207652.0
1.0,4.0,13.0,10.0,8.0,5.0,4.0,1.0,1650823521216637.0
0.0,-3.0,-14.0,-2.0,0.0,-1.0,0.0,1.0,1650823521216637.0
-1.0,-2.0,1.0,0.0,-7.0,4.0,0.0,1.0,1650823521231650.0
0.0,1.0,-4.0,-5.0,-1.0,-5.0,0.0,-1.0,1650823521231650.0
-1.0,-2.0,7.0,7.0,-4.0,-2.0,-1.0,-1.0,1650823521233583.0
-1.0,0.0,-2.0,-2.0,4.0,-1.0,1.0,-1.0,1650823521233583.0
-2.0,-2.0,-1.0,-1.0,-2.0,-3.0,-1.0,-2.0,1650823521254799.0
-1.0,-3.0,0.0,-2.0,-2.0,2.0,-1.0,-1.0,1650823521254799.0
0.0,0.0,-1.0,-4.0,5.0,1.0,0.0,5.0,1650823521255799.0
1.0,0.0,-2.0,3.0,9.0,2.0,-2.0,-14.0,1650823521255799.0
1.0,1.0,2.0,2.0,-4.0,1.0,0.0,-2.0,1650823521268749.0
-1.0,2.0,6.0,3.0,7.0,1.0,1.0,-2.0,1650823521268749.0
0.0,-2.0,-6.0,-3.0,-10.0,0.0,0.0,-3.0,1650823521276718.0
-1.0,-1.0,3.0,3.0,1.0,-4.0,0.0,3.0,1650823521276718.0
0.0,1.0,12.0,1.0,-6.0,-4.0,-1.0,0.0,1650823521291743.0
0.0,-1.0,-2.0,-3.0,14.0,4.0,1.0,-1.0,1650823521291743.0
-3.0,-5.0,-7.0,-2.0,-5.0,-1.0,1.0,0.0,1650823521293673.0
0.0,1.0,2.0,-2.0,-2.0,-2.0,1.0,2.0,1650823521293673.0
1.0,-2.0,-2.0,-2.0,0.0,-4.0,-4.0,-1.0,1650823521314684.0
-2.0,0.0,6.0,0.0,-1.0,11.0,-2.0,0.0,1650823521314684.0
-1.0,3.0,0.0,5.0,1.0,-8.0,0.0,-3.0,1650823521315623.0
-1.0,0.0,5.0,-2.0,-4.0,1.0,2.0,4.0,1650823521315623.0
0.0,-1.0,-2.0,3.0,3.0,3.0,0.0,-3.0,1650823521327581.0
1.0,1.0,-4.0,0.0,-3.0,0.0,1.0,-1.0,1650823521327581.0
2.0,2.0,2.0,2.0,2.0,3.0,-3.0,0.0,1650823521336624.0
-4.0,-6.0,-35.0,-26.0,-12.0,0.0,-2.0,-3.0,1650823521336624.0
1.0,0.0,2.0,6.0,7.0,-2.0,3.0,2.0,1650823521351545.0
0.0,-3.0,-8.0,-5.0,2.0,-6.0,-2.0,-2.0,1650823521351545.0
-1.0,-2.0,2.0,0.0,-12.0,-2.0,-2.0,-1.0,1650823521353513.0
3.0,6.0,21.0,14.0,4.0,-6.0,3.0,5.0,1650823521353513.0
-2.0,-3.0,-10.0,-6.0,3.0,5.0,-3.0,0.0,1650823521374732.0
-3.0,-6.0,-10.0,-6.0,-18.0,-4.0,-2.0,8.0,1650823521374732.0
-2.0,-2.0,-5.0,-3.0,12.0,4.0,-2.0,-14.0,1650823521375686.0
4.0,6.0,9.0,5.0,7.0,3.0,-1.0,2.0,1650823521375686.0
-3.0,-3.0,3.0,6.0,-7.0,-6.0,-2.0,-4.0,1650823521387720.0
0.0,2.0,-1.0,5.0,-1.0,-4.0,2.0,2.0,1650823521387720.0
-2.0,-1.0,-1.0,-6.0,-2.0,1.0,1.0,4.0,1650823521396630.0
-2.0,-2.0,4.0,4.0,-2.0,-1.0,-3.0,-1.0,1650823521396630.0
-2.0,-8.0,-24.0,-13.0,-3.0,-1.0,-3.0,-3.0,1650823521411589.0
-1.0,0.0,12.0,3.0,-4.0,-2.0,-1.0,-5.0,1650823521411589.0
1.0,0.0,0.0,2.0,0.0,-1.0,-1.0,1.0,1650823521413584.0
0.0,3.0,2.0,9.0,13.0,8.0,2.0,1.0,1650823521413584.0
-1.0,3.0,13.0,4.0,-1.0,2.0,1.0,1.0,1650823521434083.0
0.0,-2.0,-2.0,-6.0,-9.0,-1.0,-3.0,-2.0,1650823521434083.0
0.0,-3.0,-5.0,-5.0,-5.0,-8.0,-3.0,-2.0,1650823521436091.0
-2.0,4.0,17.0,8.0,-1.0,-1.0,1.0,1.0,1650823521436091.0
-1.0,-4.0,-20.0,-3.0,-1.0,-3.0,-1.0,1.0,1650823521448111.0
0.0,-1.0,-6.0,-6.0,6.0,2.0,1.0,0.0,1650823521448111.0
-2.0,-1.0,3.0,-4.0,0.0,2.0,-1.0,0.0,1650823521456756.0
-2.0,0.0,4.0,1.0,-9.0,8.0,1.0,-3.0,1650823521456756.0
2.0,4.0,3.0,3.0,-3.0,-5.0,5.0,10.0,1650823521471866.0
1.0,1.0,5.0,3.0,4.0,-1.0,-5.0,-13.0,1650823521471866.0
1.0,0.0,2.0,4.0,4.0,-2.0,-1.0,0.0,1650823521473795.0
-1.0,-8.0,-9.0,-11.0,-1.0,-4.0,-3.0,-1.0,1650823521473795.0
1.0,2.0,2.0,-3.0,3.0,7.0,2.0,1.0,1650823521494759.0
-1.0,2.0,7.0,6.0,-1.0,1.0,2.0,3.0,1650823521494759.0
-3.0,-1.0,7.0,3.0,0.0,-3.0,-1.0,-2.0,1650823521495737.0
-3.0,-4.0,-19.0,-10.0,-7.0,-6.0,-3.0,-3.0,1650823521495737.0
1.0,-1.0,0.0,-2.0,8.0,8.0,1.0,-3.0,1650823521507703.0
1.0,2.0,12.0,3.0,-10.0,-12.0,-3.0,3.0,1650823521507703.0
-3.0,-4.0,-7.0,-5.0,-1.0,8.0,1.0,-2.0,1650823521516715.0
0.0,-1.0,-4.0,1.0,3.0,-4.0,-1.0,1.0,1650823521516715.0
-2.0,0.0,-5.0,-2.0,-4.0,2.0,0.0,-2.0,1650823521531763.0
0.0,-2.0,0.0,2.0,5.0,6.0,0.0,-1.0,1650823521531763.0
2.0,4.0,10.0,6.0,1.0,2.0,0.0,3.0,1650823521533758.0
0.0,-4.0,-8.0,4.0,5.0,-8.0,-2.0,-1.0,1650823521533758.0
-1.0,-8.0,-12.0,-8.0,-2.0,-3.0,-4.0,0.0,1650823521554748.0
-3.0,8.0,7.0,-4.0,-6.0,-9.0,-3.0,-3.0,1650823521554748.0
-1.0,-2.0,-2.0,-2.0,-3.0,-2.0,0.0,0.0,1650823521555761.0
2.0,3.0,6.0,4.0,6.0,4.0,0.0,1.0,1650823521555761.0
2.0,0.0,2.0,1.0,-5.0,0.0,-1.0,-2.0,1650823521567716.0
0.0,-5.0,-8.0,-3.0,-4.0,-2.0,0.0,2.0,1650823521567716.0
1.0,2.0,6.0,5.0,8.0,4.0,-1.0,0.0,1650823521582734.0
-2.0,-3.0,-22.0,-14.0,-10.0,0.0,0.0,-1.0,1650823521582734.0
-2.0,2.0,8.0,2.0,1.0,-2.0,0.0,1.0,1650823521599766.0
-1.0,-6.0,-4.0,2.0,0.0,-1.0,0.0,4.0,1650823521599766.0
1.0,2.0,-13.0,-1.0,0.0,5.0,-1.0,0.0,1650823521600761.0
-1.0,-7.0,0.0,0.0,-3.0,-7.0,1.0,0.0,1650823521600761.0
-1.0,-2.0,-18.0,-14.0,0.0,-4.0,-3.0,-4.0,1650823521614723.0
-3.0,-1.0,8.0,-3.0,-1.0,-2.0,0.0,-1.0,1650823521614723.0
-1.0,0.0,-1.0,10.0,-6.0,-1.0,3.0,0.0,1650823521615722.0
1.0,3.0,26.0,13.0,2.0,5.0,0.0,-1.0,1650823521615722.0
1.0,1.0,-5.0,-1.0,8.0,2.0,2.0,4.0,1650823521627688.0
-3.0,-4.0,-9.0,-9.0,-1.0,-2.0,-1.0,-4.0,1650823521627688.0
-1.0,1.0,2.0,-5.0,-3.0,-1.0,-4.0,-1.0,1650823521636664.0
1.0,5.0,4.0,1.0,0.0,-1.0,-1.0,0.0,1650823521636664.0
1.0,4.0,12.0,17.0,-7.0,-5.0,-3.0,-1.0,1650823521659634.0
0.0,-7.0,-9.0,2.0,19.0,17.0,5.0,-3.0,1650823521659634.0
-4.0,-8.0,-27.0,-18.0,-1.0,4.0,1.0,2.0,1650823521660614.0
-1.0,4.0,10.0,7.0,4.0,-12.0,-5.0,-8.0,1650823521660614.0
1.0,2.0,-10.0,-3.0,-13.0,-7.0,-4.0,-3.0,1650823521674089.0
-6.0,-11.0,14.0,-6.0,-4.0,3.0,-2.0,-3.0,1650823521674089.0
3.0,-1.0,1.0,1.0,8.0,6.0,2.0,2.0,1650823521680102.0
0.0,-4.0,-22.0,-10.0,0.0,2.0,3.0,11.0,1650823521680102.0
1.0,6.0,16.0,9.0,0.0,2.0,-5.0,-10.0,1650823521704695.0
2.0,7.0,-1.0,9.0,1.0,3.0,4.0,-9.0,1650823521704695.0
-3.0,-8.0,-17.0,-12.0,-4.0,-5.0,-9.0,-2.0,1650823521705681.0
1.0,5.0,10.0,6.0,0.0,1.0,0.0,4.0,1650823521705681.0
2.0,5.0,16.0,2.0,1.0,-1.0,1.0,3.0,1650823521719712.0
0.0,-2.0,-32.0,-3.0,-5.0,-1.0,-1.0,3.0,1650823521719712.0
-4.0,-5.0,5.0,-3.0,1.0,0.0,2.0,-7.0,1650823521720653.0
0.0,2.0,9.0,10.0,4.0,5.0,-1.0,-3.0,1650823521720653.0
0.0,7.0,5.0,8.0,0.0,-4.0,-4.0,-5.0,1650823521732639.0
-3.0,-7.0,9.0,-10.0,-8.0,-6.0,-3.0,-12.0,1650823521732639.0
0.0,-4.0,0.0,-19.0,-8.0,-9.0,11.0,22.0,1650823521741661.0
0.0,-6.0,-12.0,-3.0,-1.0,0.0,-4.0,-5.0,1650823521741661.0
0.0,0.0,12.0,1.0,3.0,3.0,3.0,7.0,1650823521756548.0
-4.0,6.0,-4.0,-4.0,-8.0,-7.0,-9.0,-13.0,1650823521756548.0
6.0,15.0,-16.0,10.0,6.0,0.0,0.0,-6.0,1650823521758542.0
-7.0,-15.0,7.0,-15.0,-12.0,-4.0,0.0,7.0,1650823521758542.0
-2.0,-5.0,3.0,0.0,2.0,3.0,2.0,2.0,1650823521779659.0
3.0,-1.0,0.0,6.0,3.0,0.0,-3.0,2.0,1650823521779659.0
0.0,7.0,15.0,2.0,-3.0,-5.0,-3.0,1.0,1650823521780620.0
-4.0,2.0,-8.0,5.0,4.0,2.0,-3.0,-17.0,1650823521780620.0
7.0,8.0,8.0,6.0,9.0,10.0,12.0,2.0,1650823521792561.0
-1.0,-9.0,-12.0,-2.0,7.0,0.0,3.0,9.0,1650823521792561.0
-3.0,-9.0,-28.0,-12.0,-5.0,-4.0,0.0,-2.0,1650823521801536.0
1.0,4.0,12.0,1.0,-5.0,-4.0,-12.0,-14.0,1650823521801536.0
-4.0,-19.0,-36.0,-18.0,-4.0,-7.0,-7.0,-7.0,1650823521824691.0
6.0,22.0,31.0,7.0,-5.0,-1.0,5.0,8.0,1650823521824691.0
0.0,5.0,-2.0,7.0,4.0,5.0,1.0,-2.0,1650823521825679.0
-1.0,1.0,-9.0,12.0,0.0,1.0,-1.0,4.0,1650823521825679.0
-13.0,-21.0,8.0,-16.0,13.0,3.0,-7.0,-19.0,1650823521839710.0
7.0,0.0,-15.0,0.0,4.0,6.0,1.0,-7.0,1650823521839710.0
-3.0,46.0,46.0,14.0,-5.0,-7.0,12.0,33.0,1650823521840642.0
13.0,3.0,-9.0,7.0,12.0,10.0,11.0,35.0,1650823521840642.0
-23.0,-54.0,-36.0,-40.0,-23.0,-17.0,-12.0,-15.0,1650823521852610.0
-1.0,2.0,13.0,18.0,0.0,0.0,0.0,-2.0,1650823521852610.0
-5.0,-14.0,0.0,-4.0,-3.0,-2.0,-29.0,-69.0,1650823521861585.0
4.0,59.0,42.0,12.0,1.0,10.0,32.0,43.0,1650823521861585.0
2.0,-4.0,0.0,19.0,8.0,3.0,3.0,10.0,1650823521876612.0
-5.0,-14.0,-51.0,-25.0,-5.0,-3.0,-2.0,0.0,1650823521876612.0
-1.0,-12.0,-6.0,-5.0,10.0,1.0,-6.0,-9.0,1650823521878541.0
-11.0,-14.0,3.0,-6.0,-19.0,-4.0,-15.0,-26.0,1650823521878541.0
13.0,29.0,20.0,30.0,12.0,6.0,6.0,6.0,1650823521899511.0
-4.0,11.0,19.0,-7.0,-7.0,-6.0,7.0,20.0,1650823521899511.0
-10.0,-43.0,-22.0,-9.0,-8.0,-8.0,-9.0,-3.0,1650823521900482.0
0.0,-30.0,-25.0,-22.0,9.0,0.0,-5.0,-5.0,1650823521900482.0
-4.0,49.0,26.0,14.0,8.0,11.0,24.0,20.0,1650823521912478.0
8.0,11.0,-5.0,15.0,10.0,6.0,-8.0,-14.0,1650823521912478.0
8.0,42.0,40.0,24.0,2.0,0.0,3.0,12.0,1650823521921713.0
-11.0,-33.0,-38.0,-48.0,-18.0,-11.0,-7.0,-4.0,1650823521921713.0
-7.0,-82.0,-47.0,-15.0,-12.0,-4.0,-10.0,-19.0,1650823521936685.0
8.0,17.0,16.0,10.0,8.0,2.0,12.0,37.0,1650823521936685.0
0.0,-61.0,-17.0,-7.0,-7.0,0.0,-1.0,-42.0,1650823521938668.0
7.0,39.0,23.0,12.0,5.0,0.0,-10.0,-19.0,1650823521938668.0
18.0,-2.0,3.0,6.0,2.0,1.0,-11.0,1.0,1650823521959809.0
1.0,-30.0,11.0,4.0,-4.0,1.0,29.0,34.0,1650823521959809.0
-7.0,-4.0,-5.0,-2.0,-8.0,-8.0,-17.0,-20.0,1650823521960735.0
-6.0,6.0,14.0,12.0,8.0,2.0,8.0,33.0,1650823521960735.0
2.0,-2.0,-25.0,0.0,4.0,7.0,-11.0,-10.0,1650823521981744.0
-3.0,-2.0,11.0,-17.0,-10.0,-13.0,-16.0,-13.0,1650823521981744.0
6.0,16.0,24.0,11.0,0.0,9.0,16.0,25.0,1650823521983674.0
0.0,-25.0,5.0,-13.0,-2.0,-3.0,0.0,-8.0,1650823521983674.0
-5.0,16.0,-41.0,0.0,-9.0,-5.0,-3.0,-7.0,1650823521997663.0
1.0,26.0,42.0,16.0,3.0,8.0,9.0,5.0,1650823521997663.0
2.0,0.0,-20.0,-12.0,11.0,2.0,-8.0,-2.0,1650823521998634.0
13.0,32.0,36.0,17.0,0.0,1.0,19.0,19.0,1650823521998634.0
4.0,23.0,17.0,1.0,-9.0,-3.0,0.0,14.0,1650823522019609.0
-13.0,9.0,11.0,1.0,-1.0,1.0,7.0,10.0,1650823522019609.0
5.0,16.0,32.0,10.0,-8.0,-9.0,0.0,16.0,1650823522020575.0
9.0,9.0,-39.0,-8.0,5.0,5.0,1.0,-3.0,1650823522020575.0
-14.0,-11.0,-13.0,-17.0,-4.0,-5.0,-8.0,-27.0,1650823522033967.0
1.0,22.0,4.0,-1.0,-10.0,-6.0,-10.0,-3.0,1650823522033967.0
4.0,2.0,7.0,18.0,9.0,8.0,7.0,3.0,1650823522041948.0
0.0,-5.0,-11.0,-7.0,-3.0,-2.0,1.0,20.0,1650823522041948.0
4.0,22.0,19.0,-4.0,1.0,4.0,23.0,-2.0,1650823522055977.0
5.0,-20.0,-23.0,-17.0,-8.0,-11.0,-44.0,-68.0,1650823522055977.0
10.0,5.0,22.0,19.0,4.0,6.0,29.0,46.0,1650823522062920.0
-4.0,-22.0,-21.0,1.0,7.0,-2.0,-2.0,-2.0,1650823522062920.0
-4.0,-9.0,-27.0,-28.0,-8.0,-4.0,-8.0,0.0,1650823522080909.0
8.0,-12.0,8.0,16.0,6.0,6.0,-2.0,12.0,1650823522080909.0
5.0,22.0,4.0,-5.0,10.0,10.0,10.0,9.0,1650823522081908.0
-2.0,5.0,-20.0,18.0,2.0,-2.0,12.0,6.0,1650823522081908.0
5.0,14.0,74.0,10.0,3.0,-9.0,3.0,17.0,1650823522092906.0
-23.0,-41.0,-55.0,-60.0,-31.0,-15.0,-21.0,-29.0,1650823522092906.0
-3.0,1.0,7.0,-2.0,-8.0,-1.0,-9.0,-18.0,1650823522101860.0
2.0,4.0,17.0,15.0,9.0,7.0,5.0,19.0,1650823522101860.0
18.0,29.0,30.0,37.0,11.0,5.0,-7.0,-11.0,1650823522116845.0
-14.0,2.0,-7.0,7.0,5.0,0.0,6.0,-1.0,1650823522116845.0
-3.0,-47.0,-35.0,-24.0,-10.0,-6.0,1.0,3.0,1650823522118810.0
-8.0,-9.0,14.0,-8.0,-10.0,-8.0,-25.0,-44.0,1650823522118810.0
-5.0,-1.0,-6.0,-13.0,-7.0,-10.0,-7.0,-22.0,1650823522139807.0
7.0,8.0,-3.0,13.0,5.0,4.0,9.0,1.0,1650823522139807.0
-11.0,-3.0,-12.0,-6.0,-5.0,-4.0,-6.0,11.0,1650823522140752.0
3.0,10.0,5.0,3.0,6.0,6.0,7.0,-26.0,1650823522140752.0
1.0,-7.0,0.0,19.0,-13.0,-4.0,3.0,52.0,1650823522161830.0
-3.0,8.0,7.0,-24.0,16.0,-2.0,-4.0,4.0,1650823522161830.0
-1.0,-8.0,-10.0,11.0,3.0,3.0,-6.0,-11.0,1650823522163797.0
-13.0,-24.0,16.0,-23.0,-13.0,-12.0,-18.0,-27.0,1650823522163797.0
9.0,11.0,16.0,28.0,-4.0,5.0,9.0,-1.0,1650823522176876.0
8.0,-57.0,-26.0,23.0,27.0,13.0,7.0,24.0,1650823522176876.0
-1.0,24.0,-35.0,-6.0,-3.0,-4.0,8.0,20.0,1650823522178871.0
-10.0,-15.0,-34.0,-59.0,-16.0,-9.0,-9.0,-14.0,1650823522178871.0
-4.0,22.0,31.0,-1.0,-2.0,0.0,-1.0,-12.0,1650823522199815.0
8.0,6.0,7.0,18.0,4.0,6.0,26.0,58.0,1650823522199815.0
6.0,23.0,7.0,7.0,10.0,8.0,1.0,-43.0,1650823522200819.0
10.0,7.0,20.0,18.0,-2.0,2.0,2.0,0.0,1650823522200819.0
5.0,10.0,1.0,0.0,15.0,9.0,4.0,12.0,1650823522221823.0
2.0,-14.0,-20.0,-3.0,-6.0,4.0,1.0,-10.0,1650823522221823.0
3.0,5.0,18.0,11.0,9.0,4.0,18.0,26.0,1650823522223751.0
-18.0,-1.0,-18.0,-5.0,-2.0,-4.0,-1.0,-20.0,1650823522223751.0
-5.0,-4.0,4.0,-8.0,0.0,-3.0,-8.0,8.0,1650823522236834.0
-3.0,19.0,28.0,33.0,-6.0,-7.0,-6.0,-14.0,1650823522236834.0
-12.0,-41.0,-28.0,-52.0,-3.0,1.0,7.0,2.0,1650823522238799.0
4.0,-7.0,-36.0,-3.0,10.0,7.0,-7.0,-17.0,1650823522238799.0
-6.0,-20.0,2.0,-4.0,-7.0,-17.0,-10.0,-2.0,1650823522259801.0
-1.0,-3.0,-2.0,12.0,-12.0,2.0,2.0,-11.0,1650823522259801.0
-11.0,30.0,-5.0,-26.0,-17.0,-15.0,-5.0,-9.0,1650823522260732.0
16.0,44.0,28.0,33.0,27.0,13.0,-12.0,-26.0,1650823522260732.0
-7.0,-34.0,26.0,27.0,4.0,12.0,9.0,14.0,1650823522281704.0
-19.0,-27.0,-74.0,-68.0,-20.0,-14.0,-8.0,-20.0,1650823522281704.0
4.0,29.0,24.0,26.0,4.0,3.0,6.0,55.0,1650823522283691.0
20.0,-10.0,18.0,-5.0,-13.0,-11.0,3.0,8.0,1650823522283691.0
-2.0,20.0,1.0,0.0,0.0,-1.0,0.0,-11.0,1650823522296643.0
9.0,27.0,41.0,25.0,8.0,-2.0,-10.0,-11.0,1650823522296643.0
-10.0,-26.0,-23.0,-19.0,-6.0,1.0,-10.0,-2.0,1650823522298631.0
-18.0,-27.0,-12.0,-4.0,-8.0,-6.0,4.0,3.0,1650823522298631.0
15.0,15.0,-4.0,-1.0,1.0,-1.0,4.0,20.0,1650823522319575.0
6.0,17.0,43.0,28.0,11.0,15.0,33.0,6.0,1650823522319575.0
-16.0,-44.0,-70.0,-71.0,-17.0,-16.0,-27.0,-29.0,1650823522320593.0
14.0,24.0,62.0,45.0,-1.0,-2.0,8.0,40.0,1650823522320593.0
-10.0,-20.0,-46.0,-45.0,-3.0,2.0,9.0,6.0,1650823522341576.0
-1.0,16.0,43.0,6.0,-5.0,1.0,-19.0,-4.0,1650823522341576.0
5.0,15.0,48.0,36.0,4.0,-2.0,2.0,-11.0,1650823522343534.0
-8.0,-13.0,-61.0,-12.0,8.0,3.0,5.0,7.0,1650823522343534.0
-5.0,-20.0,-32.0,-2.0,3.0,3.0,0.0,-10.0,1650823522356536.0
-2.0,34.0,59.0,-10.0,-7.0,-7.0,-6.0,-5.0,1650823522356536.0
-3.0,-19.0,-28.0,7.0,-2.0,-3.0,0.0,20.0,1650823522363496.0
-5.0,-16.0,1.0,-19.0,-18.0,-3.0,-5.0,-15.0,1650823522363496.0
6.0,34.0,11.0,28.0,14.0,2.0,-2.0,-16.0,1650823522379664.0
-7.0,-20.0,-44.0,-22.0,-8.0,-9.0,-14.0,-44.0,1650823522379664.0
-7.0,13.0,23.0,4.0,-2.0,-7.0,-23.0,-34.0,1650823522380627.0
4.0,12.0,27.0,14.0,1.0,0.0,19.0,32.0,1650823522380627.0
9.0,3.0,-26.0,-13.0,-2.0,0.0,-10.0,-6.0,1650823522401601.0
-22.0,1.0,-7.0,-1.0,5.0,0.0,-3.0,-3.0,1650823522401601.0
1.0,-10.0,14.0,2.0,-3.0,-4.0,6.0,15.0,1650823522403569.0
-2.0,-16.0,-28.0,7.0,-1.0,3.0,2.0,-4.0,1650823522403569.0
-5.0,-5.0,-10.0,-32.0,-9.0,-2.0,-6.0,-9.0,1650823522416701.0
12.0,-5.0,1.0,26.0,27.0,6.0,1.0,9.0,1650823522416701.0
8.0,16.0,16.0,6.0,-7.0,0.0,10.0,7.0,1650823522422662.0
5.0,2.0,-27.0,-16.0,-9.0,-4.0,1.0,13.0,1650823522422662.0
-22.0,-21.0,10.0,-14.0,-8.0,5.0,8.0,3.0,1650823522439678.0
4.0,7.0,-20.0,8.0,10.0,3.0,-10.0,-8.0,1650823522439678.0
2.0,8.0,19.0,13.0,1.0,-1.0,8.0,-6.0,1650823522440608.0
9.0,35.0,24.0,-12.0,-2.0,-5.0,-6.0,-2.0,1650823522440608.0
0.0,-4.0,-27.0,-14.0,-12.0,-6.0,9.0,61.0,1650823522461702.0
15.0,21.0,-2.0,-1.0,-2.0,4.0,0.0,15.0,1650823522461702.0
-2.0,-7.0,3.0,16.0,6.0,0.0,-6.0,-24.0,1650823522463630.0
8.0,7.0,-1.0,-10.0,-11.0,-8.0,-15.0,-8.0,1650823522463630.0
13.0,8.0,23.0,11.0,6.0,-1.0,7.0,12.0,1650823522476610.0
-22.0,-25.0,-35.0,-14.0,-9.0,-7.0,-16.0,-42.0,1650823522476610.0
14.0,-3.0,16.0,7.0,0.0,-2.0,-7.0,-16.0,1650823522482579.0
-17.0,-19.0,8.0,18.0,27.0,12.0,1.0,7.0,1650823522482579.0
1.0,3.0,26.0,9.0,-9.0,-6.0,-8.0,-14.0,1650823522499743.0
5.0,-20.0,-78.0,-51.0,-17.0,-9.0,3.0,23.0,1650823522499743.0
-13.0,2.0,31.0,6.0,-8.0,-2.0,-10.0,-31.0,1650823522501672.0
1.0,5.0,-1.0,1.0,8.0,8.0,1.0,-5.0,1650823522501672.0
7.0,22.0,9.0,25.0,20.0,9.0,3.0,-7.0,1650823522521685.0
-14.0,-35.0,-23.0,-31.0,-9.0,-1.0,11.0,-3.0,1650823522521685.0
6.0,23.0,-13.0,5.0,12.0,8.0,5.0,46.0,1650823522523640.0
-1.0,6.0,20.0,38.0,1.0,-1.0,-5.0,-28.0,1650823522523640.0
-4.0,-7.0,-59.0,-51.0,-10.0,-6.0,-7.0,-7.0,1650823522536579.0
0.0,8.0,37.0,-4.0,-10.0,-9.0,9.0,18.0,1650823522536579.0
10.0,3.0,-7.0,1.0,0.0,0.0,6.0,22.0,1650823522542564.0
-12.0,-10.0,14.0,4.0,-2.0,-4.0,-4.0,2.0,1650823522542564.0
1.0,6.0,20.0,21.0,8.0,4.0,-2.0,-3.0,1650823522559583.0
9.0,-2.0,24.0,8.0,1.0,4.0,11.0,24.0,1650823522559583.0
-10.0,-14.0,-27.0,-18.0,-8.0,-4.0,2.0,-3.0,1650823522560515.0
4.0,11.0,11.0,1.0,-2.0,-2.0,1.0,-15.0,1650823522560515.0
-19.0,-53.0,-18.0,1.0,-3.0,-4.0,-2.0,-11.0,1650823522581571.0
5.0,0.0,7.0,14.0,5.0,2.0,-3.0,-27.0,1650823522581571.0
-7.0,25.0,27.0,4.0,3.0,3.0,-4.0,-17.0,1650823522583536.0
-30.0,-32.0,-5.0,8.0,-8.0,-3.0,1.0,-16.0,1650823522583536.0
2.0,-5.0,-32.0,-32.0,-4.0,-1.0,-1.0,-2.0,1650823522596501.0
7.0,35.0,67.0,39.0,8.0,7.0,2.0,3.0,1650823522596501.0
-5.0,-29.0,-76.0,-39.0,-3.0,-4.0,-2.0,-16.0,1650823522602498.0
2.0,-2.0,5.0,-6.0,-1.0,-3.0,-10.0,-16.0,1650823522602498.0
1.0,2.0,4.0,9.0,5.0,-2.0,14.0,32.0,1650823522619560.0
-1.0,12.0,10.0,6.0,-4.0,0.0,-2.0,-1.0,1650823522619560.0
11.0,8.0,9.0,11.0,-1.0,7.0,-5.0,-3.0,1650823522620557.0
-4.0,-5.0,0.0,-14.0,-8.0,-3.0,-1.0,0.0,1650823522620557.0
2.0,0.0,7.0,13.0,4.0,0.0,5.0,11.0,1650823522641567.0
0.0,-4.0,-15.0,-4.0,-1.0,-1.0,4.0,-2.0,1650823522641567.0
-1.0,-1.0,1.0,10.0,3.0,3.0,16.0,4.0,1650823522643526.0
-2.0,-17.0,-12.0,-6.0,-3.0,-4.0,-8.0,19.0,1650823522643526.0
11.0,26.0,35.0,18.0,2.0,-5.0,-10.0,2.0,1650823522655959.0
-4.0,-10.0,-63.0,-41.0,-3.0,-3.0,-3.0,2.0,1650823522655959.0
-4.0,-18.0,-5.0,2.0,-1.0,2.0,-1.0,-7.0,1650823522664891.0
1.0,13.0,20.0,1.0,0.0,4.0,7.0,17.0,1650823522664891.0
-6.0,14.0,-14.0,-15.0,-17.0,-7.0,-10.0,-41.0,1650823522678878.0
-6.0,-5.0,33.0,6.0,5.0,-3.0,-7.0,3.0,1650823522678878.0
8.0,0.0,2.0,0.0,6.0,2.0,-1.0,9.0,1650823522680873.0
14.0,30.0,11.0,12.0,10.0,12.0,11.0,-1.0,1650823522680873.0
-5.0,-33.0,-3.0,12.0,12.0,8.0,1.0,1.0,1650823522701846.0
2.0,19.0,-45.0,-33.0,-16.0,-11.0,-3.0,7.0,1650823522701846.0
-3.0,-2.0,35.0,22.0,8.0,-1.0,-5.0,-13.0,1650823522703812.0
2.0,-5.0,-12.0,-14.0,-10.0,-4.0,0.0,9.0,1650823522703812.0
-4.0,7.0,2.0,0.0,-3.0,-2.0,-6.0,-21.0,1650823522715808.0
-11.0,-17.0,-8.0,4.0,-7.0,-5.0,-24.0,-32.0,1650823522715808.0
20.0,9.0,6.0,5.0,-2.0,8.0,26.0,59.0,1650823522724773.0
-11.0,10.0,-19.0,-9.0,3.0,-6.0,0.0,-10.0,1650823522724773.0
-17.0,-38.0,-6.0,2.0,2.0,2.0,-7.0,-13.0,1650823522739837.0
11.0,2.0,18.0,11.0,15.0,1.0,15.0,6.0,1650823522739837.0
-12.0,20.0,13.0,10.0,-7.0,-5.0,-5.0,-1.0,1650823522740825.0
8.0,-12.0,2.0,-8.0,-13.0,-7.0,-8.0,-14.0,1650823522740825.0
6.0,32.0,16.0,0.0,1.0,-1.0,3.0,-13.0,1650823522761970.0
-7.0,-23.0,-29.0,-9.0,6.0,8.0,6.0,-1.0,1650823522761970.0
-4.0,-22.0,-14.0,-19.0,-3.0,-5.0,-12.0,-13.0,1650823522762941.0
4.0,-2.0,-7.0,15.0,5.0,3.0,10.0,21.0,1650823522762941.0
-2.0,-10.0,-22.0,-18.0,-8.0,-2.0,2.0,4.0,1650823522775981.0
9.0,32.0,48.0,37.0,21.0,9.0,-13.0,-32.0,1650823522775981.0
26.0,5.0,-1.0,10.0,11.0,11.0,9.0,5.0,1650823522784883.0
-22.0,-4.0,15.0,6.0,2.0,4.0,6.0,14.0,1650823522784883.0
-11.0,-18.0,-37.0,-44.0,-29.0,-20.0,-8.0,-23.0,1650823522799049.0
10.0,-2.0,5.0,10.0,-5.0,1.0,6.0,20.0,1650823522799049.0
4.0,1.0,-3.0,-3.0,0.0,-2.0,7.0,6.0,1650823522800982.0
3.0,-4.0,-19.0,0.0,2.0,-3.0,-13.0,-7.0,1650823522800982.0
13.0,23.0,38.0,30.0,15.0,15.0,17.0,46.0,1650823522821988.0
-3.0,2.0,-7.0,-5.0,-1.0,4.0,2.0,26.0,1650823522821988.0
7.0,3.0,-11.0,-2.0,-1.0,-10.0,-17.0,-29.0,1650823522823920.0
-3.0,-5.0,1.0,-1.0,-4.0,-4.0,13.0,8.0,1650823522823920.0
-2.0,-1.0,17.0,6.0,8.0,2.0,-7.0,-4.0,1650823522835898.0
6.0,0.0,-8.0,-8.0,0.0,-4.0,21.0,45.0,1650823522835898.0
-2.0,22.0,16.0,18.0,-6.0,0.0,-15.0,-6.0,1650823522844379.0
-2.0,-27.0,-1.0,-9.0,-9.0,-6.0,-5.0,7.0,1650823522844379.0
-8.0,-22.0,-53.0,-24.0,1.0,-2.0,1.0,-15.0,1650823522859333.0
12.0,11.0,33.0,26.0,13.0,9.0,3.0,5.0,1650823522859333.0
-28.0,3.0,4.0,-12.0,6.0,3.0,-6.0,-37.0,1650823522861328.0
10.0,24.0,-3.0,20.0,11.0,6.0,0.0,0.0,1650823522861328.0
-4.0,-28.0,-4.0,-8.0,-4.0,3.0,11.0,7.0,1650823522882182.0
-23.0,-22.0,-31.0,-22.0,-19.0,-13.0,-14.0,-14.0,1650823522882182.0
-7.0,-15.0,-24.0,-25.0,-16.0,-7.0,4.0,31.0,1650823522883180.0
1.0,3.0,27.0,6.0,-6.0,-6.0,-7.0,-8.0,1650823522883180.0
-6.0,-5.0,-12.0,4.0,3.0,0.0,-6.0,0.0,1650823522895332.0
25.0,13.0,14.0,15.0,9.0,8.0,10.0,37.0,1650823522895332.0
-4.0,-1.0,7.0,9.0,4.0,0.0,1.0,-10.0,1650823522904244.0
-2.0,-18.0,-27.0,-25.0,-5.0,2.0,7.0,-9.0,1650823522904244.0
-1.0,33.0,22.0,4.0,0.0,1.0,-8.0,-9.0,1650823522919759.0
4.0,4.0,10.0,3.0,-10.0,-3.0,2.0,9.0,1650823522919759.0
-2.0,-3.0,-1.0,5.0,0.0,-1.0,5.0,0.0,1650823522920734.0
7.0,15.0,-6.0,-3.0,10.0,7.0,10.0,38.0,1650823522920734.0
14.0,9.0,39.0,13.0,-5.0,-6.0,-2.0,-14.0,1650823522941744.0
-4.0,-14.0,-25.0,-16.0,-9.0,-12.0,-5.0,-22.0,1650823522941744.0
-20.0,9.0,27.0,11.0,-1.0,-1.0,-7.0,-10.0,1650823522943673.0
8.0,3.0,14.0,26.0,14.0,14.0,14.0,18.0,1650823522943673.0
-19.0,-57.0,-68.0,-46.0,13.0,2.0,0.0,9.0,1650823522955678.0
-9.0,-2.0,-2.0,-1.0,-15.0,-4.0,-3.0,-8.0,1650823522955678.0
9.0,-2.0,12.0,-3.0,-14.0,-9.0,-3.0,2.0,1650823522970611.0
3.0,9.0,9.0,-2.0,-9.0,-6.0,-9.0,-17.0,1650823522970611.0
4.0,30.0,30.0,26.0,6.0,7.0,-1.0,3.0,1650823522979576.0
-4.0,-8.0,-1.0,-4.0,10.0,1.0,1.0,-5.0,1650823522979576.0
-14.0,-15.0,-19.0,-14.0,0.0,-5.0,-15.0,3.0,1650823522980573.0
0.0,4.0,-7.0,-8.0,-4.0,-6.0,9.0,35.0,1650823522980573.0
17.0,23.0,30.0,22.0,0.0,0.0,-3.0,-64.0,1650823523001869.0
-6.0,-5.0,-1.0,0.0,5.0,8.0,-5.0,0.0,1650823523001869.0
0.0,-11.0,-9.0,-5.0,-7.0,-5.0,1.0,-5.0,1650823523003799.0
-11.0,-4.0,1.0,-1.0,-2.0,0.0,0.0,-15.0,1650823523003799.0
0.0,5.0,-10.0,-5.0,-7.0,-5.0,-12.0,-3.0,1650823523015765.0
2.0,14.0,7.0,10.0,-3.0,2.0,17.0,-6.0,1650823523015765.0
14.0,-11.0,14.0,-1.0,9.0,2.0,-11.0,1.0,1650823523024776.0
-6.0,-8.0,2.0,-9.0,-5.0,3.0,-4.0,-10.0,1650823523024776.0
-6.0,-13.0,-20.0,-6.0,-6.0,-10.0,-2.0,4.0,1650823523039809.0
10.0,44.0,19.0,10.0,1.0,6.0,-2.0,-13.0,1650823523039809.0
-1.0,-30.0,-20.0,-12.0,-3.0,-1.0,7.0,11.0,1650823523040737.0
4.0,-4.0,17.0,13.0,6.0,2.0,-1.0,-5.0,1650823523040737.0
2.0,19.0,35.0,5.0,-6.0,-2.0,3.0,27.0,1650823523061896.0
-6.0,-14.0,-14.0,0.0,0.0,-4.0,-13.0,-19.0,1650823523061896.0
2.0,5.0,-8.0,9.0,6.0,5.0,3.0,3.0,1650823523063825.0
-2.0,-11.0,-17.0,-15.0,-3.0,-6.0,-12.0,0.0,1650823523063825.0
4.0,11.0,23.0,21.0,4.0,7.0,14.0,3.0,1650823523075859.0
-22.0,-20.0,-13.0,-10.0,-6.0,-5.0,5.0,6.0,1650823523075859.0
2.0,6.0,7.0,1.0,-1.0,-2.0,-10.0,12.0,1650823523091750.0
-3.0,-3.0,-16.0,-5.0,-2.0,-7.0,-10.0,-63.0,1650823523091750.0
4.0,3.0,-1.0,-1.0,1.0,0.0,16.0,35.0,1650823523099808.0
0.0,-10.0,2.0,-1.0,1.0,-3.0,-10.0,-3.0,1650823523099808.0
1.0,6.0,-8.0,0.0,-5.0,2.0,1.0,16.0,1650823523100726.0
-4.0,0.0,-5.0,-13.0,4.0,-1.0,-21.0,-20.0,1650823523100726.0
-2.0,-2.0,-1.0,1.0,-15.0,-3.0,15.0,7.0,1650823523121697.0
-3.0,1.0,8.0,14.0,14.0,8.0,-10.0,-9.0,1650823523121697.0
-2.0,1.0,19.0,-1.0,0.0,-3.0,5.0,-8.0,1650823523123692.0
4.0,-2.0,-13.0,-8.0,-2.0,1.0,1.0,15.0,1650823523123692.0
-4.0,-2.0,-9.0,-7.0,7.0,-3.0,-12.0,-11.0,1650823523144731.0
1.0,-3.0,8.0,2.0,-16.0,-5.0,-2.0,3.0,1650823523144731.0
3.0,10.0,6.0,9.0,-4.0,-5.0,2.0,-7.0,1650823523145731.0
2.0,0.0,-8.0,-2.0,0.0,1.0,-3.0,4.0,1650823523145731.0
-1.0,-1.0,3.0,1.0,4.0,8.0,-1.0,-3.0,1650823523159693.0
1.0,5.0,2.0,0.0,12.0,0.0,0.0,5.0,1650823523159693.0
0.0,5.0,-7.0,3.0,0.0,4.0,5.0,-6.0,1650823523160700.0
-2.0,-4.0,-3.0,-3.0,-11.0,-5.0,6.0,1.0,1650823523160700.0
-2.0,0.0,0.0,-1.0,-1.0,-1.0,-3.0,4.0,1650823523181700.0
4.0,-3.0,-3.0,-2.0,0.0,-1.0,-15.0,-5.0,1650823523181700.0
-1.0,0.0,3.0,-6.0,12.0,5.0,9.0,-8.0,1650823523183629.0
-4.0,-6.0,-14.0,-8.0,-9.0,-4.0,-6.0,1.0,1650823523183629.0
3.0,3.0,3.0,2.0,-5.0,-2.0,9.0,7.0,1650823523204573.0
-1.0,-6.0,-3.0,-7.0,-2.0,-4.0,9.0,0.0,1650823523204573.0
-1.0,5.0,5.0,7.0,8.0,0.0,6.0,-7.0,1650823523205584.0
1.0,4.0,5.0,2.0,-5.0,-2.0,-1.0,7.0,1650823523205584.0
-3.0,-4.0,-6.0,-2.0,6.0,1.0,-5.0,-2.0,1650823523219562.0
0.0,0.0,6.0,-7.0,-14.0,-4.0,-2.0,-2.0,1650823523219562.0
1.0,3.0,-3.0,3.0,2.0,-1.0,-6.0,-1.0,1650823523220531.0
1.0,0.0,9.0,2.0,12.0,8.0,10.0,3.0,1650823523220531.0
1.0,-1.0,1.0,-4.0,-5.0,-11.0,-9.0,-3.0,1650823523241689.0
0.0,3.0,0.0,5.0,3.0,2.0,2.0,0.0,1650823523241689.0
-3.0,-4.0,-5.0,-5.0,-2.0,1.0,2.0,-2.0,1650823523247634.0
2.0,0.0,5.0,-4.0,-3.0,-2.0,-1.0,0.0,1650823523247634.0
0.0,-4.0,-1.0,0.0,6.0,2.0,-5.0,0.0,1650823523264705.0
1.0,2.0,-3.0,1.0,-9.0,-5.0,3.0,3.0,1650823523264705.0
3.0,4.0,2.0,5.0,1.0,0.0,-2.0,-1.0,1650823523265686.0
-1.0,0.0,-6.0,-5.0,-4.0,-4.0,-7.0,-2.0,1650823523265686.0
0.0,-2.0,-3.0,-3.0,-3.0,-3.0,-1.0,-4.0,1650823523278654.0
-5.0,-6.0,1.0,7.0,9.0,6.0,6.0,3.0,1650823523278654.0
-4.0,-5.0,-4.0,-4.0,-1.0,5.0,0.0,-2.0,1650823523285742.0
2.0,4.0,-5.0,3.0,6.0,2.0,-1.0,0.0,1650823523285742.0
-3.0,-7.0,-2.0,-2.0,-1.0,-1.0,-1.0,1.0,1650823523301791.0
9.0,2.0,1.0,-4.0,-10.0,-9.0,-4.0,-1.0,1650823523301791.0
-12.0,3.0,4.0,1.0,-5.0,-1.0,3.0,-5.0,1650823523303731.0
-4.0,-9.0,-10.0,-6.0,-5.0,-9.0,-5.0,8.0,1650823523303731.0
-1.0,0.0,-3.0,1.0,-3.0,-8.0,-10.0,-23.0,1650823523340762.0
1.0,-9.0,-4.0,-12.0,7.0,2.0,0.0,0.0,1650823523340762.0
6.0,1.0,-7.0,-3.0,-3.0,4.0,-2.0,-1.0,1650823523342690.0
4.0,0.0,6.0,4.0,-1.0,3.0,4.0,0.0,1650823523342690.0
-7.0,2.0,3.0,2.0,-3.0,4.0,2.0,5.0,1650823523342690.0
-2.0,4.0,0.0,9.0,12.0,1.0,4.0,2.0,1650823523342690.0
7.0,-1.0,7.0,-1.0,-5.0,-5.0,-6.0,-1.0,1650823523346682.0
-2.0,0.0,-12.0,-7.0,0.0,-3.0,-1.0,-1.0,1650823523346682.0
-1.0,2.0,5.0,2.0,0.0,1.0,1.0,0.0,1650823523369645.0
1.0,2.0,9.0,8.0,5.0,1.0,1.0,-3.0,1650823523369645.0
9.0,0.0,-11.0,3.0,-2.0,-4.0,-5.0,3.0,1650823523370615.0
-16.0,-9.0,0.0,-10.0,-5.0,4.0,4.0,-2.0,1650823523370615.0
-11.0,-7.0,-2.0,-1.0,5.0,-3.0,-8.0,-3.0,1650823523384577.0
2.0,-1.0,-4.0,-5.0,-11.0,-4.0,-2.0,-1.0,1650823523384577.0
-5.0,-1.0,3.0,4.0,4.0,5.0,0.0,-2.0,1650823523385597.0
18.0,6.0,4.0,7.0,3.0,-3.0,6.0,3.0,1650823523385597.0
7.0,6.0,-1.0,0.0,9.0,7.0,-1.0,1.0,1650823523398603.0
-12.0,-2.0,-2.0,-7.0,-8.0,-5.0,-1.0,-2.0,1650823523398603.0
4.0,-5.0,-4.0,-4.0,6.0,-4.0,-3.0,0.0,1650823523406519.0
1.0,5.0,1.0,2.0,-6.0,-1.0,-1.0,-2.0,1650823523406519.0
7.0,-2.0,9.0,7.0,4.0,4.0,2.0,4.0,1650823523421479.0
1.0,-4.0,-11.0,-1.0,-2.0,-1.0,0.0,-1.0,1650823523421479.0
-6.0,-2.0,-7.0,-4.0,-3.0,-1.0,-3.0,-3.0,1650823523423475.0
-6.0,1.0,3.0,7.0,8.0,3.0,2.0,0.0,1650823523423475.0
5.0,3.0,7.0,4.0,-7.0,-4.0,0.0,3.0,1650823523444559.0
-2.0,-9.0,2.0,-11.0,-4.0,1.0,0.0,-2.0,1650823523444559.0
-5.0,3.0,6.0,18.0,2.0,1.0,5.0,-1.0,1650823523445585.0
0.0,-2.0,4.0,-9.0,5.0,3.0,-1.0,-2.0,1650823523445585.0
4.0,2.0,0.0,0.0,-1.0,0.0,-3.0,0.0,1650823523458591.0
2.0,4.0,-7.0,-1.0,-3.0,-4.0,-2.0,2.0,1650823523458591.0
-5.0,-3.0,-4.0,-7.0,5.0,-3.0,-2.0,-2.0,1650823523465528.0
3.0,-4.0,-10.0,-5.0,-16.0,-2.0,-1.0,-1.0,1650823523465528.0
-8.0,1.0,1.0,-1.0,-7.0,-6.0,1.0,1.0,1650823523481644.0
-2.0,-2.0,5.0,4.0,6.0,4.0,0.0,-3.0,1650823523481644.0
5.0,2.0,-4.0,4.0,5.0,1.0,0.0,1.0,1650823523483599.0
8.0,-2.0,0.0,-4.0,-2.0,-4.0,-8.0,1.0,1650823523483599.0
7.0,6.0,-14.0,-17.0,-5.0,1.0,0.0,-1.0,1650823523504515.0
-20.0,-6.0,-1.0,0.0,-14.0,-3.0,6.0,0.0,1650823523504515.0
-2.0,-3.0,5.0,9.0,11.0,3.0,-2.0,-1.0,1650823523505513.0
-5.0,2.0,1.0,7.0,10.0,6.0,7.0,4.0,1650823523505513.0
-4.0,0.0,8.0,7.0,3.0,2.0,0.0,-1.0,1650823523526523.0
17.0,3.0,-21.0,-5.0,3.0,-2.0,-5.0,2.0,1650823523526523.0
1.0,-2.0,3.0,-12.0,-14.0,-4.0,-2.0,-1.0,1650823523528482.0
-6.0,-6.0,-13.0,-15.0,-3.0,-3.0,-1.0,-4.0,1650823523528482.0
-3.0,0.0,4.0,7.0,-1.0,1.0,0.0,1.0,1650823523541485.0
-3.0,-3.0,5.0,-2.0,1.0,-2.0,-2.0,-2.0,1650823523541485.0
-2.0,4.0,3.0,-3.0,1.0,6.0,1.0,0.0,1650823523543412.0
1.0,-2.0,-12.0,12.0,2.0,-10.0,-3.0,0.0,1650823523543412.0
0.0,0.0,0.0,-2.0,-7.0,-2.0,0.0,-2.0,1650823523564355.0
1.0,2.0,3.0,1.0,4.0,3.0,1.0,2.0,1650823523564355.0
3.0,-1.0,0.0,-1.0,-4.0,0.0,1.0,-1.0,1650823523566377.0
-5.0,2.0,11.0,6.0,9.0,8.0,0.0,-1.0,1650823523566377.0
-2.0,-6.0,-9.0,-5.0,15.0,2.0,-4.0,-2.0,1650823523578802.0
2.0,0.0,4.0,5.0,-20.0,-6.0,1.0,-1.0,1650823523578802.0
-2.0,-2.0,-7.0,-13.0,-6.0,-5.0,1.0,0.0,1650823523585855.0
0.0,1.0,-1.0,2.0,-2.0,0.0,1.0,0.0,1650823523585855.0
-2.0,-7.0,-5.0,-2.0,-2.0,-1.0,-5.0,-4.0,1650823523601894.0
3.0,2.0,5.0,-2.0,11.0,6.0,1.0,3.0,1650823523601894.0
-1.0,2.0,-1.0,4.0,-11.0,-6.0,-3.0,-2.0,1650823523603859.0
-5.0,-5.0,-9.0,-9.0,1.0,3.0,8.0,3.0,1650823523603859.0
2.0,1.0,-8.0,1.0,4.0,1.0,-1.0,3.0,1650823523624847.0
-2.0,-4.0,31.0,19.0,3.0,-1.0,1.0,-1.0,1650823523624847.0
-7.0,-2.0,0.0,-24.0,-8.0,1.0,-6.0,-5.0,1650823523625855.0
-1.0,-1.0,4.0,-4.0,-10.0,-10.0,-2.0,-2.0,1650823523625855.0
2.0,3.0,-5.0,-1.0,-4.0,0.0,1.0,1.0,1650823523646491.0
2.0,2.0,-13.0,0.0,8.0,3.0,0.0,-1.0,1650823523646491.0
4.0,2.0,13.0,15.0,7.0,6.0,6.0,3.0,1650823523648487.0
1.0,4.0,9.0,7.0,6.0,0.0,-3.0,-1.0,1650823523648487.0
-4.0,-9.0,-16.0,-12.0,-10.0,1.0,-1.0,-2.0,1650823523661512.0
0.0,2.0,2.0,0.0,6.0,-5.0,-3.0,-3.0,1650823523661512.0
-3.0,1.0,-6.0,-2.0,-11.0,-11.0,0.0,0.0,1650823523663447.0
-1.0,-7.0,-5.0,-7.0,-9.0,0.0,-2.0,-2.0,1650823523663447.0
3.0,4.0,8.0,8.0,5.0,0.0,3.0,2.0,1650823523684501.0
-9.0,-2.0,-4.0,-2.0,4.0,8.0,0.0,-1.0,1650823523684501.0
-2.0,-3.0,-5.0,0.0,4.0,3.0,0.0,1.0,1650823523685472.0
-3.0,1.0,2.0,10.0,-8.0,-8.0,-6.0,-5.0,1650823523685472.0
2.0,-3.0,-2.0,-12.0,1.0,-1.0,-3.0,0.0,1650823523698437.0
6.0,4.0,-2.0,-2.0,1.0,6.0,3.0,3.0,1650823523698437.0
-10.0,3.0,-1.0,7.0,8.0,-3.0,2.0,1.0,1650823523707414.0
-10.0,0.0,16.0,13.0,16.0,6.0,2.0,-2.0,1650823523707414.0
-3.0,-7.0,-2.0,-9.0,-21.0,-10.0,-2.0,-3.0,1650823523722374.0
1.0,-3.0,-11.0,-9.0,-3.0,-3.0,-6.0,-3.0,1650823523722374.0
5.0,0.0,5.0,2.0,-3.0,3.0,3.0,3.0,1650823523723370.0
3.0,3.0,-2.0,2.0,5.0,2.0,-1.0,1.0,1650823523723370.0
-1.0,0.0,-6.0,2.0,0.0,-1.0,-2.0,-1.0,1650823523744424.0
0.0,4.0,7.0,3.0,-1.0,0.0,5.0,2.0,1650823523744424.0
4.0,0.0,-3.0,11.0,8.0,5.0,-3.0,-2.0,1650823523746412.0
-4.0,-4.0,13.0,-23.0,-4.0,0.0,-4.0,-5.0,1650823523746412.0
0.0,0.0,2.0,9.0,-8.0,-5.0,-2.0,-1.0,1650823523766386.0
-1.0,-1.0,-6.0,-8.0,-6.0,-4.0,-4.0,-2.0,1650823523766386.0
0.0,-1.0,8.0,0.0,-5.0,-2.0,0.0,0.0,1650823523768353.0
6.0,4.0,0.0,6.0,2.0,1.0,1.0,2.0,1650823523768353.0
-2.0,0.0,3.0,5.0,8.0,5.0,1.0,-3.0,1650823523782383.0
-1.0,3.0,4.0,7.0,10.0,6.0,3.0,2.0,1650823523782383.0
0.0,-1.0,-7.0,1.0,18.0,6.0,2.0,1.0,1650823523783321.0
5.0,2.0,-4.0,-6.0,-19.0,-1.0,-2.0,-3.0,1650823523783321.0
-5.0,-4.0,3.0,-6.0,-8.0,-12.0,-1.0,0.0,1650823523805268.0
-1.0,-4.0,-15.0,-8.0,-7.0,-1.0,2.0,-3.0,1650823523805268.0
1.0,-2.0,-7.0,-5.0,5.0,5.0,2.0,0.0,1650823523806254.0
1.0,0.0,-5.0,2.0,-1.0,-1.0,-3.0,-2.0,1650823523806254.0
0.0,2.0,3.0,6.0,5.0,1.0,-1.0,2.0,1650823523818247.0
0.0,-5.0,3.0,-11.0,-12.0,-8.0,-5.0,-4.0,1650823523818247.0
-1.0,-3.0,-12.0,-9.0,-7.0,2.0,-1.0,-1.0,1650823523827283.0
1.0,4.0,8.0,8.0,6.0,-1.0,3.0,1.0,1650823523827283.0
-1.0,3.0,6.0,9.0,8.0,1.0,0.0,1.0,1650823523841674.0
-4.0,-4.0,-1.0,-8.0,-8.0,-5.0,-3.0,-4.0,1650823523841674.0
2.0,2.0,4.0,4.0,-1.0,1.0,4.0,4.0,1650823523843628.0
-3.0,-9.0,-2.0,-10.0,-7.0,-4.0,-5.0,-4.0,1650823523843628.0
2.0,2.0,0.0,-3.0,-7.0,4.0,0.0,0.0,1650823523864612.0
1.0,5.0,5.0,9.0,4.0,-5.0,1.0,2.0,1650823523864612.0
-2.0,-3.0,-8.0,-1.0,1.0,-1.0,-6.0,-2.0,1650823523865569.0
-4.0,-2.0,-12.0,-2.0,4.0,-3.0,3.0,0.0,1650823523865569.0
1.0,-2.0,0.0,-5.0,-9.0,-6.0,0.0,0.0,1650823523877633.0
0.0,6.0,5.0,2.0,2.0,2.0,0.0,-2.0,1650823523877633.0
-2.0,-6.0,-13.0,-17.0,-12.0,-8.0,-5.0,-4.0,1650823523886629.0
2.0,2.0,2.0,3.0,6.0,3.0,-1.0,3.0,1650823523886629.0
-2.0,-3.0,-14.0,-4.0,2.0,2.0,0.0,-2.0,1650823523901747.0
-1.0,1.0,2.0,6.0,8.0,0.0,2.0,1.0,1650823523901747.0
2.0,6.0,6.0,0.0,2.0,2.0,-1.0,0.0,1650823523903705.0
-2.0,-5.0,-5.0,-6.0,-4.0,-2.0,-4.0,-3.0,1650823523903705.0
1.0,3.0,2.0,1.0,6.0,2.0,-2.0,1.0,1650823523924696.0
-2.0,0.0,6.0,-3.0,-13.0,4.0,3.0,-1.0,1650823523924696.0
-1.0,-14.0,-5.0,5.0,1.0,-7.0,3.0,0.0,1650823523926707.0
1.0,3.0,4.0,4.0,7.0,10.0,5.0,0.0,1650823523926707.0
-3.0,-2.0,-15.0,-5.0,0.0,-1.0,1.0,0.0,1650823523937718.0
-2.0,-2.0,-17.0,-10.0,4.0,1.0,-7.0,-1.0,1650823523937718.0
-1.0,2.0,8.0,-3.0,-21.0,-11.0,-5.0,-2.0,1650823523946710.0
2.0,6.0,13.0,15.0,2.0,-2.0,-2.0,0.0,1650823523946710.0
3.0,-3.0,-5.0,-3.0,3.0,0.0,5.0,4.0,1650823523961763.0
-3.0,-5.0,-7.0,-10.0,-5.0,7.0,-3.0,-3.0,1650823523961763.0
0.0,0.0,-1.0,2.0,5.0,-7.0,1.0,-3.0,1650823523963697.0
1.0,2.0,2.0,6.0,-8.0,-1.0,0.0,1.0,1650823523963697.0
2.0,2.0,8.0,3.0,3.0,2.0,0.0,0.0,1650823523984677.0
0.0,-3.0,4.0,-1.0,5.0,-3.0,0.0,-3.0,1650823523984677.0
-2.0,3.0,10.0,2.0,-1.0,9.0,2.0,-1.0,1650823523985638.0
-2.0,-2.0,-5.0,-8.0,-2.0,-4.0,0.0,-1.0,1650823523985638.0
0.0,5.0,11.0,6.0,1.0,-4.0,-2.0,0.0,1650823523997635.0
1.0,-3.0,-6.0,2.0,5.0,-2.0,-3.0,-1.0,1650823523997635.0
-1.0,-2.0,-4.0,1.0,-10.0,-5.0,-3.0,-2.0,1650823524007593.0
-1.0,-2.0,-4.0,-9.0,-4.0,-1.0,0.0,-2.0,1650823524007593.0
0.0,-1.0,3.0,1.0,-3.0,3.0,1.0,0.0,1650823524021569.0
2.0,-1.0,1.0,-1.0,15.0,0.0,-2.0,1.0,1650823524021569.0
0.0,2.0,3.0,-3.0,-5.0,3.0,-2.0,-1.0,1650823524023538.0
0.0,-3.0,-14.0,-7.0,0.0,3.0,0.0,0.0,1650823524023538.0
-1.0,-1.0,7.0,7.0,7.0,2.0,0.0,-4.0,1650823524044732.0
-2.0,0.0,0.0,-1.0,-4.0,0.0,4.0,0.0,1650823524044732.0
2.0,-1.0,-2.0,-5.0,2.0,-5.0,-3.0,1.0,1650823524045735.0
0.0,-3.0,-4.0,-5.0,-13.0,-8.0,-3.0,2.0,1650823524045735.0
0.0,0.0,6.0,4.0,1.0,2.0,-3.0,-1.0,1650823524066743.0
-1.0,-3.0,-23.0,-8.0,-2.0,-1.0,0.0,-1.0,1650823524066743.0
-2.0,0.0,-4.0,-3.0,-2.0,-1.0,-2.0,-2.0,1650823524068671.0
-3.0,-2.0,3.0,1.0,1.0,-5.0,0.0,-3.0,1650823524068671.0
-1.0,2.0,9.0,-2.0,-7.0,0.0,-1.0,-1.0,1650823524081635.0
0.0,-2.0,-10.0,4.0,4.0,2.0,0.0,3.0,1650823524081635.0
-1.0,3.0,2.0,2.0,6.0,2.0,2.0,1.0,1650823524083650.0
-1.0,-1.0,-13.0,-3.0,6.0,4.0,-3.0,0.0,1650823524083650.0
0.0,2.0,1.0,0.0,-3.0,-4.0,-5.0,0.0,1650823524104603.0
-2.0,-5.0,2.0,1.0,-14.0,-5.0,1.0,-2.0,1650823524104603.0
-4.0,-3.0,-1.0,0.0,7.0,6.0,2.0,0.0,1650823524105571.0
1.0,1.0,5.0,5.0,15.0,1.0,-2.0,-1.0,1650823524105571.0
-4.0,-2.0,-6.0,-8.0,-17.0,-2.0,0.0,-1.0,1650823524126582.0
0.0,6.0,13.0,10.0,7.0,1.0,0.0,1.0,1650823524126582.0
1.0,-1.0,3.0,7.0,1.0,10.0,-2.0,-1.0,1650823524128512.0
-1.0,-5.0,-8.0,-11.0,-5.0,-11.0,0.0,0.0,1650823524128512.0
-2.0,-2.0,-8.0,-1.0,6.0,3.0,1.0,-3.0,1650823524141543.0
2.0,4.0,18.0,7.0,-4.0,1.0,-2.0,-1.0,1650823524141543.0
0.0,0.0,-11.0,-14.0,-1.0,-6.0,-5.0,-3.0,1650823524148496.0
-1.0,-2.0,1.0,4.0,-8.0,2.0,2.0,-1.0,1650823524148496.0
1.0,-2.0,-1.0,1.0,8.0,3.0,2.0,1.0,1650823524164701.0
-3.0,-2.0,2.0,-2.0,-5.0,-1.0,-2.0,-2.0,1650823524164701.0
-1.0,1.0,7.0,1.0,3.0,-6.0,0.0,0.0,1650823524166472.0
0.0,1.0,-2.0,-4.0,7.0,5.0,-4.0,-1.0,1650823524166472.0
-2.0,-1.0,-5.0,-3.0,-28.0,-5.0,0.0,-1.0,1650823524186418.0
1.0,-2.0,7.0,7.0,13.0,7.0,2.0,0.0,1650823524186418.0
0.0,0.0,1.0,0.0,-5.0,-7.0,-2.0,1.0,1650823524188431.0
1.0,-1.0,-2.0,3.0,2.0,0.0,-1.0,0.0,1650823524188431.0
-4.0,-1.0,-1.0,-2.0,5.0,3.0,1.0,2.0,1650823524201380.0
0.0,-1.0,3.0,1.0,-4.0,1.0,-2.0,-1.0,1650823524201380.0
-2.0,-2.0,-1.0,-3.0,-5.0,0.0,2.0,-3.0,1650823524208401.0
-1.0,-2.0,-12.0,-8.0,2.0,-1.0,2.0,1.0,1650823524208401.0
0.0,2.0,9.0,-2.0,8.0,0.0,-3.0,1.0,1650823524224290.0
0.0,-4.0,-14.0,-14.0,-28.0,-14.0,-4.0,-2.0,1650823524224290.0
0.0,2.0,5.0,2.0,4.0,0.0,1.0,1.0,1650823524226312.0
1.0,3.0,9.0,13.0,8.0,14.0,4.0,0.0,1650823524226312.0
0.0,-1.0,3.0,2.0,6.0,1.0,0.0,0.0,1650823524247361.0
-2.0,0.0,-2.0,-4.0,1.0,-11.0,-3.0,-1.0,1650823524247361.0
1.0,-3.0,-4.0,-6.0,-9.0,-2.0,-3.0,-2.0,1650823524248348.0
-1.0,1.0,3.0,7.0,3.0,-1.0,4.0,0.0,1650823524248348.0
0.0,1.0,6.0,1.0,-12.0,5.0,-3.0,-2.0,1650823524260953.0
-1.0,-2.0,-7.0,-1.0,4.0,-6.0,3.0,0.0,1650823524260953.0
-1.0,-1.0,-3.0,-8.0,-9.0,-7.0,-4.0,0.0,1650823524268000.0
-1.0,-3.0,-7.0,-5.0,-4.0,0.0,-3.0,-2.0,1650823524268000.0
1.0,3.0,4.0,11.0,16.0,5.0,5.0,-2.0,1650823524284690.0
1.0,3.0,11.0,4.0,2.0,3.0,-4.0,-1.0,1650823524284690.0
0.0,-7.0,-14.0,-7.0,-5.0,-1.0,-2.0,1.0,1650823524285890.0
-1.0,5.0,7.0,-4.0,-11.0,-9.0,-3.0,1.0,1650823524285890.0
-1.0,-7.0,-15.0,-10.0,1.0,-5.0,-2.0,-1.0,1650823524306835.0
-1.0,2.0,5.0,3.0,-8.0,0.0,1.0,0.0,1650823524306835.0
0.0,1.0,3.0,13.0,9.0,5.0,4.0,0.0,1650823524308855.0
0.0,1.0,2.0,-2.0,-1.0,0.0,-1.0,-1.0,1650823524308855.0
-1.0,-3.0,0.0,4.0,6.0,8.0,2.0,1.0,1650823524320823.0
0.0,0.0,-2.0,-2.0,4.0,-4.0,0.0,1.0,1650823524320823.0
-1.0,-2.0,-3.0,-3.0,3.0,-3.0,-4.0,-2.0,1650823524327845.0
-2.0,-1.0,0.0,-2.0,-20.0,1.0,1.0,-2.0,1650823524327845.0
-2.0,3.0,2.0,0.0,1.0,-5.0,-2.0,-1.0,1650823524344535.0
1.0,-4.0,-8.0,0.0,0.0,-2.0,-3.0,-1.0,1650823524344535.0
0.0,0.0,1.0,0.0,3.0,4.0,2.0,-1.0,1650823524345527.0
-1.0,-2.0,17.0,6.0,1.0,-3.0,-2.0,-2.0,1650823524345527.0
-2.0,-3.0,-16.0,-15.0,-4.0,1.0,-1.0,-2.0,1650823524366690.0
2.0,3.0,4.0,4.0,3.0,3.0,1.0,1.0,1650823524366690.0
2.0,3.0,6.0,8.0,7.0,-6.0,0.0,0.0,1650823524368644.0
2.0,3.0,8.0,3.0,-3.0,-3.0,-1.0,1.0,1650823524368644.0
-1.0,-7.0,-26.0,-14.0,-7.0,-6.0,-1.0,-2.0,1650823524381594.0
-3.0,-2.0,-5.0,-9.0,-8.0,-1.0,-3.0,-1.0,1650823524381594.0
0.0,1.0,3.0,6.0,17.0,15.0,-2.0,-1.0,1650823524387594.0
-1.0,1.0,3.0,11.0,-6.0,-12.0,2.0,1.0,1650823524387594.0
0.0,0.0,7.0,3.0,3.0,-2.0,2.0,0.0,1650823524404521.0
-3.0,-4.0,-8.0,-4.0,1.0,-2.0,-1.0,-2.0,1650823524404521.0
0.0,0.0,2.0,-5.0,-19.0,-1.0,-3.0,2.0,1650823524405519.0
0.0,1.0,6.0,6.0,18.0,11.0,0.0,-1.0,1650823524405519.0
-2.0,-3.0,12.0,-6.0,-8.0,-5.0,-3.0,0.0,1650823524426646.0
2.0,0.0,-2.0,3.0,1.0,3.0,2.0,7.0,1650823524426646.0
-3.0,-4.0,-8.0,-7.0,-4.0,-4.0,-4.0,-19.0,1650823524428574.0
-2.0,6.0,-3.0,4.0,0.0,0.0,1.0,1.0,1650823524428574.0
0.0,2.0,3.0,7.0,6.0,-1.0,0.0,-1.0,1650823524441540.0
0.0,-2.0,17.0,6.0,-2.0,-1.0,-3.0,-3.0,1650823524441540.0
-1.0,-2.0,-4.0,-3.0,-5.0,-1.0,2.0,5.0,1650823524448532.0
-1.0,-3.0,-11.0,-9.0,-1.0,-1.0,-1.0,0.0,1650823524448532.0
2.0,3.0,5.0,3.0,-3.0,-3.0,-3.0,-2.0,1650823524464705.0
-2.0,-1.0,-4.0,0.0,5.0,0.0,0.0,-1.0,1650823524464705.0
2.0,5.0,16.0,18.0,9.0,4.0,4.0,3.0,1650823524465679.0
-2.0,-6.0,-15.0,-11.0,-11.0,-8.0,-2.0,-3.0,1650823524465679.0
-3.0,-5.0,1.0,-4.0,4.0,2.0,-2.0,0.0,1650823524486692.0
1.0,5.0,3.0,6.0,-7.0,1.0,2.0,-1.0,1650823524486692.0
-1.0,0.0,-1.0,-2.0,-3.0,-4.0,-1.0,3.0,1650823524488634.0
-1.0,-4.0,-5.0,-7.0,-2.0,-2.0,-4.0,-2.0,1650823524488634.0
1.0,1.0,3.0,-2.0,-6.0,-7.0,-1.0,7.0,1650823524501586.0
2.0,4.0,13.0,7.0,7.0,10.0,1.0,-16.0,1650823524501586.0
1.0,-2.0,-18.0,-3.0,7.0,0.0,1.0,2.0,1650823524515667.0
-2.0,-3.0,1.0,0.0,4.0,9.0,-2.0,-6.0,1650823524515667.0
1.0,2.0,2.0,8.0,2.0,-4.0,4.0,10.0,1650823524524643.0
0.0,4.0,24.0,10.0,1.0,0.0,0.0,5.0,1650823524524643.0
-1.0,-9.0,-30.0,-24.0,-12.0,-8.0,-3.0,-1.0,1650823524525641.0
1.0,1.0,-8.0,0.0,3.0,1.0,-3.0,-3.0,1650823524525641.0
0.0,1.0,3.0,-2.0,-1.0,4.0,2.0,-7.0,1650823524546733.0
-3.0,-4.0,-3.0,1.0,-3.0,-4.0,1.0,0.0,1650823524546733.0
-1.0,-2.0,-11.0,-8.0,-10.0,-7.0,-4.0,-1.0,1650823524548688.0
-5.0,-7.0,-19.0,-10.0,-8.0,-5.0,-1.0,0.0,1650823524548688.0
3.0,9.0,22.0,26.0,6.0,3.0,5.0,-2.0,1650823524569666.0
2.0,-3.0,-36.0,-28.0,3.0,-3.0,-5.0,4.0,1650823524569666.0
-6.0,-9.0,5.0,-7.0,-7.0,0.0,-1.0,-5.0,1650823524570617.0
4.0,7.0,9.0,12.0,0.0,3.0,0.0,2.0,1650823524570617.0
1.0,0.0,-4.0,2.0,6.0,5.0,2.0,1.0,1650823524584592.0
-1.0,0.0,12.0,2.0,2.0,1.0,0.0,0.0,1650823524584592.0
-1.0,-1.0,3.0,5.0,-9.0,-3.0,-3.0,-2.0,1650823524585583.0
1.0,-2.0,-7.0,-9.0,9.0,0.0,-1.0,0.0,1650823524585583.0
2.0,8.0,4.0,2.0,-8.0,-4.0,0.0,5.0,1650823524606507.0
-2.0,-10.0,-15.0,-8.0,-10.0,-4.0,-1.0,-1.0,1650823524606507.0
1.0,5.0,11.0,8.0,4.0,2.0,1.0,2.0,1650823524608513.0
1.0,5.0,21.0,25.0,16.0,6.0,6.0,6.0,1650823524608513.0
-1.0,-1.0,-18.0,-19.0,-4.0,-2.0,-4.0,-5.0,1650823524620497.0
-3.0,-5.0,10.0,-3.0,-5.0,-3.0,-5.0,-1.0,1650823524620497.0
-3.0,1.0,9.0,7.0,8.0,4.0,2.0,0.0,1650823524629453.0
0.0,0.0,1.0,-2.0,3.0,2.0,0.0,2.0,1650823524629453.0
-1.0,-6.0,-2.0,0.0,-17.0,-1.0,-2.0,-6.0,1650823524644472.0
1.0,0.0,-2.0,1.0,7.0,-5.0,0.0,8.0,1650823524644472.0
-2.0,-5.0,-5.0,-4.0,0.0,-6.0,-4.0,6.0,1650823524646400.0
-5.0,-4.0,-2.0,-1.0,-1.0,-2.0,-10.0,-40.0,1650823524646400.0
1.0,-1.0,-3.0,-2.0,4.0,0.0,-1.0,-1.0,1650823524665744.0
1.0,1.0,4.0,9.0,3.0,8.0,2.0,-3.0,1650823524665744.0
5.0,13.0,23.0,14.0,-1.0,4.0,4.0,-1.0,1650823524674700.0
-5.0,-23.0,-45.0,-41.0,-14.0,-9.0,-3.0,8.0,1650823524674700.0
-3.0,5.0,16.0,2.0,-7.0,-4.0,-3.0,3.0,1650823524680748.0
-3.0,-1.0,-3.0,4.0,12.0,5.0,-1.0,-10.0,1650823524680748.0
2.0,6.0,7.0,9.0,-2.0,2.0,6.0,15.0,1650823524689660.0
8.0,10.0,3.0,11.0,12.0,17.0,10.0,24.0,1650823524689660.0
-4.0,-9.0,-1.0,-8.0,-12.0,-18.0,-11.0,-8.0,1650823524704734.0
-2.0,-1.0,-4.0,-3.0,-6.0,-1.0,11.0,4.0,1650823524704734.0
0.0,2.0,-1.0,8.0,27.0,5.0,-1.0,-3.0,1650823524705734.0
3.0,12.0,31.0,18.0,-9.0,3.0,4.0,5.0,1650823524705734.0
-8.0,-21.0,-35.0,-27.0,-3.0,4.0,-2.0,-8.0,1650823524727047.0
3.0,3.0,6.0,3.0,-4.0,-5.0,-2.0,-3.0,1650823524727047.0
0.0,-7.0,-14.0,-4.0,-3.0,1.0,0.0,0.0,1650823524728003.0
0.0,6.0,-11.0,-17.0,4.0,-1.0,2.0,9.0,1650823524728003.0
0.0,-16.0,-14.0,-4.0,2.0,-1.0,1.0,0.0,1650823524740950.0
0.0,7.0,5.0,1.0,-4.0,1.0,3.0,-6.0,1650823524740950.0
-4.0,-7.0,-12.0,-10.0,-15.0,-8.0,-9.0,-25.0,1650823524757473.0
3.0,2.0,10.0,7.0,2.0,1.0,-2.0,14.0,1650823524757473.0
6.0,14.0,10.0,6.0,-1.0,-5.0,6.0,7.0,1650823524764659.0
-1.0,1.0,27.0,11.0,5.0,7.0,4.0,4.0,1650823524764659.0
-9.0,-18.0,-61.0,-44.0,-6.0,-3.0,-7.0,-1.0,1650823524771656.0
-8.0,-7.0,2.0,9.0,-4.0,-6.0,-12.0,-17.0,1650823524771656.0
-2.0,-1.0,-1.0,5.0,11.0,3.0,0.0,-2.0,1650823524786667.0
3.0,6.0,6.0,6.0,-4.0,-2.0,-3.0,-6.0,1650823524786667.0
0.0,4.0,24.0,27.0,4.0,2.0,4.0,14.0,1650823524788624.0
9.0,1.0,27.0,-12.0,7.0,11.0,15.0,14.0,1650823524788624.0
-8.0,-7.0,-13.0,-9.0,-15.0,-5.0,-5.0,-12.0,1650823524800565.0
-2.0,0.0,-25.0,-5.0,12.0,0.0,0.0,12.0,1650823524800565.0
2.0,4.0,2.0,-26.0,-12.0,-5.0,-4.0,-7.0,1650823524809542.0
-4.0,0.0,23.0,29.0,-5.0,-10.0,-9.0,-11.0,1650823524809542.0
1.0,-16.0,-22.0,-2.0,18.0,12.0,13.0,10.0,1650823524824510.0
-3.0,1.0,11.0,6.0,-6.0,-5.0,-10.0,-24.0,1650823524824510.0
16.0,34.0,20.0,24.0,21.0,10.0,9.0,20.0,1650823524825529.0
-16.0,-53.0,-64.0,-35.0,-5.0,-1.0,1.0,-8.0,1650823524825529.0
6.0,9.0,33.0,0.0,-4.0,-3.0,-13.0,3.0,1650823524846830.0
-5.0,-6.0,-21.0,-14.0,-8.0,-2.0,-1.0,11.0,1650823524846830.0
3.0,16.0,40.0,25.0,4.0,6.0,1.0,-19.0,1650823524848783.0
12.0,16.0,3.0,0.0,-1.0,0.0,7.0,13.0,1650823524848783.0
-8.0,-3.0,11.0,4.0,-1.0,-1.0,-10.0,-20.0,1650823524860815.0
2.0,-10.0,-17.0,-10.0,-2.0,-3.0,-3.0,3.0,1650823524860815.0
12.0,19.0,34.0,29.0,6.0,5.0,10.0,12.0,1650823524876870.0
0.0,6.0,40.0,33.0,7.0,7.0,0.0,-2.0,1650823524876870.0
-14.0,-39.0,-103.0,-62.0,-14.0,-10.0,-11.0,-8.0,1650823524883878.0
3.0,25.0,20.0,-7.0,-14.0,1.0,7.0,8.0,1650823524883878.0
-12.0,-21.0,16.0,-21.0,-2.0,-6.0,0.0,4.0,1650823524885846.0
-7.0,-17.0,-66.0,-33.0,-15.0,-9.0,-6.0,-15.0,1650823524885846.0
7.0,18.0,40.0,15.0,-3.0,2.0,7.0,6.0,1650823524905954.0
6.0,-13.0,-43.0,21.0,37.0,19.0,8.0,19.0,1650823524905954.0
-8.0,-7.0,9.0,0.0,-14.0,-14.0,-9.0,-16.0,1650823524914919.0
-12.0,-11.0,-37.0,-36.0,-19.0,-14.0,-13.0,-2.0,1650823524914919.0
-4.0,2.0,45.0,22.0,5.0,2.0,7.0,6.0,1650823524920963.0
6.0,11.0,20.0,-2.0,-11.0,-7.0,2.0,15.0,1650823524920963.0
7.0,-5.0,-32.0,-5.0,-3.0,2.0,-3.0,-6.0,1650823524929864.0
-2.0,-3.0,2.0,19.0,6.0,-2.0,-5.0,-20.0,1650823524929864.0
-10.0,11.0,-6.0,1.0,-9.0,-13.0,-13.0,-4.0,1650823524944840.0
-6.0,-16.0,30.0,-22.0,-11.0,-6.0,-16.0,-28.0,1650823524944840.0
1.0,5.0,29.0,17.0,10.0,8.0,12.0,-3.0,1650823524945822.0
7.0,13.0,8.0,11.0,1.0,5.0,6.0,12.0,1650823524945822.0
-1.0,4.0,14.0,5.0,7.0,4.0,-6.0,-17.0,1650823524966793.0
0.0,-2.0,-25.0,9.0,1.0,1.0,8.0,15.0,1650823524966793.0
-14.0,-35.0,-31.0,-48.0,-6.0,-3.0,-14.0,-16.0,1650823524968760.0
-13.0,8.0,-21.0,-27.0,-16.0,-5.0,-6.0,-30.0,1650823524968760.0
3.0,3.0,12.0,19.0,-4.0,0.0,8.0,39.0,1650823524989753.0
11.0,11.0,21.0,14.0,13.0,7.0,12.0,19.0,1650823524989753.0
11.0,35.0,26.0,35.0,12.0,8.0,1.0,-1.0,1650823524990703.0
-11.0,-23.0,-53.0,-41.0,-9.0,-7.0,-3.0,-4.0,1650823524990703.0
-6.0,-17.0,-9.0,-14.0,-10.0,-6.0,-2.0,-2.0,1650823525004724.0
-11.0,-10.0,-25.0,-15.0,-24.0,-16.0,-25.0,-41.0,1650823525004724.0
4.0,-8.0,-26.0,-4.0,-8.0,-5.0,17.0,46.0,1650823525005662.0
5.0,15.0,44.0,22.0,14.0,6.0,-11.0,-34.0,1650823525005662.0
16.0,32.0,26.0,28.0,5.0,5.0,6.0,3.0,1650823525034605.0
-15.0,-27.0,-23.0,-33.0,-9.0,-5.0,-7.0,-20.0,1650823525034605.0
-3.0,-6.0,-19.0,-1.0,2.0,3.0,7.0,6.0,1650823525035582.0
3.0,-4.0,-4.0,10.0,4.0,5.0,7.0,15.0,1650823525035582.0
3.0,16.0,56.0,23.0,8.0,9.0,8.0,-2.0,1650823525049607.0
3.0,-4.0,-52.0,-9.0,7.0,0.0,8.0,4.0,1650823525049607.0
-10.0,-16.0,-6.0,-27.0,-20.0,-13.0,-11.0,-10.0,1650823525050542.0
3.0,7.0,48.0,34.0,11.0,0.0,3.0,18.0,1650823525050542.0
-2.0,-21.0,-63.0,-10.0,5.0,4.0,-1.0,-22.0,1650823525064504.0
5.0,23.0,49.0,5.0,8.0,12.0,19.0,38.0,1650823525064504.0
-11.0,-27.0,-46.0,-17.0,-20.0,-18.0,-20.0,-18.0,1650823525065502.0
-8.0,-10.0,10.0,-21.0,-14.0,0.0,18.0,6.0,1650823525065502.0
16.0,17.0,21.0,25.0,26.0,8.0,2.0,15.0,1650823525086970.0
3.0,-3.0,-13.0,-1.0,7.0,4.0,-1.0,4.0,1650823525086970.0
9.0,19.0,23.0,25.0,11.0,13.0,28.0,3.0,1650823525088898.0
1.0,14.0,18.0,-1.0,-6.0,-4.0,-29.0,-20.0,1650823525088898.0
-4.0,-7.0,-21.0,-5.0,-1.0,-4.0,21.0,41.0,1650823525108845.0
0.0,5.0,32.0,-2.0,-6.0,-10.0,-17.0,-45.0,1650823525108845.0
-6.0,9.0,8.0,16.0,-5.0,-10.0,-17.0,-6.0,1650823525110838.0
10.0,10.0,27.0,-3.0,7.0,2.0,7.0,17.0,1650823525110838.0
-16.0,-33.0,-49.0,-37.0,-25.0,-12.0,-7.0,-16.0,1650823525124802.0
-4.0,-11.0,2.0,12.0,1.0,1.0,0.0,-2.0,1650823525124802.0
4.0,1.0,10.0,8.0,5.0,5.0,7.0,14.0,1650823525125799.0
1.0,12.0,-29.0,-7.0,3.0,1.0,-1.0,-5.0,1650823525125799.0
13.0,27.0,45.0,48.0,21.0,12.0,-1.0,1.0,1650823525145772.0
-18.0,-45.0,-80.0,-73.0,-23.0,-10.0,1.0,5.0,1650823525145772.0
-12.0,-13.0,21.0,-15.0,-18.0,-11.0,-11.0,-11.0,1650823525154721.0
4.0,5.0,12.0,26.0,10.0,4.0,11.0,39.0,1650823525154721.0
7.0,21.0,31.0,4.0,-6.0,-5.0,-9.0,-19.0,1650823525169681.0
5.0,5.0,-12.0,36.0,25.0,13.0,4.0,0.0,1650823525169681.0
-2.0,-8.0,-31.0,-27.0,8.0,12.0,3.0,-6.0,1650823525170678.0
-2.0,-19.0,-39.0,-16.0,-2.0,-8.0,-2.0,-2.0,1650823525170678.0
-7.0,-2.0,0.0,-11.0,-16.0,-8.0,-12.0,-24.0,1650823525183644.0
2.0,19.0,29.0,21.0,0.0,3.0,14.0,18.0,1650823525183644.0
8.0,5.0,0.0,6.0,6.0,2.0,-8.0,6.0,1650823525190647.0
11.0,11.0,14.0,10.0,3.0,5.0,12.0,10.0,1650823525190647.0
-10.0,-13.0,-15.0,-11.0,-4.0,-5.0,-20.0,-16.0,1650823525206614.0
-6.0,12.0,27.0,29.0,2.0,-4.0,-16.0,-8.0,1650823525206614.0
-1.0,-5.0,-26.0,-25.0,1.0,7.0,19.0,22.0,1650823525208577.0
6.0,-3.0,-3.0,-8.0,-5.0,-4.0,-7.0,-11.0,1650823525208577.0
-22.0,-16.0,-18.0,-15.0,-9.0,-6.0,-5.0,-25.0,1650823525229553.0
4.0,12.0,36.0,38.0,-13.0,-6.0,-1.0,35.0,1650823525229553.0
0.0,-14.0,-53.0,-37.0,34.0,11.0,6.0,15.0,1650823525230519.0
7.0,30.0,39.0,30.0,13.0,9.0,4.0,5.0,1650823525230519.0
-8.0,-48.0,-64.0,-50.0,-17.0,-6.0,-1.0,-2.0,1650823525243484.0
-8.0,-9.0,12.0,7.0,-8.0,-8.0,-13.0,-24.0,1650823525243484.0
0.0,11.0,31.0,21.0,-16.0,-11.0,-6.0,-10.0,1650823525250465.0
-4.0,-1.0,-8.0,-6.0,-2.0,-2.0,-6.0,-19.0,1650823525250465.0
7.0,23.0,22.0,13.0,13.0,7.0,-1.0,0.0,1650823525266454.0
-4.0,-3.0,-11.0,-18.0,-7.0,-5.0,-17.0,-48.0,1650823525266454.0
17.0,18.0,34.0,34.0,11.0,8.0,18.0,41.0,1650823525268418.0
-8.0,-9.0,5.0,-1.0,-3.0,-6.0,-11.0,-11.0,1650823525268418.0
7.0,11.0,10.0,9.0,8.0,7.0,19.0,19.0,1650823525289361.0
-2.0,-18.0,-30.0,-19.0,-11.0,-5.0,-18.0,-11.0,1650823525289361.0
-16.0,-17.0,-8.0,-21.0,-23.0,-16.0,-16.0,-39.0,1650823525291357.0
1.0,8.0,35.0,21.0,16.0,10.0,5.0,9.0,1650823525291357.0
-2.0,-7.0,-23.0,-6.0,1.0,7.0,6.0,9.0,1650823525311302.0
13.0,20.0,3.0,18.0,25.0,14.0,19.0,24.0,1650823525311302.0
-7.0,-8.0,27.0,-4.0,-20.0,-17.0,-14.0,-17.0,1650823525313297.0
-2.0,2.0,12.0,6.0,-2.0,-3.0,0.0,6.0,1650823525313297.0
-1.0,-14.0,-25.0,-7.0,3.0,1.0,-3.0,-6.0,1650823525327268.0
-3.0,-19.0,-33.0,-24.0,1.0,0.0,14.0,15.0,1650823525327268.0
2.0,27.0,21.0,19.0,-1.0,-2.0,-6.0,-2.0,1650823525328257.0
8.0,-2.0,6.0,1.0,-6.0,2.0,9.0,22.0,1650823525328257.0
7.0,26.0,29.0,15.0,7.0,1.0,-6.0,-11.0,1650823525349201.0
2.0,-2.0,0.0,-1.0,-6.0,-1.0,3.0,10.0,1650823525349201.0
-9.0,-6.0,11.0,-10.0,-4.0,-4.0,-22.0,-35.0,1650823525351196.0
-15.0,-14.0,-4.0,-1.0,-8.0,-9.0,-5.0,4.0,1650823525351196.0
25.0,21.0,4.0,7.0,6.0,8.0,28.0,45.0,1650823525363164.0
-7.0,14.0,31.0,7.0,-2.0,1.0,2.0,-6.0,1650823525363164.0
-3.0,-24.0,-33.0,-17.0,-1.0,0.0,-10.0,11.0,1650823525370145.0
-6.0,-8.0,-29.0,-11.0,-11.0,-6.0,-12.0,-13.0,1650823525370145.0
-2.0,0.0,16.0,-1.0,0.0,-1.0,-14.0,-22.0,1650823525387099.0
-2.0,-10.0,-28.0,-23.0,1.0,-3.0,3.0,7.0,1650823525387099.0
-4.0,10.0,24.0,41.0,9.0,-1.0,-7.0,-14.0,1650823525388097.0
10.0,0.0,-44.0,-37.0,-6.0,6.0,13.0,20.0,1650823525388097.0
-22.0,-19.0,9.0,-31.0,-28.0,-19.0,-10.0,-9.0,1650823525409041.0
10.0,12.0,-10.0,17.0,12.0,10.0,6.0,5.0,1650823525409041.0
0.0,-10.0,20.0,8.0,14.0,7.0,2.0,-13.0,1650823525411036.0
-8.0,8.0,24.0,24.0,2.0,-11.0,-8.0,-10.0,1650823525411036.0
4.0,-1.0,-33.0,-27.0,-14.0,-8.0,-11.0,-2.0,1650823525424001.0
-2.0,14.0,-4.0,0.0,-1.0,-1.0,0.0,-11.0,1650823525424001.0
0.0,-15.0,-46.0,-10.0,-4.0,0.0,3.0,17.0,1650823525429985.0
-3.0,2.0,9.0,3.0,2.0,0.0,-27.0,-67.0,1650823525429985.0
21.0,14.0,1.0,22.0,21.0,17.0,36.0,50.0,1650823525446939.0
-9.0,-8.0,8.0,-7.0,-11.0,-7.0,-17.0,-11.0,1650823525446939.0
-1.0,1.0,-10.0,-1.0,-5.0,-2.0,-3.0,3.0,1650823525447937.0
-1.0,-13.0,-19.0,0.0,3.0,2.0,-4.0,-9.0,1650823525447937.0
-13.0,-10.0,8.0,-1.0,-9.0,-12.0,-10.0,-16.0,1650823525468881.0
10.0,1.0,15.0,5.0,7.0,4.0,-8.0,-23.0,1650823525468881.0
-4.0,13.0,-1.0,3.0,-5.0,1.0,10.0,-5.0,1650823525470876.0
2.0,14.0,31.0,-6.0,-1.0,-2.0,5.0,26.0,1650823525470876.0
7.0,1.0,-27.0,33.0,10.0,10.0,3.0,11.0,1650823525482844.0
-1.0,-17.0,-15.0,-29.0,23.0,5.0,4.0,4.0,1650823525482844.0
-5.0,-20.0,-47.0,-60.0,-21.0,-11.0,-2.0,-3.0,1650823525491821.0
-10.0,-15.0,16.0,11.0,-3.0,-5.0,4.0,-3.0,1650823525491821.0
-3.0,2.0,18.0,15.0,-3.0,-4.0,-6.0,-18.0,1650823525506780.0
7.0,15.0,-3.0,14.0,0.0,-2.0,12.0,35.0,1650823525506780.0
-6.0,-6.0,-12.0,2.0,0.0,-1.0,-1.0,-14.0,1650823525508775.0
6.0,4.0,-8.0,-16.0,-9.0,-2.0,5.0,15.0,1650823525508775.0
-5.0,-7.0,-2.0,-3.0,4.0,-1.0,-13.0,-24.0,1650823525529718.0
5.0,12.0,24.0,18.0,-1.0,6.0,24.0,27.0,1650823525529718.0
6.0,10.0,14.0,8.0,10.0,5.0,-10.0,1.0,1650823525530716.0
-3.0,-9.0,-19.0,-7.0,-13.0,-4.0,36.0,20.0,1650823525530716.0
3.0,13.0,28.0,18.0,14.0,8.0,7.0,3.0,1650823525542684.0
-6.0,-1.0,15.0,-7.0,-20.0,-13.0,-16.0,-23.0,1650823525542684.0
3.0,1.0,-18.0,16.0,18.0,8.0,2.0,12.0,1650823525551659.0
1.0,-12.0,-12.0,-15.0,1.0,4.0,-2.0,-1.0,1650823525551659.0
-4.0,-5.0,15.0,-8.0,-3.0,-7.0,3.0,27.0,1650823525566620.0
9.0,3.0,-1.0,-2.0,-4.0,3.0,0.0,-2.0,1650823525566620.0
-12.0,11.0,-19.0,12.0,0.0,-4.0,-16.0,-12.0,1650823525568615.0
-1.0,-26.0,-45.0,7.0,5.0,3.0,2.0,11.0,1650823525568615.0
-4.0,26.0,47.0,-13.0,-5.0,-3.0,-6.0,-13.0,1650823525589558.0
-5.0,-37.0,-59.0,-32.0,-18.0,-12.0,-11.0,-6.0,1650823525589558.0
10.0,23.0,59.0,17.0,0.0,1.0,12.0,17.0,1650823525591554.0
-16.0,-9.0,-7.0,5.0,0.0,-7.0,-19.0,-33.0,1650823525591554.0
-4.0,-10.0,-20.0,-23.0,-15.0,-8.0,-11.0,28.0,1650823525602524.0
-9.0,6.0,12.0,-1.0,-6.0,-7.0,-8.0,-12.0,1650823525602524.0
3.0,-6.0,-7.0,-2.0,-3.0,1.0,7.0,2.0,1650823525611500.0
0.0,10.0,24.0,12.0,8.0,5.0,1.0,9.0,1650823525611500.0
0.0,-6.0,-16.0,-2.0,0.0,-3.0,-6.0,-11.0,1650823525626463.0
-6.0,-1.0,3.0,0.0,-1.0,5.0,3.0,-7.0,1650823525626463.0
2.0,-1.0,10.0,2.0,4.0,0.0,-4.0,-39.0,1650823525628455.0
7.0,9.0,1.0,9.0,-6.0,2.0,13.0,20.0,1650823525628455.0
1.0,-1.0,-11.0,-5.0,9.0,6.0,-1.0,-4.0,1650823525649399.0
3.0,8.0,15.0,1.0,1.0,3.0,12.0,20.0,1650823525649399.0
10.0,13.0,-4.0,11.0,6.0,9.0,16.0,11.0,1650823525650396.0
3.0,10.0,51.0,16.0,5.0,1.0,-10.0,-16.0,1650823525650396.0
-7.0,-22.0,-30.0,-24.0,-7.0,-4.0,11.0,10.0,1650823525663361.0
8.0,1.0,15.0,12.0,-2.0,-2.0,-7.0,-1.0,1650823525663361.0
-10.0,-18.0,0.0,-19.0,-5.0,0.0,3.0,-3.0,1650823525672337.0
10.0,31.0,22.0,26.0,10.0,5.0,-2.0,9.0,1650823525672337.0
-10.0,11.0,21.0,-1.0,2.0,0.0,-2.0,-14.0,1650823525687297.0
-4.0,-28.0,4.0,-3.0,-7.0,-4.0,0.0,8.0,1650823525687297.0
-5.0,-18.0,-12.0,-8.0,-8.0,-5.0,-5.0,-1.0,1650823525688295.0
-5.0,2.0,-3.0,-11.0,-4.0,-2.0,1.0,6.0,1650823525688295.0
11.0,18.0,14.0,32.0,8.0,4.0,2.0,0.0,1650823525709241.0
3.0,18.0,9.0,-6.0,9.0,5.0,14.0,7.0,1650823525709241.0
4.0,3.0,6.0,2.0,5.0,3.0,-4.0,10.0,1650823525711234.0
-10.0,-20.0,-22.0,-12.0,-8.0,-10.0,-18.0,-32.0,1650823525711234.0
0.0,-3.0,-12.0,5.0,5.0,10.0,18.0,-16.0,1650823525723201.0
0.0,1.0,1.0,4.0,2.0,5.0,-5.0,-4.0,1650823525723201.0
4.0,3.0,4.0,3.0,-1.0,-4.0,7.0,34.0,1650823525732177.0
8.0,5.0,-8.0,-9.0,5.0,4.0,5.0,15.0,1650823525732177.0
2.0,6.0,25.0,26.0,4.0,-1.0,-13.0,-16.0,1650823525747137.0
-9.0,-9.0,-51.0,-22.0,-5.0,-1.0,3.0,-4.0,1650823525747137.0
0.0,6.0,46.0,7.0,-2.0,5.0,7.0,-12.0,1650823525748135.0
8.0,31.0,-36.0,-9.0,8.0,3.0,-4.0,10.0,1650823525748135.0
-9.0,-36.0,40.0,-6.0,-7.0,-7.0,1.0,5.0,1650823525769078.0
-8.0,-23.0,-59.0,-8.0,-4.0,-8.0,-6.0,-7.0,1650823525769078.0
0.0,11.0,28.0,1.0,-12.0,-10.0,-5.0,10.0,1650823525771073.0
-7.0,-1.0,-11.0,-3.0,-11.0,-5.0,-2.0,-9.0,1650823525771073.0
7.0,10.0,19.0,2.0,1.0,0.0,-6.0,-14.0,1650823525783041.0
5.0,16.0,24.0,16.0,11.0,11.0,8.0,6.0,1650823525783041.0
-5.0,-4.0,-11.0,5.0,10.0,3.0,-19.0,-35.0,1650823525792017.0
13.0,-1.0,4.0,-5.0,-8.0,1.0,20.0,33.0,1650823525792017.0
-1.0,2.0,-18.0,-1.0,-3.0,-4.0,-13.0,-4.0,1650823525806977.0
-9.0,-2.0,25.0,3.0,-9.0,-8.0,0.0,-11.0,1650823525806977.0
-2.0,-4.0,-19.0,-7.0,13.0,8.0,8.0,-21.0,1650823525807974.0
-9.0,-13.0,-3.0,11.0,-1.0,1.0,-4.0,-4.0,1650823525807974.0
2.0,-6.0,-19.0,-23.0,-5.0,-5.0,-7.0,6.0,1650823525829915.0
3.0,16.0,30.0,8.0,3.0,-2.0,-10.0,-23.0,1650823525829915.0
11.0,9.0,2.0,26.0,-1.0,0.0,2.0,13.0,1650823525830913.0
-9.0,-38.0,-34.0,-38.0,-1.0,-3.0,-2.0,-14.0,1650823525830913.0
-6.0,-9.0,-41.0,-20.0,-12.0,-1.0,1.0,7.0,1650823525842881.0
3.0,13.0,39.0,23.0,12.0,6.0,-1.0,-2.0,1650823525842881.0
6.0,2.0,-33.0,-9.0,-9.0,-5.0,8.0,12.0,1650823525852363.0
1.0,-1.0,21.0,23.0,3.0,0.0,-4.0,-6.0,1650823525852363.0
0.0,-12.0,-39.0,-21.0,-7.0,-1.0,3.0,-7.0,1650823525867323.0
-13.0,2.0,7.0,1.0,-6.0,-7.0,-15.0,-15.0,1650823525867323.0
3.0,7.0,16.0,10.0,8.0,5.0,2.0,-3.0,1650823525869317.0
4.0,11.0,10.0,-6.0,4.0,0.0,8.0,9.0,1650823525869317.0
-3.0,-6.0,2.0,1.0,-7.0,-1.0,-10.0,-1.0,1650823525889264.0
4.0,-2.0,-5.0,-3.0,-8.0,3.0,33.0,-12.0,1650823525889264.0
1.0,1.0,10.0,6.0,4.0,-6.0,-40.0,4.0,1650823525891259.0
1.0,1.0,-5.0,11.0,17.0,10.0,5.0,-10.0,1650823525891259.0
4.0,6.0,14.0,-6.0,7.0,1.0,6.0,8.0,1650823525903227.0
-1.0,-6.0,-13.0,-4.0,-18.0,-9.0,-19.0,-9.0,1650823525903227.0
-1.0,1.0,-7.0,0.0,-6.0,2.0,18.0,12.0,1650823525912203.0
0.0,6.0,27.0,1.0,-7.0,-3.0,-4.0,-5.0,1650823525912203.0
-8.0,-21.0,-42.0,-16.0,3.0,-2.0,-5.0,-13.0,1650823525927163.0
-9.0,-33.0,-31.0,-14.0,-6.0,-6.0,-7.0,9.0,1650823525927163.0
-3.0,-3.0,-7.0,-15.0,-12.0,-11.0,2.0,-2.0,1650823525928160.0
-2.0,2.0,13.0,14.0,-7.0,-6.0,-10.0,-1.0,1650823525928160.0
1.0,17.0,21.0,11.0,4.0,2.0,5.0,0.0,1650823525949105.0
3.0,12.0,15.0,5.0,14.0,6.0,-9.0,8.0,1650823525949105.0
-3.0,-7.0,-6.0,-1.0,4.0,4.0,9.0,-1.0,1650823525951100.0
2.0,-3.0,-9.0,-2.0,1.0,1.0,4.0,-12.0,1650823525951100.0
4.0,6.0,3.0,8.0,-2.0,-2.0,0.0,7.0,1650823525972043.0
1.0,0.0,-7.0,-6.0,-2.0,-7.0,6.0,5.0,1650823525972043.0
-2.0,-5.0,-4.0,-9.0,-12.0,-1.0,-7.0,2.0,1650823525973041.0
-3.0,-3.0,-1.0,-8.0,-10.0,-3.0,-1.0,-6.0,1650823525973041.0
1.0,2.0,-3.0,9.0,8.0,9.0,0.0,6.0,1650823525987002.0
2.0,4.0,12.0,11.0,10.0,0.0,-6.0,4.0,1650823525987002.0
-3.0,-7.0,-2.0,-1.0,8.0,5.0,5.0,-8.0,1650823525988001.0
-6.0,-8.0,-20.0,-11.0,-5.0,-7.0,-6.0,-1.0,1650823525988001.0
1.0,0.0,17.0,-4.0,-8.0,-6.0,-6.0,4.0,1650823526008944.0
-1.0,0.0,-2.0,-3.0,-28.0,-8.0,-2.0,-1.0,1650823526008944.0
3.0,-1.0,-11.0,-1.0,10.0,2.0,1.0,1.0,1650823526010939.0
-4.0,-8.0,-16.0,3.0,9.0,3.0,-2.0,2.0,1650823526010939.0
4.0,10.0,7.0,18.0,12.0,9.0,6.0,3.0,1650823526031883.0
0.0,4.0,9.0,-6.0,3.0,1.0,1.0,1.0,1650823526031883.0
1.0,4.0,-11.0,-9.0,-5.0,-8.0,0.0,1.0,1650823526033889.0
-5.0,-7.0,-7.0,-9.0,-9.0,1.0,-1.0,3.0,1650823526033889.0
-3.0,-3.0,-6.0,0.0,2.0,-4.0,10.0,3.0,1650823526046843.0
2.0,6.0,3.0,0.0,10.0,7.0,-4.0,-4.0,1650823526046843.0
-2.0,-1.0,5.0,-1.0,-10.0,-3.0,10.0,1.0,1650823526048838.0
2.0,-2.0,-6.0,-6.0,-1.0,-4.0,-6.0,-1.0,1650823526048838.0
0.0,-3.0,0.0,5.0,-3.0,3.0,12.0,3.0,1650823526068784.0
0.0,1.0,-1.0,1.0,8.0,2.0,-22.0,-4.0,1650823526068784.0
0.0,0.0,1.0,-4.0,0.0,2.0,26.0,10.0,1650823526070779.0
-4.0,-1.0,5.0,5.0,-1.0,-7.0,-3.0,-5.0,1650823526070779.0
0.0,-1.0,8.0,6.0,3.0,2.0,5.0,-2.0,1650823526091722.0
-1.0,-5.0,-2.0,-8.0,-10.0,-5.0,-3.0,1.0,1650823526091722.0
-3.0,-5.0,3.0,-4.0,-1.0,0.0,-12.0,-6.0,1650823526093718.0
3.0,4.0,9.0,0.0,-5.0,-1.0,4.0,4.0,1650823526093718.0
1.0,4.0,1.0,6.0,4.0,-1.0,-6.0,-1.0,1650823526105685.0
1.0,-5.0,-16.0,3.0,11.0,6.0,8.0,5.0,1650823526105685.0
-3.0,6.0,19.0,-3.0,-7.0,-3.0,-11.0,-6.0,1650823526113664.0
-1.0,1.0,3.0,-7.0,-8.0,-5.0,1.0,2.0,1650823526113664.0
0.0,-5.0,-10.0,2.0,-4.0,-5.0,-11.0,-5.0,1650823526128624.0
2.0,16.0,33.0,11.0,6.0,5.0,6.0,6.0,1650823526128624.0
-6.0,-11.0,-20.0,-4.0,4.0,-1.0,2.0,4.0,1650823526129622.0
1.0,-1.0,3.0,2.0,9.0,4.0,-13.0,-9.0,1650823526129622.0
4.0,8.0,0.0,0.0,-9.0,3.0,-2.0,3.0,1650823526151562.0
-6.0,-11.0,7.0,0.0,-2.0,-9.0,17.0,12.0,1650823526151562.0
-2.0,-1.0,-1.0,0.0,-3.0,-2.0,-19.0,-22.0,1650823526151562.0
0.0,3.0,5.0,1.0,6.0,4.0,2.0,-2.0,1650823526151562.0
0.0,-3.0,-13.0,-3.0,3.0,3.0,-2.0,-3.0,1650823526165525.0
3.0,3.0,4.0,-5.0,-7.0,-1.0,4.0,2.0,1650823526165525.0
0.0,-1.0,0.0,0.0,-3.0,-2.0,2.0,4.0,1650823526173504.0
3.0,-4.0,-8.0,-2.0,4.0,0.0,-7.0,-1.0,1650823526173504.0
-1.0,1.0,7.0,10.0,-18.0,-7.0,2.0,-1.0,1650823526188464.0
2.0,-1.0,-11.0,-11.0,10.0,3.0,-3.0,0.0,1650823526188464.0
5.0,0.0,5.0,11.0,-1.0,-3.0,-1.0,4.0,1650823526189461.0
-3.0,17.0,6.0,-6.0,4.0,11.0,6.0,0.0,1650823526189461.0
-14.0,-19.0,-12.0,-3.0,3.0,-4.0,1.0,-1.0,1650823526211403.0
-2.0,-8.0,-11.0,1.0,-5.0,-5.0,-6.0,-6.0,1650823526211403.0
4.0,3.0,7.0,-3.0,0.0,1.0,-1.0,1.0,1650823526211403.0
-7.0,-3.0,1.0,-3.0,-9.0,-3.0,3.0,5.0,1650823526211403.0
0.0,-4.0,11.0,-2.0,-5.0,-5.0,-4.0,-3.0,1650823526225366.0
1.0,5.0,-15.0,2.0,2.0,2.0,-4.0,-4.0,1650823526225366.0
1.0,-5.0,6.0,5.0,2.0,4.0,7.0,14.0,1650823526233344.0
0.0,-4.0,-6.0,-4.0,-3.0,-3.0,-3.0,-13.0,1650823526233344.0
2.0,5.0,-5.0,-8.0,0.0,0.0,-1.0,1.0,1650823526248304.0
3.0,10.0,7.0,8.0,1.0,1.0,-5.0,0.0,1650823526248304.0
4.0,-3.0,7.0,7.0,5.0,1.0,4.0,7.0,1650823526249302.0
12.0,0.0,-16.0,-14.0,-9.0,-9.0,1.0,6.0,1650823526249302.0
-6.0,-8.0,-7.0,-9.0,-3.0,1.0,-17.0,-3.0,1650823526271242.0
-17.0,-5.0,2.0,-2.0,-6.0,-5.0,25.0,0.0,1650823526271242.0
-11.0,0.0,2.0,-1.0,-3.0,3.0,-16.0,-14.0,1650823526272241.0
13.0,-5.0,8.0,12.0,10.0,6.0,4.0,5.0,1650823526272241.0
-12.0,14.0,2.0,1.0,5.0,2.0,-4.0,-3.0,1650823526285205.0
-1.0,-20.0,0.0,-1.0,0.0,4.0,-7.0,-4.0,1650823526285205.0
5.0,5.0,-10.0,-6.0,5.0,-2.0,2.0,9.0,1650823526293185.0
12.0,0.0,-3.0,9.0,-7.0,-7.0,0.0,0.0,1650823526293185.0
9.0,17.0,9.0,6.0,5.0,3.0,1.0,5.0,1650823526308144.0
-8.0,-15.0,-6.0,-15.0,-6.0,-4.0,-6.0,-2.0,1650823526308144.0
-4.0,-2.0,-5.0,-11.0,-11.0,-4.0,3.0,-5.0,1650823526309141.0
-5.0,2.0,16.0,8.0,-1.0,0.0,-5.0,-2.0,1650823526309141.0
3.0,5.0,10.0,10.0,19.0,6.0,7.0,2.0,1650823526331083.0
3.0,-2.0,-15.0,0.0,-2.0,-1.0,-1.0,0.0,1650823526331083.0
11.0,16.0,20.0,9.0,13.0,5.0,-3.0,-1.0,1650823526332080.0
-15.0,-23.0,-23.0,-11.0,-24.0,-13.0,-3.0,3.0,1650823526332080.0
-17.0,-4.0,2.0,-6.0,-9.0,-4.0,1.0,-5.0,1650823526345045.0
10.0,7.0,-2.0,4.0,7.0,3.0,-5.0,-3.0,1650823526345045.0
7.0,4.0,3.0,6.0,9.0,4.0,5.0,3.0,1650823526353531.0
-3.0,13.0,4.0,4.0,10.0,4.0,5.0,4.0,1650823526353531.0
3.0,-17.0,-6.0,-3.0,-7.0,-7.0,-2.0,-3.0,1650823526368491.0
0.0,-1.0,0.0,-8.0,-7.0,-3.0,-4.0,-1.0,1650823526368491.0
6.0,0.0,-2.0,2.0,-1.0,0.0,1.0,2.0,1650823526369489.0
1.0,3.0,4.0,-1.0,4.0,3.0,0.0,4.0,1650823526369489.0
-14.0,-2.0,-5.0,-1.0,-7.0,-1.0,3.0,-4.0,1650823526391430.0
2.0,-2.0,1.0,0.0,17.0,3.0,-1.0,0.0,1650823526391430.0
-4.0,-4.0,-5.0,-1.0,-11.0,-2.0,1.0,-2.0,1650823526391430.0
7.0,1.0,-2.0,4.0,7.0,3.0,0.0,1.0,1650823526391430.0
5.0,-1.0,1.0,-5.0,-2.0,-2.0,-2.0,2.0,1650823526405393.0
-5.0,5.0,1.0,3.0,-1.0,-3.0,0.0,-4.0,1650823526405393.0
-5.0,-4.0,-10.0,-4.0,-4.0,-2.0,0.0,-3.0,1650823526421350.0
-1.0,-2.0,1.0,-4.0,-5.0,-5.0,-4.0,-2.0,1650823526421350.0
4.0,0.0,-3.0,1.0,2.0,3.0,2.0,1.0,1650823526428332.0
2.0,3.0,8.0,9.0,-2.0,2.0,0.0,1.0,1650823526428332.0
-2.0,0.0,12.0,3.0,2.0,1.0,-2.0,-1.0,1650823526429342.0
-7.0,0.0,0.0,-3.0,0.0,2.0,0.0,-2.0,1650823526429342.0
6.0,3.0,0.0,0.0,3.0,-2.0,0.0,2.0,1650823526451270.0
2.0,-4.0,-4.0,0.0,-8.0,-3.0,-1.0,-2.0,1650823526451270.0
-6.0,3.0,-3.0,-2.0,-3.0,0.0,0.0,-1.0,1650823526452268.0
5.0,1.0,7.0,4.0,1.0,0.0,1.0,-1.0,1650823526452268.0
5.0,-4.0,-2.0,-1.0,0.0,1.0,2.0,-1.0,1650823526465741.0
-10.0,1.0,-7.0,-4.0,-1.0,-1.0,-3.0,-2.0,1650823526465741.0
8.0,-4.0,-7.0,-9.0,-4.0,-4.0,-3.0,-4.0,1650823526473719.0
-23.0,-6.0,-2.0,-4.0,-4.0,-3.0,1.0,-3.0,1650823526473719.0
-28.0,-9.0,-4.0,9.0,9.0,3.0,2.0,-3.0,1650823526488680.0
12.0,6.0,8.0,3.0,5.0,3.0,1.0,0.0,1650823526488680.0
-14.0,3.0,-8.0,-6.0,4.0,0.0,-2.0,-4.0,1650823526489678.0
4.0,-8.0,-4.0,-9.0,-21.0,-9.0,-5.0,-4.0,1650823526489678.0
14.0,4.0,-4.0,-8.0,-2.0,-1.0,0.0,3.0,1650823526510623.0
-6.0,7.0,6.0,10.0,1.0,4.0,5.0,1.0,1650823526510623.0
6.0,-1.0,-4.0,2.0,9.0,3.0,-1.0,2.0,1650823526511619.0
3.0,5.0,6.0,4.0,4.0,0.0,-1.0,-1.0,1650823526511619.0
2.0,3.0,6.0,2.0,0.0,1.0,1.0,2.0,1650823526525582.0
-1.0,-4.0,2.0,5.0,-9.0,-7.0,-5.0,-1.0,1650823526525582.0
1.0,-10.0,-33.0,-33.0,-14.0,-11.0,-2.0,-3.0,1650823526533560.0
-5.0,2.0,0.0,2.0,-3.0,2.0,-1.0,0.0,1650823526533560.0
2.0,-3.0,-3.0,-6.0,-3.0,-2.0,-4.0,-4.0,1650823526548519.0
5.0,6.0,3.0,10.0,10.0,6.0,5.0,3.0,1650823526548519.0
-8.0,-5.0,6.0,12.0,1.0,4.0,-1.0,-2.0,1650823526549517.0
-5.0,-2.0,0.0,0.0,5.0,1.0,1.0,-1.0,1650823526549517.0
6.0,2.0,-1.0,-4.0,-1.0,-1.0,-1.0,-1.0,1650823526578949.0
1.0,4.0,-4.0,-7.0,-18.0,-6.0,-3.0,1.0,1650823526578949.0
-4.0,-6.0,-2.0,1.0,-2.0,0.0,3.0,0.0,1650823526579947.0
2.0,6.0,6.0,0.0,7.0,5.0,2.0,-1.0,1650823526579947.0
6.0,-2.0,2.0,13.0,-4.0,-3.0,-2.0,-3.0,1650823526584934.0
-4.0,0.0,-3.0,-12.0,2.0,-3.0,-2.0,-1.0,1650823526584934.0
-2.0,-2.0,-6.0,-7.0,-15.0,-6.0,-5.0,0.0,1650823526593909.0
1.0,-5.0,-1.0,8.0,16.0,8.0,3.0,1.0,1650823526593909.0
0.0,0.0,2.0,4.0,12.0,6.0,1.0,2.0,1650823526608868.0
-5.0,-5.0,-5.0,-2.0,2.0,-1.0,-1.0,-2.0,1650823526608868.0
2.0,7.0,16.0,5.0,-3.0,1.0,0.0,1.0,1650823526609867.0
0.0,-4.0,-15.0,-14.0,-17.0,-8.0,-2.0,-4.0,1650823526609867.0
-9.0,-6.0,3.0,3.0,-4.0,1.0,-1.0,-2.0,1650823526630809.0
-1.0,-3.0,-17.0,-14.0,-7.0,-8.0,-4.0,-2.0,1650823526630809.0
1.0,1.0,4.0,-2.0,3.0,-2.0,-1.0,0.0,1650823526631807.0
1.0,3.0,7.0,5.0,15.0,6.0,0.0,0.0,1650823526631807.0
4.0,2.0,-12.0,-5.0,-11.0,0.0,2.0,0.0,1650823526645770.0
3.0,5.0,7.0,3.0,3.0,3.0,1.0,-1.0,1650823526645770.0
-7.0,-4.0,-4.0,3.0,2.0,0.0,-2.0,-3.0,1650823526653265.0
0.0,7.0,12.0,0.0,-13.0,-10.0,-3.0,-1.0,1650823526653265.0
-1.0,-7.0,-5.0,-9.0,0.0,1.0,-1.0,-1.0,1650823526668218.0
1.0,0.0,3.0,5.0,5.0,1.0,-2.0,-1.0,1650823526668218.0
1.0,0.0,-1.0,6.0,6.0,3.0,2.0,0.0,1650823526669215.0
-3.0,-3.0,-3.0,5.0,5.0,1.0,3.0,0.0,1650823526669215.0
1.0,2.0,0.0,-5.0,-1.0,-4.0,-3.0,0.0,1650823526699135.0
-1.0,-4.0,-4.0,-6.0,-1.0,1.0,-1.0,2.0,1650823526699135.0
-1.0,1.0,6.0,9.0,3.0,-1.0,-1.0,-1.0,1650823526700140.0
0.0,-5.0,-7.0,-11.0,-9.0,-1.0,-1.0,1.0,1650823526700140.0
-1.0,3.0,3.0,0.0,-2.0,1.0,1.0,1.0,1650823526705120.0
-2.0,-4.0,-3.0,1.0,11.0,-2.0,-4.0,-2.0,1650823526705120.0
-1.0,-4.0,-2.0,-2.0,-12.0,-4.0,-1.0,-2.0,1650823526714096.0
-1.0,1.0,0.0,1.0,5.0,1.0,1.0,-1.0,1650823526714096.0
1.0,-4.0,6.0,2.0,-1.0,-6.0,-3.0,-1.0,1650823526729056.0
0.0,1.0,3.0,2.0,-2.0,3.0,3.0,0.0,1650823526729056.0
0.0,3.0,-7.0,-7.0,2.0,2.0,0.0,0.0,1650823526729056.0
-5.0,-7.0,-5.0,-3.0,-3.0,-1.0,-2.0,-2.0,1650823526729056.0
3.0,3.0,0.0,1.0,6.0,-2.0,-2.0,0.0,1650823526750996.0
-1.0,-3.0,-1.0,-5.0,-16.0,-3.0,-1.0,-2.0,1650823526750996.0
0.0,1.0,7.0,10.0,7.0,3.0,1.0,1.0,1650823526751995.0
0.0,0.0,-2.0,2.0,0.0,-1.0,-1.0,0.0,1650823526751995.0
0.0,-1.0,-6.0,-9.0,0.0,-3.0,-1.0,-1.0,1650823526765468.0
1.0,-1.0,-3.0,0.0,5.0,0.0,-3.0,-1.0,1650823526765468.0
-3.0,2.0,16.0,3.0,1.0,3.0,2.0,0.0,1650823526773447.0
-1.0,-3.0,-2.0,1.0,0.0,1.0,-2.0,-1.0,1650823526773447.0
0.0,-3.0,-5.0,-2.0,-5.0,-2.0,-2.0,-3.0,1650823526788406.0
-1.0,3.0,-2.0,-3.0,-11.0,-8.0,-2.0,-1.0,1650823526788406.0
-3.0,-6.0,-4.0,-6.0,-5.0,-5.0,-2.0,-1.0,1650823526789404.0
0.0,1.0,3.0,4.0,13.0,8.0,6.0,1.0,1650823526789404.0
2.0,2.0,1.0,-1.0,-5.0,-3.0,0.0,0.0,1650823526811346.0
1.0,1.0,-2.0,2.0,4.0,6.0,0.0,0.0,1650823526811346.0
-3.0,-5.0,4.0,-2.0,1.0,-4.0,-5.0,-2.0,1650823526812343.0
0.0,-1.0,-2.0,-6.0,-9.0,-2.0,-1.0,-3.0,1650823526812343.0
0.0,0.0,-4.0,3.0,-5.0,5.0,5.0,1.0,1650823526825308.0
-1.0,-1.0,3.0,3.0,5.0,-2.0,2.0,1.0,1650823526825308.0
1.0,0.0,-2.0,-4.0,-1.0,-3.0,0.0,0.0,1650823526833287.0
0.0,-3.0,-2.0,-4.0,-8.0,-7.0,-7.0,0.0,1650823526833287.0
-1.0,1.0,1.0,2.0,11.0,7.0,-1.0,-1.0,1650823526848249.0
-2.0,-2.0,0.0,6.0,1.0,-3.0,3.0,1.0,1650823526848249.0
4.0,3.0,-3.0,1.0,-1.0,2.0,0.0,2.0,1650823526856225.0
-2.0,-1.0,4.0,6.0,3.0,-3.0,-2.0,0.0,1650823526856225.0
-2.0,-5.0,-6.0,-12.0,-2.0,-1.0,1.0,-1.0,1650823526871211.0
2.0,3.0,2.0,-1.0,-3.0,-2.0,-2.0,-1.0,1650823526871211.0
-2.0,-4.0,-6.0,-4.0,2.0,0.0,0.0,-2.0,1650823526872209.0
0.0,-1.0,-5.0,-6.0,-10.0,-2.0,0.0,0.0,1650823526872209.0
-1.0,1.0,5.0,8.0,0.0,-2.0,-1.0,-1.0,1650823526894150.0
-1.0,0.0,4.0,4.0,7.0,5.0,1.0,-1.0,1650823526894150.0
0.0,-2.0,-18.0,-13.0,-1.0,1.0,-1.0,0.0,1650823526895148.0
0.0,2.0,2.0,8.0,12.0,5.0,1.0,0.0,1650823526895148.0
2.0,0.0,-1.0,-4.0,-18.0,-7.0,0.0,0.0,1650823526909118.0
-2.0,-6.0,-6.0,1.0,2.0,-5.0,-2.0,-1.0,1650823526909118.0
1.0,-1.0,-1.0,-4.0,-8.0,0.0,1.0,2.0,1650823526909118.0
-3.0,-5.0,-3.0,-8.0,4.0,0.0,-3.0,-3.0,1650823526909118.0
-2.0,4.0,1.0,6.0,10.0,2.0,1.0,1.0,1650823526931053.0
-2.0,2.0,5.0,0.0,-1.0,4.0,1.0,-1.0,1650823526931053.0
2.0,2.0,-1.0,6.0,5.0,0.0,0.0,-1.0,1650823526932049.0
0.0,-2.0,0.0,-6.0,-9.0,-2.0,-1.0,1.0,1650823526932049.0
1.0,-3.0,-3.0,-8.0,-10.0,-9.0,-2.0,-4.0,1650823526953992.0
-3.0,-1.0,-4.0,-3.0,-9.0,-8.0,-3.0,0.0,1650823526953992.0
-2.0,1.0,2.0,7.0,8.0,5.0,2.0,-1.0,1650823526954992.0
2.0,4.0,0.0,3.0,5.0,6.0,3.0,1.0,1650823526954992.0
0.0,1.0,5.0,9.0,1.0,2.0,-1.0,0.0,1650823526977111.0
1.0,-1.0,0.0,1.0,8.0,3.0,-1.0,-1.0,1650823526977111.0
-2.0,-7.0,-24.0,-19.0,-7.0,-6.0,-3.0,-2.0,1650823526978066.0
-2.0,1.0,2.0,2.0,11.0,3.0,1.0,-1.0,1650823526978066.0
1.0,1.0,0.0,-5.0,-7.0,-3.0,0.0,0.0,1650823526991059.0
2.0,2.0,0.0,-2.0,-12.0,-3.0,-1.0,0.0,1650823526991059.0
-1.0,2.0,7.0,5.0,-2.0,-1.0,0.0,0.0,1650823526992036.0
0.0,1.0,-2.0,-2.0,2.0,0.0,-1.0,1.0,1650823526992036.0
-3.0,-2.0,-2.0,2.0,7.0,6.0,-1.0,-3.0,1650823527013981.0
0.0,-2.0,0.0,-1.0,2.0,-7.0,-1.0,0.0,1650823527013981.0
2.0,-1.0,3.0,5.0,-3.0,-7.0,-1.0,-1.0,1650823527014968.0
-2.0,-2.0,-7.0,-4.0,-8.0,-1.0,1.0,0.0,1650823527014968.0
-2.0,-1.0,11.0,3.0,5.0,4.0,-3.0,-3.0,1650823527028930.0
-2.0,-2.0,-2.0,3.0,5.0,9.0,4.0,-1.0,1650823527028930.0
-1.0,2.0,7.0,0.0,-1.0,-2.0,-1.0,-2.0,1650823527028930.0
-1.0,-1.0,-8.0,-10.0,-11.0,-13.0,-4.0,-2.0,1650823527028930.0
0.0,0.0,-4.0,-1.0,2.0,0.0,-1.0,2.0,1650823527050938.0
-1.0,3.0,9.0,1.0,0.0,3.0,3.0,-1.0,1650823527050938.0
-1.0,-1.0,3.0,7.0,11.0,3.0,0.0,0.0,1650823527051875.0
-1.0,1.0,5.0,5.0,-12.0,-3.0,-1.0,0.0,1650823527051875.0
0.0,-1.0,-4.0,-4.0,-5.0,-6.0,-3.0,-1.0,1650823527073857.0
2.0,0.0,1.0,-2.0,-2.0,-3.0,-3.0,-1.0,1650823527073857.0
-1.0,-2.0,-1.0,-2.0,-1.0,-2.0,-3.0,0.0,1650823527074826.0
2.0,-3.0,-2.0,-4.0,-14.0,-7.0,-3.0,-2.0,1650823527074826.0
0.0,2.0,1.0,1.0,10.0,7.0,2.0,1.0,1650823527088816.0
1.0,2.0,2.0,8.0,12.0,6.0,4.0,1.0,1650823527088816.0
1.0,0.0,-2.0,-1.0,6.0,3.0,3.0,1.0,1650823527089786.0
-1.0,0.0,-2.0,-1.0,0.0,-2.0,0.0,-2.0,1650823527089786.0
-1.0,-13.0,-8.0,-6.0,-10.0,-9.0,-4.0,-2.0,1650823527110923.0
-3.0,-1.0,-3.0,-12.0,-12.0,-3.0,-2.0,-2.0,1650823527110923.0
-1.0,0.0,1.0,4.0,1.0,3.0,0.0,-1.0,1650823527111919.0
2.0,4.0,4.0,5.0,7.0,0.0,2.0,1.0,1650823527111919.0
1.0,2.0,-2.0,-3.0,5.0,1.0,4.0,1.0,1650823527134958.0
0.0,0.0,-3.0,-5.0,-5.0,1.0,-3.0,0.0,1650823527134958.0
-1.0,-1.0,1.0,4.0,-3.0,0.0,0.0,0.0,1650823527135955.0
0.0,0.0,4.0,1.0,-3.0,-1.0,-1.0,-1.0,1650823527135955.0
1.0,0.0,-5.0,-3.0,2.0,-1.0,-2.0,0.0,1650823527148986.0
-3.0,-3.0,-3.0,0.0,-3.0,-2.0,-1.0,-2.0,1650823527148986.0
-1.0,2.0,0.0,-7.0,-6.0,-3.0,-2.0,-1.0,1650823527149921.0
-1.0,-1.0,0.0,3.0,7.0,3.0,-1.0,0.0,1650823527149921.0
-1.0,2.0,1.0,4.0,9.0,7.0,4.0,0.0,1650823527170995.0
0.0,0.0,-2.0,0.0,-11.0,-7.0,-3.0,2.0,1650823527170995.0
-1.0,-1.0,-1.0,-4.0,-12.0,-7.0,-3.0,-3.0,1650823527171929.0
-2.0,-4.0,-4.0,-4.0,-1.0,-1.0,-1.0,-3.0,1650823527171929.0
0.0,0.0,2.0,4.0,8.0,3.0,-1.0,1.0,1650823527193897.0
1.0,1.0,2.0,5.0,16.0,8.0,2.0,2.0,1650823527193897.0
-1.0,0.0,-2.0,-2.0,5.0,3.0,2.0,0.0,1650823527194877.0
1.0,0.0,-4.0,-1.0,-5.0,-3.0,-2.0,-1.0,1650823527194877.0
-2.0,-1.0,7.0,-7.0,-11.0,-4.0,-1.0,-1.0,1650823527208860.0
0.0,0.0,-10.0,-2.0,0.0,-5.0,-1.0,-2.0,1650823527208860.0
-2.0,-4.0,-21.0,-9.0,1.0,-1.0,-1.0,1.0,1650823527209828.0
0.0,1.0,0.0,-2.0,7.0,2.0,1.0,2.0,1650823527209828.0
0.0,-3.0,-3.0,2.0,-13.0,-4.0,0.0,0.0,1650823527230834.0
-1.0,-1.0,0.0,-5.0,-10.0,-7.0,-4.0,-2.0,1650823527230834.0
-3.0,0.0,16.0,2.0,-3.0,1.0,1.0,-4.0,1650823527231774.0
0.0,2.0,-4.0,1.0,6.0,5.0,1.0,1.0,1650823527231774.0
0.0,5.0,-1.0,3.0,9.0,2.0,0.0,-1.0,1650823527253710.0
-2.0,-5.0,-2.0,-7.0,-7.0,-7.0,-2.0,-2.0,1650823527253710.0
2.0,1.0,4.0,11.0,-1.0,0.0,0.0,1.0,1650823527254715.0
-1.0,-2.0,-10.0,-9.0,1.0,0.0,-1.0,-2.0,1650823527254715.0
0.0,4.0,4.0,1.0,-3.0,-1.0,0.0,-1.0,1650823527268737.0
0.0,-3.0,-2.0,-5.0,-2.0,1.0,-1.0,-1.0,1650823527268737.0
-2.0,-1.0,-3.0,-4.0,-2.0,-4.0,-2.0,-3.0,1650823527269668.0
-1.0,0.0,5.0,10.0,5.0,9.0,4.0,0.0,1650823527269668.0
0.0,1.0,1.0,-2.0,-1.0,0.0,-2.0,2.0,1650823527291621.0
1.0,-1.0,-7.0,0.0,5.0,2.0,-1.0,0.0,1650823527291621.0
1.0,0.0,4.0,1.0,1.0,-2.0,1.0,1.0,1650823527291621.0
1.0,0.0,5.0,10.0,-2.0,-2.0,-1.0,0.0,1650823527291621.0
0.0,-3.0,-4.0,-12.0,-5.0,-4.0,0.0,-2.0,1650823527313618.0
-1.0,-3.0,1.0,-8.0,-2.0,0.0,-3.0,-1.0,1650823527313618.0
0.0,-3.0,-1.0,1.0,0.0,1.0,0.0,-1.0,1650823527314548.0
0.0,0.0,13.0,3.0,-9.0,-2.0,-1.0,-1.0,1650823527314548.0
0.0,1.0,7.0,7.0,2.0,1.0,0.0,0.0,1650823527328518.0
2.0,2.0,2.0,5.0,9.0,8.0,4.0,0.0,1650823527328518.0
-1.0,0.0,-6.0,-3.0,-4.0,-3.0,-2.0,0.0,1650823527329508.0
1.0,0.0,-1.0,2.0,1.0,-2.0,-1.0,-1.0,1650823527329508.0
-1.0,-2.0,-4.0,-2.0,-2.0,-3.0,-3.0,0.0,1650823527350938.0
-2.0,1.0,-1.0,1.0,-7.0,-2.0,0.0,-1.0,1650823527350938.0
1.0,1.0,5.0,6.0,4.0,6.0,4.0,-1.0,1650823527351937.0
2.0,3.0,4.0,2.0,4.0,0.0,1.0,1.0,1650823527351937.0
-1.0,-4.0,-11.0,-4.0,5.0,3.0,-1.0,-1.0,1650823527373755.0
-3.0,-3.0,-11.0,-5.0,0.0,-1.0,-2.0,-2.0,1650823527373755.0
-2.0,-4.0,0.0,-10.0,-13.0,-4.0,-5.0,-2.0,1650823527374732.0
-1.0,-2.0,-2.0,-2.0,3.0,0.0,0.0,9.0,1650823527374732.0
2.0,2.0,0.0,3.0,4.0,3.0,0.0,-2.0,1650823527389083.0
-3.0,1.0,14.0,8.0,-1.0,0.0,2.0,-2.0,1650823527389083.0
1.0,2.0,-5.0,-4.0,-5.0,-5.0,-2.0,-3.0,1650823527389083.0
0.0,3.0,11.0,-2.0,6.0,4.0,0.0,-4.0,1650823527389083.0
-1.0,-17.0,-24.0,-7.0,-3.0,-2.0,3.0,29.0,1650823527411054.0
0.0,12.0,8.0,0.0,-5.0,0.0,-6.0,-27.0,1650823527411054.0
-1.0,-2.0,-2.0,2.0,9.0,3.0,0.0,-1.0,1650823527412025.0
-2.0,-4.0,0.0,-1.0,-7.0,-7.0,-5.0,-12.0,1650823527412025.0
1.0,7.0,8.0,7.0,6.0,4.0,2.0,3.0,1650823527433774.0
5.0,4.0,4.0,2.0,-1.0,1.0,3.0,12.0,1650823527433774.0
-7.0,-14.0,2.0,-6.0,-7.0,-4.0,-3.0,-3.0,1650823527434711.0
-2.0,-8.0,-9.0,-7.0,-1.0,-7.0,-1.0,0.0,1650823527434711.0
-4.0,-5.0,0.0,4.0,-3.0,-2.0,0.0,-9.0,1650823527457145.0
1.0,1.0,2.0,8.0,11.0,6.0,5.0,15.0,1650823527457145.0
4.0,7.0,10.0,4.0,1.0,1.0,-4.0,-18.0,1650823527457145.0
0.0,2.0,5.0,8.0,2.0,3.0,0.0,5.0,1650823527457145.0
-1.0,4.0,-6.0,-10.0,-6.0,-2.0,-2.0,-3.0,1650823527471147.0
-4.0,-15.0,-25.0,-16.0,-5.0,-5.0,-1.0,-6.0,1650823527471147.0
-2.0,-4.0,12.0,-2.0,-1.0,-2.0,0.0,9.0,1650823527472078.0
0.0,5.0,9.0,11.0,-12.0,-2.0,0.0,-1.0,1650823527472078.0
-3.0,-2.0,-4.0,-19.0,-7.0,2.0,1.0,-17.0,1650823527494108.0
3.0,6.0,4.0,18.0,13.0,5.0,5.0,15.0,1650823527494108.0
-1.0,-2.0,-7.0,-7.0,2.0,-4.0,0.0,2.0,1650823527494108.0
-2.0,-14.0,-28.0,-11.0,-6.0,-2.0,0.0,-2.0,1650823527494108.0
7.0,19.0,35.0,27.0,4.0,-1.0,0.0,0.0,1650823527508128.0
-7.0,-19.0,-46.0,-27.0,-12.0,-3.0,-2.0,-3.0,1650823527508128.0
-6.0,-8.0,-16.0,-18.0,-11.0,-3.0,-3.0,-6.0,1650823527515763.0
7.0,21.0,39.0,25.0,15.0,0.0,2.0,-1.0,1650823527515763.0
-1.0,-8.0,-38.0,-14.0,-2.0,-6.0,-1.0,2.0,1650823527532742.0
-5.0,-15.0,-10.0,-17.0,-9.0,-7.0,-3.0,4.0,1650823527532742.0
2.0,6.0,7.0,16.0,6.0,6.0,-5.0,-9.0,1650823527532742.0
0.0,1.0,7.0,-1.0,4.0,7.0,0.0,-9.0,1650823527532742.0
7.0,19.0,38.0,37.0,7.0,5.0,6.0,12.0,1650823527553738.0
-8.0,-26.0,-13.0,-23.0,-8.0,-9.0,-4.0,14.0,1650823527553738.0
-2.0,0.0,-14.0,-16.0,-7.0,-7.0,-6.0,-29.0,1650823527554708.0
-2.0,3.0,12.0,1.0,-8.0,-5.0,0.0,-13.0,1650823527554708.0
2.0,-2.0,-4.0,-7.0,7.0,1.0,-4.0,-9.0,1650823527567675.0
0.0,2.0,7.0,15.0,1.0,-4.0,-5.0,-15.0,1650823527567675.0
5.0,5.0,16.0,7.0,-3.0,6.0,4.0,20.0,1650823527576650.0
-4.0,-11.0,-44.0,-22.0,2.0,-1.0,-1.0,-3.0,1650823527576650.0
-5.0,-1.0,-6.0,-7.0,-14.0,-7.0,-8.0,18.0,1650823527591059.0
4.0,12.0,26.0,10.0,6.0,7.0,4.0,-16.0,1650823527591059.0
2.0,-1.0,5.0,9.0,9.0,3.0,6.0,19.0,1650823527592030.0
1.0,6.0,6.0,4.0,2.0,-2.0,5.0,5.0,1650823527592030.0
-4.0,-13.0,-18.0,-12.0,-6.0,-5.0,-6.0,1.0,1650823527614076.0
2.0,13.0,26.0,15.0,3.0,4.0,5.0,9.0,1650823527614076.0
-4.0,-5.0,0.0,7.0,2.0,-4.0,-16.0,-24.0,1650823527614076.0
2.0,5.0,-10.0,-9.0,-6.0,-6.0,-3.0,20.0,1650823527614076.0
3.0,-1.0,29.0,1.0,0.0,1.0,5.0,1.0,1650823527628215.0
-6.0,-20.0,-37.0,-11.0,-8.0,-2.0,-3.0,-5.0,1650823527628215.0
1.0,2.0,1.0,2.0,0.0,0.0,4.0,4.0,1650823527636195.0
-7.0,-5.0,-5.0,-7.0,4.0,6.0,1.0,6.0,1650823527636195.0
0.0,0.0,27.0,24.0,-2.0,-8.0,-6.0,-8.0,1650823527650912.0
8.0,28.0,17.0,-12.0,-2.0,0.0,5.0,7.0,1650823527650912.0
-11.0,-39.0,-42.0,-14.0,-2.0,1.0,1.0,-2.0,1650823527651922.0
1.0,-10.0,5.0,9.0,8.0,3.0,7.0,9.0,1650823527651922.0
-4.0,0.0,-34.0,-11.0,4.0,2.0,-7.0,-18.0,1650823527673922.0
11.0,21.0,25.0,22.0,2.0,1.0,-8.0,-32.0,1650823527673922.0
-5.0,-12.0,2.0,-4.0,-13.0,-8.0,10.0,51.0,1650823527674850.0
4.0,6.0,44.0,17.0,4.0,9.0,-4.0,-9.0,1650823527674850.0
0.0,-15.0,-70.0,-12.0,-2.0,0.0,14.0,15.0,1650823527687815.0
-6.0,-6.0,13.0,-25.0,-14.0,-11.0,-8.0,-10.0,1650823527687815.0
16.0,15.0,36.0,30.0,15.0,14.0,22.0,24.0,1650823527695794.0
4.0,-2.0,-33.0,-19.0,-1.0,-5.0,-8.0,-10.0,1650823527695794.0
4.0,8.0,29.0,12.0,-1.0,4.0,1.0,8.0,1650823527710817.0
4.0,6.0,0.0,21.0,11.0,3.0,0.0,-6.0,1650823527710817.0
0.0,-7.0,-32.0,-39.0,-10.0,-2.0,0.0,-9.0,1650823527711759.0
-4.0,2.0,26.0,28.0,0.0,0.0,0.0,-7.0,1650823527711759.0
8.0,9.0,-24.0,-16.0,4.0,1.0,-4.0,-8.0,1650823527733760.0
0.0,-3.0,16.0,28.0,11.0,8.0,30.0,58.0,1650823527733760.0
2.0,20.0,25.0,-12.0,-12.0,-10.0,-40.0,-74.0,1650823527740705.0
2.0,7.0,-32.0,-17.0,-8.0,-1.0,4.0,10.0,1650823527740705.0
-18.0,-5.0,24.0,15.0,0.0,5.0,-12.0,-71.0,1650823527747656.0
20.0,14.0,-11.0,5.0,21.0,15.0,18.0,72.0,1650823527747656.0
4.0,-1.0,-13.0,13.0,10.0,4.0,22.0,32.0,1650823527756658.0
-15.0,-29.0,7.0,-16.0,0.0,-3.0,-7.0,-18.0,1650823527756658.0
7.0,23.0,8.0,5.0,-10.0,-5.0,4.0,15.0,1650823527770652.0
-16.0,-10.0,-16.0,-40.0,-20.0,-14.0,-22.0,-40.0,1650823527770652.0
3.0,-3.0,-40.0,14.0,7.0,2.0,-1.0,0.0,1650823527771655.0
9.0,20.0,3.0,6.0,4.0,4.0,11.0,27.0,1650823527771655.0
-15.0,-37.0,-70.0,-65.0,-22.0,-16.0,-42.0,-48.0,1650823527793800.0
-8.0,-12.0,27.0,7.0,1.0,1.0,-7.0,-15.0,1650823527793800.0
3.0,17.0,24.0,7.0,8.0,2.0,3.0,23.0,1650823527794730.0
6.0,5.0,8.0,29.0,-5.0,-3.0,-9.0,-6.0,1650823527794730.0
-16.0,-10.0,-26.0,-7.0,7.0,2.0,23.0,35.0,1650823527816819.0
7.0,-1.0,-4.0,-3.0,-7.0,-7.0,3.0,9.0,1650823527816819.0
19.0,52.0,62.0,34.0,11.0,11.0,17.0,12.0,1650823527817751.0
-17.0,-68.0,-86.0,-52.0,-19.0,-9.0,-4.0,-8.0,1650823527817751.0
4.0,16.0,66.0,42.0,17.0,3.0,10.0,22.0,1650823527830713.0
-8.0,-18.0,-24.0,-37.0,-18.0,-7.0,3.0,18.0,1650823527830713.0
-9.0,1.0,15.0,21.0,6.0,1.0,-12.0,-27.0,1650823527831725.0
11.0,30.0,26.0,8.0,3.0,6.0,-3.0,-8.0,1650823527831725.0
10.0,-6.0,22.0,-4.0,-5.0,-5.0,8.0,23.0,1650823527854136.0
-17.0,-12.0,-44.0,-9.0,-10.0,-12.0,-14.0,-28.0,1650823527854136.0
7.0,-31.0,14.0,7.0,5.0,3.0,2.0,14.0,1650823527854136.0
-22.0,18.0,29.0,-13.0,-10.0,-8.0,-2.0,-17.0,1650823527854136.0
-1.0,-5.0,26.0,14.0,9.0,6.0,-8.0,-21.0,1650823527877004.0
14.0,28.0,40.0,35.0,2.0,1.0,5.0,44.0,1650823527877004.0
-7.0,-27.0,-29.0,2.0,-16.0,-8.0,5.0,12.0,1650823527877960.0
3.0,3.0,-37.0,-37.0,6.0,2.0,-2.0,0.0,1650823527877960.0
3.0,13.0,11.0,11.0,6.0,5.0,-5.0,-29.0,1650823527891014.0
-1.0,1.0,27.0,31.0,8.0,2.0,7.0,2.0,1650823527891014.0
-8.0,12.0,-38.0,-14.0,-2.0,-2.0,-15.0,-61.0,1650823527891896.0
6.0,-14.0,-63.0,-30.0,-5.0,3.0,10.0,33.0,1650823527891896.0
-5.0,3.0,24.0,2.0,-4.0,-2.0,-3.0,-18.0,1650823527913646.0
6.0,-11.0,-27.0,-4.0,2.0,-2.0,-6.0,16.0,1650823527913646.0
-1.0,10.0,25.0,36.0,7.0,1.0,-2.0,-2.0,1650823527914642.0
-14.0,-29.0,-59.0,-46.0,-9.0,-6.0,-2.0,-8.0,1650823527914642.0
2.0,9.0,-7.0,-16.0,-3.0,0.0,8.0,34.0,1650823527936705.0
-10.0,-48.0,-35.0,-14.0,0.0,-1.0,-31.0,-95.0,1650823527936705.0
2.0,27.0,32.0,-2.0,6.0,8.0,6.0,22.0,1650823527937675.0
0.0,-13.0,18.0,16.0,-12.0,-12.0,-4.0,-1.0,1650823527937675.0
10.0,4.0,0.0,0.0,-6.0,-4.0,-2.0,13.0,1650823527950755.0
-5.0,20.0,12.0,14.0,6.0,4.0,-6.0,-16.0,1650823527950755.0
5.0,7.0,-12.0,-6.0,13.0,5.0,4.0,11.0,1650823527951757.0
-2.0,-30.0,4.0,5.0,1.0,1.0,1.0,-5.0,1650823527951757.0
-10.0,-15.0,-6.0,-13.0,-16.0,-11.0,-2.0,-4.0,1650823527973723.0
-1.0,27.0,37.0,29.0,12.0,5.0,0.0,-10.0,1650823527973723.0
7.0,-6.0,-27.0,-22.0,-4.0,-1.0,0.0,0.0,1650823527974702.0
-14.0,17.0,46.0,12.0,-3.0,-11.0,-4.0,13.0,1650823527974702.0
1.0,-14.0,-25.0,2.0,-1.0,0.0,5.0,16.0,1650823527996862.0
-12.0,1.0,-11.0,3.0,2.0,-3.0,-1.0,-22.0,1650823527996862.0
3.0,-10.0,-6.0,-35.0,-24.0,-17.0,-8.0,7.0,1650823527997851.0
18.0,29.0,41.0,17.0,4.0,6.0,14.0,16.0,1650823527997851.0
-3.0,-36.0,15.0,22.0,2.0,2.0,-4.0,-14.0,1650823528010843.0
-1.0,17.0,0.0,-8.0,-1.0,8.0,3.0,13.0,1650823528010843.0
-10.0,-3.0,-57.0,-42.0,-4.0,-5.0,-5.0,-13.0,1650823528011812.0
5.0,-9.0,48.0,21.0,-1.0,1.0,-1.0,-9.0,1650823528011812.0
-2.0,-3.0,-28.0,-9.0,6.0,2.0,0.0,7.0,1650823528041800.0
19.0,37.0,80.0,47.0,8.0,8.0,12.0,14.0,1650823528041800.0
-17.0,-45.0,-47.0,-43.0,-12.0,-7.0,-5.0,-5.0,1650823528042731.0
-1.0,-2.0,-27.0,5.0,3.0,2.0,-5.0,0.0,1650823528042731.0
8.0,8.0,-4.0,-5.0,-6.0,-3.0,-2.0,1.0,1650823528056720.0
-2.0,2.0,-3.0,-9.0,-4.0,-4.0,14.0,30.0,1650823528056720.0
-10.0,1.0,7.0,8.0,0.0,-6.0,-17.0,-9.0,1650823528057690.0
7.0,16.0,33.0,24.0,8.0,2.0,-1.0,16.0,1650823528057690.0
-1.0,-8.0,-7.0,-2.0,2.0,0.0,3.0,-1.0,1650823528070655.0
17.0,-9.0,-29.0,-20.0,-6.0,1.0,-5.0,19.0,1650823528070655.0
-6.0,1.0,26.0,11.0,0.0,-1.0,6.0,12.0,1650823528071665.0
4.0,14.0,39.0,29.0,8.0,3.0,-11.0,-60.0,1650823528071665.0
-11.0,10.0,-8.0,-14.0,-9.0,-6.0,2.0,7.0,1650823528093594.0
-11.0,-50.0,-32.0,-28.0,-14.0,-11.0,-14.0,-26.0,1650823528093594.0
7.0,14.0,-21.0,8.0,5.0,13.0,11.0,10.0,1650823528094591.0
-16.0,-32.0,-33.0,-15.0,0.0,-7.0,-12.0,-12.0,1650823528094591.0
3.0,8.0,11.0,-10.0,-10.0,0.0,11.0,10.0,1650823528116599.0
4.0,46.0,72.0,8.0,-12.0,-4.0,-6.0,-17.0,1650823528116599.0
-14.0,-62.0,-55.0,-5.0,18.0,1.0,3.0,2.0,1650823528117530.0
8.0,25.0,21.0,33.0,10.0,9.0,14.0,17.0,1650823528117530.0
-11.0,-8.0,-48.0,-25.0,-4.0,-4.0,-2.0,-16.0,1650823528131556.0
0.0,-9.0,-2.0,-3.0,-4.0,-9.0,-1.0,12.0,1650823528131556.0
7.0,26.0,40.0,8.0,-12.0,-4.0,12.0,32.0,1650823528131556.0
4.0,6.0,-21.0,-12.0,3.0,2.0,0.0,2.0,1650823528131556.0
-6.0,-8.0,7.0,4.0,2.0,0.0,17.0,25.0,1650823528153433.0
-10.0,-1.0,12.0,2.0,3.0,-1.0,-13.0,-32.0,1650823528153433.0
5.0,-4.0,-14.0,-6.0,-6.0,-6.0,-11.0,-25.0,1650823528154431.0
24.0,5.0,1.0,1.0,1.0,4.0,19.0,49.0,1650823528154431.0
10.0,22.0,28.0,8.0,4.0,7.0,-3.0,-6.0,1650823528176373.0
-1.0,-2.0,-7.0,1.0,1.0,0.0,4.0,2.0,1650823528176373.0
-15.0,-8.0,-40.0,3.0,3.0,2.0,-12.0,-53.0,1650823528177389.0
8.0,34.0,57.0,-6.0,-7.0,2.0,7.0,26.0,1650823528177389.0
-1.0,-35.0,-47.0,1.0,28.0,10.0,-10.0,-20.0,1650823528191397.0
-1.0,-19.0,-9.0,-16.0,1.0,4.0,11.0,19.0,1650823528191397.0
3.0,15.0,35.0,18.0,-9.0,-6.0,-13.0,-34.0,1650823528192330.0
-1.0,-5.0,-22.0,4.0,-1.0,-4.0,2.0,14.0,1650823528192330.0
12.0,29.0,2.0,7.0,3.0,2.0,-2.0,-2.0,1650823528213274.0
-19.0,-20.0,-43.0,-24.0,1.0,0.0,4.0,9.0,1650823528213274.0
0.0,7.0,55.0,13.0,-5.0,0.0,3.0,4.0,1650823528214280.0
-11.0,1.0,-18.0,-1.0,-1.0,-3.0,-19.0,-16.0,1650823528214280.0
-3.0,0.0,-3.0,-2.0,-6.0,-9.0,0.0,14.0,1650823528236817.0
1.0,-1.0,-14.0,8.0,11.0,6.0,-11.0,-44.0,1650823528236817.0
9.0,13.0,23.0,-3.0,-4.0,0.0,25.0,35.0,1650823528237747.0
-4.0,-4.0,-13.0,-8.0,-1.0,2.0,3.0,-17.0,1650823528237747.0
4.0,-8.0,18.0,-1.0,16.0,3.0,-13.0,-37.0,1650823528250712.0
-20.0,3.0,-6.0,4.0,-24.0,-9.0,14.0,43.0,1650823528250712.0
9.0,20.0,41.0,27.0,16.0,12.0,8.0,25.0,1650823528258718.0
-5.0,-33.0,-56.0,-52.0,-11.0,-2.0,-1.0,-31.0,1650823528258718.0
0.0,6.0,-27.0,-14.0,-8.0,-8.0,1.0,11.0,1650823528273786.0
9.0,-6.0,-18.0,4.0,1.0,2.0,0.0,-11.0,1650823528273786.0
-4.0,9.0,41.0,11.0,10.0,3.0,-9.0,-14.0,1650823528274796.0
-6.0,-14.0,-48.0,-20.0,-1.0,4.0,4.0,9.0,1650823528274796.0
-8.0,3.0,32.0,24.0,-9.0,-7.0,-12.0,-19.0,1650823528296716.0
2.0,-25.0,-21.0,-22.0,-3.0,-2.0,5.0,2.0,1650823528296716.0
3.0,15.0,28.0,26.0,4.0,-1.0,-14.0,-4.0,1650823528297715.0
11.0,25.0,-18.0,-10.0,9.0,7.0,6.0,-1.0,1650823528297715.0
-13.0,-16.0,25.0,-7.0,-17.0,-11.0,-21.0,-10.0,1650823528310706.0
13.0,2.0,-6.0,0.0,-1.0,-6.0,-18.0,-43.0,1650823528310706.0
0.0,5.0,8.0,21.0,-7.0,1.0,6.0,-6.0,1650823528311691.0
-16.0,-28.0,-40.0,-19.0,22.0,1.0,-8.0,-24.0,1650823528311691.0
0.0,11.0,8.0,3.0,-4.0,-3.0,-9.0,-12.0,1650823528333679.0
23.0,16.0,5.0,1.0,10.0,8.0,35.0,77.0,1650823528333679.0
13.0,12.0,16.0,6.0,3.0,5.0,-12.0,-24.0,1650823528334615.0
-9.0,2.0,83.0,33.0,-17.0,-11.0,-1.0,-3.0,1650823528334615.0
-6.0,-25.0,-83.0,-70.0,-17.0,-4.0,8.0,9.0,1650823528355586.0
-6.0,10.0,25.0,23.0,7.0,7.0,-10.0,-30.0,1650823528355586.0
9.0,4.0,7.0,-4.0,6.0,1.0,-2.0,12.0,1650823528363538.0
-8.0,1.0,3.0,-5.0,-2.0,-6.0,-3.0,-4.0,1650823528363538.0
20.0,24.0,19.0,19.0,4.0,3.0,9.0,13.0,1650823528371516.0
-25.0,-79.0,-74.0,-41.0,-12.0,-9.0,-12.0,-5.0,1650823528371516.0
-6.0,-1.0,-9.0,-10.0,-8.0,3.0,12.0,12.0,1650823528371516.0
5.0,16.0,21.0,17.0,6.0,-4.0,-4.0,1.0,1650823528371516.0
26.0,16.0,69.0,44.0,15.0,20.0,49.0,67.0,1650823528393484.0
-3.0,29.0,-66.0,-39.0,-8.0,-5.0,-15.0,-28.0,1650823528393484.0
-5.0,-17.0,-30.0,-34.0,-4.0,-4.0,9.0,24.0,1650823528394454.0
-16.0,-9.0,1.0,13.0,-1.0,-3.0,-12.0,-35.0,1650823528394454.0
1.0,9.0,10.0,2.0,-2.0,-3.0,-14.0,6.0,1650823528416463.0
20.0,10.0,41.0,25.0,5.0,4.0,7.0,16.0,1650823528416463.0
-2.0,12.0,9.0,13.0,3.0,1.0,8.0,13.0,1650823528417394.0
-15.0,-24.0,-53.0,-32.0,-17.0,-15.0,-19.0,-6.0,1650823528417394.0
-19.0,7.0,10.0,2.0,-10.0,-8.0,-9.0,-27.0,1650823528430359.0
3.0,-13.0,26.0,17.0,19.0,13.0,5.0,-10.0,1650823528430359.0
1.0,18.0,-19.0,-16.0,-11.0,-14.0,-9.0,20.0,1650823528438401.0
11.0,-19.0,24.0,13.0,2.0,8.0,18.0,27.0,1650823528438401.0
2.0,-21.0,-20.0,-11.0,-2.0,1.0,3.0,15.0,1650823528454080.0
2.0,31.0,13.0,10.0,21.0,7.0,3.0,-6.0,1650823528454080.0
-13.0,-19.0,-1.0,-9.0,-17.0,-10.0,-17.0,-51.0,1650823528454394.0
23.0,29.0,17.0,26.0,16.0,19.0,28.0,53.0,1650823528454394.0
-2.0,-2.0,12.0,-7.0,-7.0,-9.0,1.0,1.0,1650823528476556.0
1.0,21.0,34.0,25.0,2.0,-1.0,0.0,-10.0,1650823528476556.0
-7.0,-14.0,-29.0,-10.0,1.0,1.0,0.0,-5.0,1650823528477491.0
-7.0,-8.0,-2.0,-9.0,-6.0,-5.0,-15.0,-14.0,1650823528477491.0
3.0,9.0,3.0,16.0,5.0,5.0,-3.0,-3.0,1650823528490479.0
8.0,-2.0,8.0,-3.0,-4.0,-1.0,4.0,7.0,1650823528490479.0
-1.0,-10.0,-3.0,-5.0,-1.0,5.0,18.0,36.0,1650823528498430.0
-7.0,1.0,8.0,5.0,-5.0,-6.0,-20.0,-38.0,1650823528498430.0
22.0,44.0,40.0,46.0,24.0,14.0,8.0,21.0,1650823528513459.0
-24.0,-60.0,-84.0,-87.0,-29.0,-21.0,-9.0,5.0,1650823528513459.0
-12.0,-32.0,-11.0,-2.0,-16.0,-10.0,-8.0,-12.0,1650823528514389.0
12.0,37.0,38.0,16.0,9.0,10.0,11.0,11.0,1650823528514389.0
-10.0,-40.0,-14.0,-14.0,-4.0,3.0,-6.0,-16.0,1650823528537327.0
9.0,36.0,41.0,44.0,24.0,12.0,4.0,12.0,1650823528537327.0
-2.0,-16.0,-20.0,-20.0,-11.0,-6.0,-5.0,-6.0,1650823528537327.0
-4.0,-6.0,-37.0,-22.0,-7.0,-7.0,-11.0,-20.0,1650823528537327.0
-11.0,-13.0,17.0,11.0,-9.0,-9.0,-6.0,-23.0,1650823528550359.0
-9.0,-5.0,-23.0,-20.0,-8.0,-6.0,1.0,-11.0,1650823528550359.0
16.0,11.0,9.0,10.0,4.0,6.0,2.0,28.0,1650823528558298.0
1.0,2.0,10.0,14.0,9.0,9.0,7.0,12.0,1650823528558298.0
-3.0,-9.0,-14.0,-5.0,-3.0,1.0,7.0,4.0,1650823528573332.0
-2.0,22.0,35.0,10.0,-7.0,-11.0,-15.0,-21.0,1650823528573332.0
5.0,8.0,6.0,15.0,12.0,8.0,3.0,-10.0,1650823528574302.0
1.0,0.0,-10.0,-12.0,-14.0,-8.0,-1.0,-4.0,1650823528574302.0
3.0,6.0,2.0,-5.0,-7.0,-4.0,-5.0,7.0,1650823528597327.0
5.0,8.0,24.0,18.0,16.0,11.0,19.0,13.0,1650823528597327.0
-11.0,-9.0,-36.0,-31.0,-5.0,0.0,-5.0,-9.0,1650823528597327.0
0.0,-3.0,25.0,10.0,-4.0,2.0,6.0,5.0,1650823528597327.0
-6.0,13.0,10.0,12.0,15.0,-3.0,-11.0,-30.0,1650823528610320.0
1.0,-22.0,-86.0,-32.0,-10.0,-4.0,-8.0,19.0,1650823528610320.0
10.0,30.0,71.0,34.0,15.0,7.0,8.0,8.0,1650823528618338.0
-5.0,0.0,-19.0,-10.0,-13.0,-7.0,-3.0,-4.0,1650823528618338.0
-16.0,-32.0,-26.0,-29.0,-23.0,-16.0,-5.0,-12.0,1650823528642352.0
12.0,12.0,14.0,26.0,9.0,15.0,8.0,22.0,1650823528642352.0
-8.0,11.0,11.0,-1.0,8.0,3.0,-1.0,-22.0,1650823528642352.0
3.0,2.0,6.0,6.0,-1.0,-6.0,-10.0,12.0,1650823528642352.0
4.0,9.0,-13.0,-6.0,3.0,4.0,10.0,23.0,1650823528656290.0
8.0,1.0,30.0,7.0,-7.0,-8.0,-14.0,-31.0,1650823528656290.0
-16.0,-21.0,-27.0,-17.0,-11.0,-12.0,-6.0,-10.0,1650823528657287.0
-5.0,-8.0,-3.0,4.0,13.0,4.0,-3.0,-2.0,1650823528657287.0
0.0,-2.0,-9.0,5.0,1.0,7.0,7.0,18.0,1650823528670322.0
5.0,7.0,39.0,17.0,-1.0,-6.0,1.0,-20.0,1650823528670322.0
2.0,-1.0,-30.0,-33.0,-3.0,2.0,12.0,33.0,1650823528678259.0
-4.0,-30.0,-19.0,6.0,-3.0,-8.0,-11.0,-22.0,1650823528678259.0
-5.0,-39.0,-22.0,-29.0,-16.0,-9.0,-8.0,1.0,1650823528693218.0
-16.0,10.0,14.0,6.0,3.0,2.0,-2.0,19.0,1650823528693218.0
8.0,11.0,12.0,19.0,-1.0,-2.0,-3.0,-12.0,1650823528694194.0
9.0,25.0,28.0,32.0,2.0,4.0,13.0,21.0,1650823528694194.0
-6.0,-15.0,-30.0,-40.0,5.0,5.0,-2.0,-13.0,1650823528717194.0
-1.0,7.0,25.0,16.0,-3.0,4.0,5.0,4.0,1650823528717194.0
-2.0,-4.0,-8.0,-10.0,1.0,-1.0,-2.0,-4.0,1650823528718126.0
3.0,1.0,0.0,-5.0,-3.0,3.0,-5.0,-15.0,1650823528718126.0
2.0,10.0,10.0,18.0,-2.0,-2.0,-3.0,-5.0,1650823528730157.0
0.0,3.0,-1.0,-10.0,-9.0,-5.0,-13.0,-4.0,1650823528730157.0
-3.0,-8.0,-4.0,5.0,14.0,4.0,4.0,-11.0,1650823528739068.0
-5.0,-7.0,-1.0,-4.0,-15.0,-6.0,1.0,33.0,1650823528739068.0
3.0,17.0,8.0,8.0,4.0,0.0,4.0,-4.0,1650823528753958.0
-4.0,-10.0,-12.0,-2.0,5.0,0.0,3.0,5.0,1650823528753958.0
1.0,-2.0,15.0,7.0,-3.0,-3.0,-6.0,-11.0,1650823528761453.0
1.0,1.0,15.0,10.0,2.0,3.0,10.0,-2.0,1650823528761453.0
-5.0,-3.0,-24.0,-38.0,-8.0,-7.0,-11.0,-14.0,1650823528776387.0
0.0,-11.0,-11.0,3.0,11.0,12.0,8.0,8.0,1650823528776387.0
-2.0,-10.0,-10.0,-2.0,-12.0,-2.0,-2.0,-1.0,1650823528777355.0
5.0,22.0,23.0,17.0,19.0,9.0,8.0,-4.0,1650823528777355.0
2.0,2.0,-5.0,3.0,0.0,-4.0,1.0,4.0,1650823528800294.0
-2.0,-2.0,8.0,-3.0,-9.0,-4.0,-1.0,-4.0,1650823528800294.0
-1.0,-1.0,-7.0,-2.0,0.0,-4.0,-6.0,3.0,1650823528800294.0
-1.0,-5.0,-6.0,-9.0,3.0,2.0,-5.0,-6.0,1650823528800294.0
4.0,13.0,24.0,22.0,5.0,11.0,14.0,1.0,1650823528814094.0
-4.0,-4.0,-6.0,-5.0,-5.0,-3.0,5.0,2.0,1650823528814094.0
1.0,-4.0,0.0,2.0,-1.0,-6.0,-4.0,-1.0,1650823528814094.0
-2.0,-1.0,-6.0,-9.0,-7.0,-10.0,3.0,0.0,1650823528814094.0
2.0,3.0,8.0,8.0,3.0,0.0,-9.0,-5.0,1650823528836813.0
-1.0,0.0,-2.0,-2.0,-2.0,-4.0,4.0,0.0,1650823528836813.0
1.0,0.0,-12.0,0.0,1.0,5.0,-3.0,5.0,1650823528837743.0
-5.0,-7.0,-13.0,-16.0,-5.0,-3.0,8.0,-2.0,1650823528837743.0
-4.0,-5.0,-1.0,8.0,-3.0,-5.0,-24.0,-13.0,1650823528859826.0
-2.0,0.0,8.0,-14.0,-5.0,0.0,-1.0,-1.0,1650823528859826.0
2.0,1.0,5.0,8.0,2.0,-4.0,0.0,4.0,1650823528860683.0
2.0,-5.0,-27.0,-12.0,-4.0,0.0,-5.0,-1.0,1650823528860683.0
1.0,12.0,20.0,17.0,9.0,4.0,13.0,7.0,1650823528873675.0
-1.0,-1.0,-6.0,-1.0,-4.0,-3.0,-1.0,-1.0,1650823528873675.0
0.0,-2.0,1.0,2.0,10.0,3.0,-8.0,0.0,1650823528874671.0
-4.0,-3.0,-7.0,-8.0,-13.0,-6.0,-13.0,-8.0,1650823528874671.0
2.0,2.0,9.0,7.0,-1.0,-1.0,19.0,6.0,1650823528896653.0
4.0,0.0,1.0,1.0,4.0,5.0,-16.0,-1.0,1650823528896653.0
-3.0,5.0,-6.0,5.0,2.0,-2.0,15.0,5.0,1650823528897584.0
-5.0,0.0,15.0,-8.0,-2.0,4.0,-2.0,-3.0,1650823528897584.0
-6.0,-22.0,-9.0,5.0,5.0,-4.0,-8.0,-1.0,1650823528919642.0
-4.0,-3.0,0.0,-12.0,-10.0,-10.0,-1.0,-2.0,1650823528919642.0
1.0,3.0,4.0,-5.0,-8.0,-2.0,2.0,2.0,1650823528920642.0
6.0,-2.0,-15.0,2.0,10.0,9.0,3.0,4.0,1650823528920642.0
-3.0,15.0,15.0,2.0,-4.0,2.0,-1.0,0.0,1650823528934078.0
4.0,5.0,3.0,3.0,1.0,1.0,4.0,3.0,1650823528934078.0
7.0,-7.0,-3.0,10.0,-6.0,-9.0,-5.0,-2.0,1650823528934650.0
-16.0,2.0,-6.0,-11.0,-6.0,-2.0,5.0,-2.0,1650823528934650.0
-8.0,-12.0,-8.0,0.0,10.0,2.0,-1.0,-2.0,1650823528957185.0
0.0,-4.0,-5.0,0.0,0.0,1.0,3.0,1.0,1650823528957185.0
1.0,7.0,6.0,-10.0,-8.0,-1.0,-4.0,-2.0,1650823528958117.0
14.0,-1.0,8.0,17.0,10.0,10.0,-2.0,0.0,1650823528958117.0
29.0,11.0,-8.0,-2.0,-6.0,-7.0,4.0,5.0,1650823528979594.0
-43.0,-9.0,3.0,2.0,-1.0,-3.0,-1.0,-4.0,1650823528979594.0
-16.0,-23.0,-13.0,-10.0,-7.0,-9.0,-5.0,-7.0,1650823528980570.0
4.0,-4.0,-2.0,-4.0,5.0,0.0,1.0,-3.0,1650823528980570.0
-14.0,7.0,2.0,-1.0,-4.0,5.0,4.0,1.0,1650823528993559.0
19.0,12.0,6.0,9.0,8.0,3.0,7.0,1.0,1650823528993559.0
0.0,0.0,4.0,4.0,8.0,3.0,-1.0,1.0,1650823528994526.0
1.0,2.0,4.0,-1.0,-4.0,-6.0,-3.0,-2.0,1650823528994526.0
6.0,2.0,-22.0,-14.0,-3.0,0.0,-5.0,-1.0,1650823529016716.0
3.0,-13.0,2.0,0.0,-5.0,-7.0,-3.0,1.0,1650823529016716.0
-10.0,-6.0,-10.0,-3.0,-5.0,-1.0,3.0,-1.0,1650823529017713.0
-1.0,-4.0,-12.0,-9.0,0.0,-9.0,-3.0,-3.0,1650823529017713.0
3.0,7.0,2.0,3.0,6.0,5.0,1.0,2.0,1650823529039716.0
-1.0,1.0,-3.0,-3.0,2.0,-1.0,-1.0,0.0,1650823529039716.0
3.0,-6.0,-3.0,1.0,-7.0,4.0,-2.0,-1.0,1650823529039716.0
5.0,3.0,9.0,10.0,3.0,2.0,5.0,2.0,1650823529039716.0
8.0,9.0,5.0,3.0,6.0,2.0,-1.0,-2.0,1650823529053674.0
-22.0,3.0,-6.0,-4.0,-2.0,-1.0,-3.0,-5.0,1650823529053674.0
-17.0,-12.0,3.0,1.0,-3.0,-4.0,-5.0,-5.0,1650823529054614.0
-3.0,-8.0,-3.0,-5.0,1.0,0.0,-1.0,-1.0,1650823529054614.0
-1.0,-5.0,2.0,0.0,-5.0,1.0,-2.0,0.0,1650823529076636.0
29.0,9.0,4.0,4.0,11.0,5.0,4.0,2.0,1650823529076636.0
23.0,17.0,3.0,-6.0,-5.0,-2.0,6.0,8.0,1650823529077564.0
-38.0,-16.0,-1.0,3.0,-13.0,-14.0,-3.0,-4.0,1650823529077564.0
6.0,-1.0,-2.0,-3.0,-2.0,-3.0,-3.0,-3.0,1650823529099684.0
3.0,1.0,-1.0,-1.0,-2.0,-1.0,-4.0,-4.0,1650823529099684.0
6.0,4.0,5.0,4.0,5.0,5.0,1.0,3.0,1650823529099684.0
9.0,-1.0,-3.0,-8.0,-11.0,-1.0,-1.0,3.0,1650823529099684.0
-4.0,-3.0,0.0,-3.0,1.0,-6.0,0.0,1.0,1650823529113674.0
1.0,2.0,0.0,3.0,2.0,4.0,5.0,2.0,1650823529113674.0
-5.0,3.0,-2.0,4.0,5.0,0.0,2.0,1.0,1650823529114644.0
3.0,3.0,1.0,-3.0,-6.0,0.0,-3.0,-1.0,1650823529114644.0
-7.0,-1.0,-4.0,-1.0,-7.0,-4.0,-9.0,-4.0,1650823529136653.0
-1.0,-4.0,-2.0,1.0,-3.0,3.0,2.0,2.0,1650823529136653.0
-3.0,-3.0,2.0,-2.0,1.0,-1.0,-4.0,-3.0,1650823529137584.0
6.0,1.0,-4.0,4.0,9.0,0.0,-2.0,-2.0,1650823529137584.0
-6.0,4.0,2.0,-5.0,-6.0,0.0,3.0,-1.0,1650823529159668.0
-3.0,-9.0,-6.0,1.0,-4.0,-7.0,-1.0,1.0,1650823529159668.0
5.0,2.0,4.0,0.0,5.0,6.0,2.0,1.0,1650823529159668.0
-3.0,6.0,3.0,6.0,20.0,6.0,-1.0,-1.0,1650823529159668.0
-1.0,-8.0,1.0,1.0,-21.0,-3.0,0.0,-1.0,1650823529173723.0
2.0,2.0,-5.0,-10.0,0.0,-4.0,-1.0,5.0,1650823529173723.0
10.0,-1.0,-6.0,-5.0,-8.0,-8.0,10.0,6.0,1650823529174728.0
-16.0,6.0,4.0,5.0,2.0,-1.0,-9.0,-7.0,1650823529174728.0
11.0,-7.0,-3.0,-2.0,2.0,-1.0,0.0,-1.0,1650823529197687.0
-4.0,-2.0,3.0,11.0,-5.0,1.0,-3.0,-3.0,1650823529197687.0
0.0,1.0,3.0,-1.0,4.0,0.0,3.0,3.0,1650823529197687.0
9.0,-3.0,-6.0,-15.0,-4.0,-1.0,0.0,3.0,1650823529197687.0
-5.0,2.0,8.0,0.0,5.0,1.0,2.0,0.0,1650823529219669.0
1.0,0.0,2.0,7.0,-7.0,-5.0,-6.0,-2.0,1650823529219669.0
-3.0,-4.0,-11.0,-7.0,0.0,-2.0,-4.0,-1.0,1650823529220598.0
-1.0,-2.0,7.0,1.0,-1.0,10.0,2.0,1.0,1650823529220598.0
-7.0,-2.0,-4.0,-5.0,3.0,-8.0,-3.0,-1.0,1650823529233564.0
0.0,-2.0,2.0,2.0,-3.0,-3.0,0.0,-2.0,1650823529233564.0
-5.0,1.0,5.0,2.0,1.0,0.0,-6.0,-4.0,1650823529234561.0
2.0,1.0,-2.0,2.0,-2.0,-2.0,1.0,0.0,1650823529234561.0
1.0,-1.0,0.0,-1.0,9.0,8.0,4.0,2.0,1650823529256590.0
1.0,0.0,0.0,1.0,-6.0,1.0,3.0,-1.0,1650823529256590.0
-4.0,1.0,-1.0,2.0,1.0,-3.0,-1.0,-1.0,1650823529257587.0
2.0,-1.0,-3.0,-7.0,-8.0,-1.0,-1.0,-1.0,1650823529257587.0
-3.0,-1.0,2.0,-1.0,9.0,3.0,-2.0,0.0,1650823529279602.0
-7.0,-5.0,-3.0,-2.0,0.0,1.0,5.0,3.0,1650823529279602.0
-2.0,0.0,-4.0,-4.0,-3.0,-2.0,-6.0,-3.0,1650823529280541.0
5.0,1.0,5.0,1.0,0.0,-6.0,-1.0,0.0,1650823529280541.0
-3.0,-2.0,-5.0,-1.0,-10.0,-5.0,-2.0,-2.0,1650823529293559.0
-1.0,-1.0,-2.0,3.0,6.0,-2.0,0.0,-3.0,1650823529293559.0
0.0,2.0,-3.0,-3.0,4.0,7.0,1.0,-1.0,1650823529294489.0
2.0,1.0,-2.0,3.0,1.0,1.0,-1.0,-1.0,1650823529294489.0
-2.0,-2.0,3.0,2.0,1.0,-3.0,-3.0,0.0,1650823529316431.0
2.0,3.0,8.0,-1.0,-3.0,2.0,-3.0,0.0,1650823529316431.0
3.0,2.0,-1.0,1.0,-6.0,-3.0,0.0,1.0,1650823529317430.0
1.0,-1.0,-1.0,2.0,1.0,-3.0,-1.0,1.0,1650823529317430.0
-5.0,3.0,-7.0,-4.0,-2.0,1.0,3.0,-1.0,1650823529339779.0
2.0,-2.0,6.0,-3.0,6.0,-1.0,-2.0,-2.0,1650823529339779.0
-1.0,-1.0,-1.0,0.0,4.0,1.0,-4.0,-4.0,1650823529339779.0
2.0,2.0,1.0,1.0,-9.0,2.0,5.0,-1.0,1650823529339779.0
3.0,-3.0,-3.0,-1.0,-3.0,-8.0,2.0,2.0,1650823529353872.0
-1.0,-1.0,-5.0,-4.0,-3.0,-2.0,-2.0,-3.0,1650823529353872.0
1.0,1.0,2.0,2.0,2.0,-1.0,4.0,1.0,1650823529361664.0
2.0,-1.0,-1.0,-2.0,2.0,2.0,0.0,0.0,1650823529361664.0
-2.0,1.0,-1.0,-2.0,-3.0,0.0,-4.0,-3.0,1650823529376595.0
7.0,-1.0,-7.0,-5.0,-4.0,-1.0,-1.0,0.0,1650823529376595.0
-7.0,-6.0,-3.0,1.0,-3.0,0.0,-4.0,0.0,1650823529377565.0
0.0,3.0,1.0,5.0,7.0,7.0,7.0,-1.0,1650823529377565.0
-1.0,1.0,6.0,4.0,2.0,0.0,1.0,-1.0,1650823529398901.0
2.0,-1.0,-1.0,-8.0,6.0,-3.0,-2.0,1.0,1650823529398901.0
-1.0,-2.0,-9.0,-3.0,-17.0,-2.0,-3.0,-2.0,1650823529399898.0
0.0,-2.0,-2.0,-5.0,1.0,-3.0,-3.0,1.0,1650823529399898.0
2.0,1.0,2.0,-2.0,2.0,5.0,3.0,3.0,1650823529412931.0
-2.0,1.0,-3.0,2.0,6.0,6.0,0.0,-1.0,1650823529412931.0
-2.0,-3.0,1.0,3.0,1.0,-8.0,4.0,0.0,1650823529420857.0
-3.0,0.0,1.0,-4.0,4.0,-2.0,-1.0,-2.0,1650823529420857.0
1.0,5.0,4.0,5.0,-7.0,6.0,-2.0,1.0,1650823529436867.0
-2.0,-3.0,-11.0,-5.0,-2.0,0.0,2.0,2.0,1650823529436867.0
-1.0,0.0,3.0,0.0,3.0,1.0,-5.0,-3.0,1650823529437797.0
2.0,-4.0,-3.0,-5.0,-13.0,-10.0,-3.0,-2.0,1650823529437797.0
1.0,-2.0,-3.0,-3.0,6.0,1.0,-1.0,-1.0,1650823529459830.0
-4.0,2.0,1.0,-2.0,-5.0,-1.0,-2.0,0.0,1650823529459830.0
-1.0,0.0,0.0,1.0,9.0,-2.0,-2.0,0.0,1650823529459830.0
1.0,-2.0,4.0,6.0,-13.0,-2.0,0.0,1.0,1650823529459830.0
2.0,-1.0,-5.0,-8.0,2.0,-5.0,2.0,-1.0,1650823529473786.0
-1.0,-2.0,-8.0,1.0,3.0,12.0,-3.0,-1.0,1650823529473786.0
0.0,1.0,2.0,-3.0,-6.0,-13.0,1.0,-2.0,1650823529480842.0
-4.0,-4.0,-6.0,0.0,0.0,-1.0,-3.0,0.0,1650823529480842.0
-4.0,3.0,5.0,0.0,1.0,0.0,0.0,0.0,1650823529496866.0
0.0,-2.0,5.0,-4.0,-14.0,-7.0,-2.0,-3.0,1650823529496866.0
1.0,1.0,1.0,2.0,5.0,12.0,2.0,2.0,1650823529497800.0
0.0,2.0,-1.0,2.0,7.0,4.0,1.0,0.0,1650823529497800.0
2.0,-1.0,0.0,9.0,15.0,5.0,1.0,0.0,1650823529519584.0
-1.0,-2.0,-5.0,2.0,-5.0,-2.0,1.0,0.0,1650823529519584.0
0.0,2.0,1.0,-4.0,-8.0,-4.0,-1.0,-1.0,1650823529520566.0
-3.0,-2.0,6.0,-5.0,-9.0,-6.0,-3.0,-1.0,1650823529520566.0
-3.0,-3.0,-10.0,-9.0,5.0,1.0,-3.0,1.0,1650823529541734.0
1.0,5.0,3.0,-1.0,-22.0,-8.0,-2.0,0.0,1650823529541734.0
-2.0,0.0,-2.0,2.0,2.0,3.0,0.0,0.0,1650823529542732.0
-2.0,-2.0,-1.0,4.0,9.0,5.0,1.0,-1.0,1650823529542732.0
0.0,2.0,10.0,5.0,4.0,2.0,3.0,1.0,1650823529556725.0
-2.0,-6.0,-16.0,-9.0,3.0,-4.0,-4.0,-4.0,1650823529556725.0
-3.0,-4.0,-5.0,-7.0,-5.0,-1.0,-2.0,0.0,1650823529557692.0
0.0,0.0,-6.0,-7.0,-6.0,-4.0,0.0,-1.0,1650823529557692.0
-1.0,-4.0,-1.0,1.0,-8.0,-5.0,-6.0,-2.0,1650823529579694.0
-2.0,2.0,3.0,3.0,4.0,1.0,2.0,0.0,1650823529579694.0
0.0,0.0,3.0,1.0,-2.0,-4.0,-1.0,1.0,1650823529579694.0
3.0,4.0,-2.0,-1.0,2.0,1.0,1.0,1.0,1650823529579694.0
-1.0,-1.0,1.0,6.0,0.0,3.0,5.0,0.0,1650823529593697.0
1.0,3.0,6.0,-2.0,4.0,11.0,2.0,0.0,1650823529593697.0
3.0,1.0,-3.0,8.0,15.0,0.0,2.0,0.0,1650823529601734.0
-1.0,-4.0,-7.0,-7.0,-9.0,-6.0,-1.0,-2.0,1650823529601734.0
-2.0,-4.0,-2.0,-9.0,-9.0,-5.0,-3.0,-2.0,1650823529616696.0
-2.0,-1.0,2.0,1.0,-2.0,-5.0,0.0,0.0,1650823529616696.0
0.0,-1.0,1.0,-2.0,-3.0,1.0,-3.0,-1.0,1650823529617691.0
-2.0,-1.0,-2.0,0.0,-3.0,-3.0,-4.0,-3.0,1650823529617691.0
-1.0,1.0,-4.0,0.0,-20.0,-8.0,1.0,1.0,1650823529639694.0
-1.0,2.0,3.0,4.0,16.0,5.0,3.0,-1.0,1650823529639694.0
1.0,1.0,-1.0,0.0,-4.0,0.0,3.0,2.0,1650823529639694.0
-1.0,-3.0,1.0,5.0,8.0,4.0,-2.0,-1.0,1650823529639694.0
-3.0,-5.0,-4.0,-5.0,10.0,2.0,-4.0,-1.0,1650823529652658.0
0.0,2.0,4.0,3.0,-9.0,-5.0,2.0,2.0,1650823529652658.0
-1.0,-2.0,-5.0,-2.0,2.0,2.0,-3.0,-5.0,1650823529661641.0
-1.0,0.0,1.0,-5.0,-6.0,-5.0,1.0,0.0,1650823529661641.0
0.0,-1.0,-2.0,-1.0,-5.0,-2.0,-2.0,-2.0,1650823529676616.0
-1.0,-2.0,-5.0,-4.0,-1.0,-1.0,-1.0,0.0,1650823529676616.0
-1.0,0.0,1.0,-1.0,-2.0,-4.0,-2.0,-3.0,1650823529676616.0
-2.0,2.0,8.0,7.0,9.0,6.0,4.0,2.0,1650823529676616.0
0.0,2.0,1.0,1.0,2.0,4.0,1.0,0.0,1650823529699513.0
-1.0,2.0,2.0,9.0,21.0,10.0,1.0,1.0,1650823529699513.0
-1.0,-9.0,-15.0,-7.0,-17.0,-5.0,0.0,1.0,1650823529700512.0
0.0,6.0,9.0,-6.0,-9.0,-8.0,-3.0,0.0,1650823529700512.0
-2.0,0.0,1.0,-1.0,-3.0,-4.0,-3.0,-3.0,1650823529721522.0
1.0,2.0,1.0,-3.0,-4.0,-3.0,-4.0,-3.0,1650823529721522.0
-3.0,-1.0,0.0,-1.0,1.0,5.0,-2.0,2.0,1650823529722453.0
1.0,-4.0,-9.0,2.0,9.0,0.0,-3.0,-3.0,1650823529722453.0
-1.0,1.0,1.0,1.0,-9.0,3.0,2.0,-1.0,1650823529736678.0
0.0,-3.0,1.0,0.0,0.0,-2.0,0.0,-1.0,1650823529736678.0
1.0,3.0,4.0,6.0,4.0,2.0,2.0,1.0,1650823529736678.0
1.0,-3.0,-3.0,-3.0,0.0,-3.0,-2.0,1.0,1650823529736678.0
0.0,1.0,-2.0,-1.0,-3.0,-5.0,-2.0,-1.0,1650823529759635.0
1.0,-3.0,-2.0,-2.0,8.0,3.0,1.0,-2.0,1650823529759635.0
-1.0,-1.0,1.0,0.0,-6.0,-4.0,0.0,1.0,1650823529760617.0
-1.0,1.0,2.0,-4.0,-8.0,6.0,0.0,3.0,1650823529760617.0
1.0,-1.0,2.0,15.0,6.0,-3.0,1.0,0.0,1650823529781667.0
0.0,-4.0,-9.0,-9.0,2.0,-2.0,-1.0,2.0,1650823529781667.0
0.0,1.0,4.0,1.0,6.0,1.0,1.0,-2.0,1650823529782671.0
0.0,-1.0,0.0,1.0,2.0,3.0,-1.0,-2.0,1650823529782671.0
0.0,0.0,-4.0,-2.0,-5.0,-1.0,-1.0,1.0,1650823529795781.0
-1.0,-1.0,5.0,2.0,-3.0,0.0,0.0,-1.0,1650823529795781.0
-1.0,0.0,-5.0,-8.0,-4.0,-3.0,-2.0,-1.0,1650823529796752.0
-2.0,-2.0,0.0,-6.0,-14.0,-14.0,-4.0,-2.0,1650823529796752.0
-3.0,0.0,4.0,8.0,9.0,6.0,1.0,0.0,1650823529819803.0
-4.0,-3.0,-8.0,-6.0,6.0,-1.0,-2.0,1.0,1650823529819803.0
-1.0,1.0,3.0,1.0,-5.0,6.0,2.0,-1.0,1650823529819803.0
1.0,0.0,-3.0,-1.0,3.0,6.0,4.0,1.0,1650823529819803.0
1.0,1.0,0.0,-3.0,-1.0,-3.0,0.0,1.0,1650823529841715.0
0.0,-2.0,-1.0,1.0,-7.0,-6.0,-2.0,-1.0,1650823529841715.0
-2.0,-4.0,-3.0,-5.0,3.0,-2.0,-4.0,-1.0,1650823529842685.0
-1.0,0.0,2.0,6.0,-1.0,4.0,2.0,0.0,1650823529842685.0
-4.0,2.0,1.0,-2.0,6.0,3.0,1.0,-3.0,1650823529855734.0
-1.0,0.0,-2.0,2.0,-3.0,0.0,1.0,2.0,1650823529855734.0
0.0,-2.0,1.0,1.0,-2.0,-2.0,-1.0,0.0,1650823529856734.0
0.0,-1.0,-1.0,-3.0,-5.0,-5.0,-2.0,-1.0,1650823529856734.0
2.0,-1.0,-6.0,-5.0,-2.0,-2.0,-3.0,-1.0,1650823529879779.0
1.0,2.0,3.0,-1.0,-7.0,2.0,-1.0,1.0,1650823529879779.0
-2.0,0.0,-5.0,-2.0,-4.0,-10.0,1.0,-3.0,1650823529879779.0
-1.0,-1.0,1.0,-1.0,8.0,5.0,1.0,0.0,1650823529879779.0
0.0,-3.0,-2.0,-2.0,1.0,0.0,-1.0,-1.0,1650823529901710.0
-2.0,0.0,-1.0,1.0,-6.0,0.0,1.0,-2.0,1650823529901710.0
2.0,1.0,4.0,4.0,4.0,4.0,0.0,0.0,1650823529902643.0
-2.0,1.0,-2.0,-3.0,1.0,-1.0,-3.0,-2.0,1650823529902643.0
-3.0,-4.0,-5.0,-2.0,2.0,0.0,-3.0,-1.0,1650823529916606.0
-1.0,0.0,1.0,2.0,0.0,-10.0,0.0,-1.0,1650823529916606.0
0.0,0.0,6.0,-4.0,-10.0,-1.0,-2.0,-2.0,1650823529916606.0
1.0,-1.0,0.0,5.0,2.0,0.0,0.0,0.0,1650823529916606.0
0.0,0.0,-2.0,-5.0,-2.0,3.0,-1.0,0.0,1650823529939613.0
-2.0,-7.0,-13.0,-3.0,-1.0,0.0,-1.0,-2.0,1650823529939613.0
0.0,1.0,3.0,-2.0,-8.0,0.0,0.0,1.0,1650823529940542.0
-2.0,0.0,0.0,2.0,1.0,1.0,1.0,-1.0,1650823529940542.0
3.0,3.0,3.0,1.0,2.0,-4.0,2.0,-1.0,1650823529961731.0
-1.0,-1.0,1.0,-2.0,-4.0,-1.0,0.0,0.0,1650823529961731.0
-1.0,-1.0,-2.0,-2.0,4.0,-2.0,0.0,0.0,1650823529962681.0
-1.0,-1.0,-4.0,-3.0,-7.0,-3.0,-3.0,0.0,1650823529962681.0
0.0,-2.0,10.0,5.0,-1.0,1.0,-1.0,-2.0,1650823529975646.0
-1.0,-2.0,-8.0,-1.0,2.0,-2.0,-1.0,-4.0,1650823529975646.0
-4.0,-5.0,-13.0,-6.0,2.0,7.0,-1.0,0.0,1650823529976643.0
0.0,2.0,2.0,-1.0,-3.0,-1.0,-2.0,-1.0,1650823529976643.0
-2.0,-4.0,-7.0,-11.0,-9.0,-9.0,-5.0,-1.0,1650823529999610.0
2.0,4.0,7.0,3.0,4.0,5.0,3.0,2.0,1650823529999610.0
4.0,5.0,10.0,11.0,11.0,4.0,1.0,-1.0,1650823530000581.0
0.0,-4.0,-10.0,-1.0,-1.0,-1.0,2.0,1.0,1650823530000581.0
-1.0,7.0,5.0,1.0,12.0,13.0,2.0,-1.0,1650823530029702.0
-2.0,-2.0,-1.0,-3.0,-12.0,-15.0,-4.0,-1.0,1650823530029702.0
1.0,1.0,-5.0,-8.0,-4.0,-1.0,0.0,-1.0,1650823530029702.0
1.0,-1.0,3.0,5.0,-4.0,1.0,1.0,0.0,1650823530029702.0
1.0,0.0,-1.0,2.0,-3.0,-4.0,-1.0,1.0,1650823530035648.0
0.0,1.0,5.0,0.0,6.0,4.0,-1.0,0.0,1650823530035648.0
-2.0,-2.0,-5.0,5.0,0.0,1.0,0.0,-1.0,1650823530036616.0
-2.0,-4.0,-3.0,-15.0,-2.0,-5.0,-5.0,-5.0,1650823530036616.0
-1.0,-4.0,-5.0,-4.0,-1.0,-1.0,-1.0,-1.0,1650823530059711.0
-2.0,1.0,-1.0,1.0,-6.0,2.0,0.0,-2.0,1650823530059711.0
-1.0,0.0,3.0,1.0,3.0,-5.0,-1.0,0.0,1650823530060688.0
-1.0,0.0,2.0,-2.0,-7.0,-5.0,-2.0,1.0,1650823530060688.0
-1.0,-2.0,3.0,13.0,9.0,1.0,1.0,-2.0,1650823530081650.0
1.0,-5.0,-3.0,-1.0,3.0,6.0,0.0,0.0,1650823530081650.0
1.0,1.0,1.0,3.0,-2.0,0.0,1.0,0.0,1650823530083618.0
2.0,2.0,2.0,3.0,4.0,3.0,1.0,-1.0,1650823530083618.0
2.0,-1.0,4.0,-7.0,-7.0,-2.0,-2.0,1.0,1650823530095586.0
-1.0,1.0,0.0,-2.0,-5.0,-5.0,-1.0,-2.0,1650823530095586.0
-3.0,-3.0,-5.0,0.0,13.0,7.0,-1.0,-3.0,1650823530104696.0
-2.0,2.0,0.0,2.0,-22.0,-6.0,2.0,0.0,1650823530104696.0
-3.0,-3.0,-7.0,-2.0,0.0,0.0,0.0,-1.0,1650823530119708.0
0.0,2.0,7.0,2.0,2.0,1.0,0.0,0.0,1650823530119708.0
-1.0,-1.0,-1.0,-6.0,-4.0,-1.0,-1.0,-2.0,1650823530120657.0
0.0,0.0,0.0,10.0,19.0,5.0,0.0,2.0,1650823530120657.0
1.0,0.0,1.0,2.0,-2.0,-1.0,0.0,0.0,1650823530141645.0
0.0,-2.0,-4.0,-2.0,-1.0,-1.0,-3.0,0.0,1650823530141645.0
0.0,-2.0,2.0,-2.0,-3.0,-5.0,-3.0,0.0,1650823530143578.0
0.0,-4.0,-1.0,-2.0,2.0,1.0,-1.0,-2.0,1650823530143578.0
-2.0,-1.0,-4.0,0.0,3.0,2.0,1.0,-2.0,1650823530155603.0
0.0,-5.0,-6.0,-6.0,-21.0,-12.0,-1.0,-1.0,1650823530155603.0
2.0,6.0,4.0,1.0,5.0,4.0,-1.0,0.0,1650823530164606.0
1.0,0.0,2.0,8.0,8.0,3.0,4.0,2.0,1650823530164606.0
-1.0,-1.0,-3.0,-6.0,9.0,10.0,0.0,0.0,1650823530179726.0
0.0,2.0,2.0,4.0,-11.0,-5.0,1.0,-1.0,1650823530179726.0
-2.0,-3.0,-2.0,4.0,-3.0,-4.0,0.0,0.0,1650823530180660.0
0.0,1.0,5.0,-10.0,-4.0,0.0,-3.0,-3.0,1650823530180660.0
0.0,-4.0,-5.0,-4.0,-5.0,-4.0,-1.0,-2.0,1650823530202614.0
-2.0,-1.0,1.0,6.0,20.0,10.0,0.0,0.0,1650823530202614.0
0.0,1.0,-3.0,-9.0,-18.0,-5.0,-1.0,0.0,1650823530203602.0
1.0,0.0,-1.0,3.0,6.0,-2.0,0.0,2.0,1650823530203602.0
-1.0,2.0,6.0,3.0,0.0,-1.0,5.0,1.0,1650823530215635.0
0.0,2.0,0.0,-1.0,6.0,6.0,1.0,-1.0,1650823530215635.0
-2.0,2.0,7.0,3.0,0.0,0.0,0.0,-1.0,1650823530224542.0
-1.0,-5.0,-14.0,-2.0,-3.0,-2.0,-2.0,-2.0,1650823530224542.0
-2.0,-1.0,-7.0,-6.0,-14.0,-10.0,-3.0,0.0,1650823530239569.0
0.0,-2.0,1.0,-1.0,1.0,2.0,0.0,-2.0,1650823530239569.0
0.0,0.0,2.0,4.0,8.0,5.0,1.0,0.0,1650823530240519.0
-1.0,1.0,1.0,1.0,0.0,-4.0,-1.0,-2.0,1650823530240519.0
1.0,-2.0,-4.0,-2.0,14.0,2.0,0.0,-1.0,1650823530261583.0
-2.0,5.0,5.0,-1.0,-15.0,-2.0,-3.0,-2.0,1650823530261583.0
-1.0,-4.0,-7.0,-3.0,3.0,0.0,1.0,1.0,1650823530263556.0
-1.0,1.0,1.0,0.0,-6.0,-6.0,-3.0,-1.0,1650823530263556.0
0.0,-1.0,-2.0,4.0,-6.0,0.0,-1.0,-1.0,1650823530275523.0
2.0,0.0,-3.0,-2.0,3.0,6.0,0.0,1.0,1650823530275523.0
-1.0,-14.0,-11.0,-6.0,-8.0,-9.0,-3.0,-2.0,1650823530284501.0
0.0,1.0,8.0,8.0,11.0,7.0,8.0,0.0,1650823530284501.0
-1.0,2.0,8.0,6.0,3.0,-3.0,-1.0,-1.0,1650823530306817.0
-2.0,-1.0,1.0,-3.0,-3.0,-3.0,-3.0,0.0,1650823530306817.0
-2.0,0.0,-2.0,-3.0,-5.0,0.0,-5.0,-4.0,1650823530308765.0
-2.0,-4.0,-2.0,-4.0,-8.0,2.0,-2.0,-1.0,1650823530308765.0
1.0,2.0,2.0,3.0,-4.0,0.0,0.0,2.0,1650823530321777.0
0.0,1.0,5.0,8.0,9.0,0.0,3.0,3.0,1650823530321777.0
1.0,2.0,-4.0,4.0,5.0,-1.0,-1.0,-3.0,1650823530323734.0
-3.0,-2.0,9.0,-4.0,-1.0,-6.0,-3.0,-2.0,1650823530323734.0
-1.0,0.0,-21.0,-6.0,-1.0,5.0,1.0,0.0,1650823530335678.0
-2.0,-4.0,-7.0,-10.0,-7.0,-4.0,-5.0,-5.0,1650823530335678.0
0.0,2.0,1.0,-2.0,9.0,-1.0,1.0,4.0,1650823530344660.0
1.0,3.0,-3.0,2.0,-7.0,4.0,-2.0,1.0,1650823530344660.0
2.0,4.0,19.0,11.0,-3.0,-4.0,5.0,-2.0,1650823530359676.0
-4.0,-9.0,-41.0,-21.0,3.0,-5.0,2.0,3.0,1650823530359676.0
1.0,-1.0,-5.0,-5.0,-6.0,-4.0,0.0,2.0,1650823530360605.0
2.0,5.0,9.0,3.0,5.0,1.0,-1.0,0.0,1650823530360605.0
0.0,1.0,0.0,5.0,-1.0,-1.0,-3.0,1.0,1650823530381614.0
-3.0,-3.0,17.0,-7.0,-4.0,-8.0,-2.0,-3.0,1650823530381614.0
0.0,2.0,-1.0,-2.0,11.0,4.0,-3.0,-2.0,1650823530383545.0
0.0,3.0,11.0,7.0,-13.0,-3.0,-1.0,-1.0,1650823530383545.0
2.0,1.0,-15.0,8.0,13.0,8.0,3.0,3.0,1650823530395580.0
-1.0,-4.0,-6.0,-8.0,-3.0,0.0,-2.0,-2.0,1650823530395580.0
-1.0,1.0,5.0,7.0,-3.0,-1.0,2.0,0.0,1650823530404167.0
1.0,-2.0,-7.0,-5.0,6.0,0.0,-1.0,0.0,1650823530404167.0
-2.0,-1.0,10.0,-4.0,-19.0,-5.0,-6.0,-1.0,1650823530419129.0
0.0,1.0,8.0,2.0,2.0,-5.0,-2.0,1.0,1650823530419129.0
1.0,-2.0,7.0,1.0,-3.0,3.0,3.0,8.0,1650823530425124.0
-1.0,1.0,-6.0,5.0,8.0,3.0,0.0,-5.0,1650823530425124.0
-1.0,-5.0,-4.0,-8.0,-6.0,-4.0,-3.0,1.0,1650823530442135.0
1.0,-1.0,2.0,-2.0,-2.0,-5.0,-5.0,-3.0,1650823530442135.0
0.0,3.0,0.0,-1.0,3.0,-3.0,-2.0,0.0,1650823530443092.0
-2.0,-1.0,4.0,0.0,-8.0,2.0,5.0,-1.0,1650823530443092.0
0.0,3.0,13.0,10.0,18.0,9.0,3.0,-3.0,1650823530455748.0
2.0,2.0,0.0,4.0,-1.0,4.0,2.0,4.0,1650823530455748.0
0.0,-7.0,-8.0,-5.0,-3.0,-1.0,-2.0,-4.0,1650823530464727.0
-1.0,-1.0,0.0,-1.0,3.0,7.0,-1.0,1.0,1650823530464727.0
-1.0,-3.0,-4.0,-13.0,-13.0,-17.0,-2.0,2.0,1650823530479853.0
1.0,2.0,-7.0,4.0,6.0,3.0,-1.0,-1.0,1650823530479853.0
-7.0,-12.0,-25.0,-8.0,-12.0,-4.0,-1.0,-6.0,1650823530480850.0
-2.0,-4.0,-16.0,-7.0,0.0,-1.0,-2.0,-2.0,1650823530480850.0
-2.0,-2.0,4.0,-5.0,-10.0,-3.0,-4.0,1.0,1650823530501794.0
1.0,5.0,21.0,16.0,23.0,16.0,1.0,-1.0,1650823530501794.0
1.0,5.0,-3.0,2.0,0.0,-2.0,2.0,3.0,1650823530503809.0
0.0,1.0,2.0,2.0,-10.0,-4.0,0.0,-2.0,1650823530503809.0
-2.0,-5.0,-11.0,-8.0,-7.0,-1.0,0.0,7.0,1650823530515820.0
-2.0,-6.0,-10.0,-6.0,-8.0,-11.0,-5.0,-3.0,1650823530515820.0
2.0,7.0,21.0,7.0,3.0,6.0,1.0,1.0,1650823530524747.0
2.0,0.0,-9.0,0.0,12.0,2.0,2.0,2.0,1650823530524747.0
-1.0,0.0,2.0,3.0,1.0,-1.0,0.0,-4.0,1650823530546701.0
-1.0,2.0,-1.0,2.0,-8.0,1.0,1.0,0.0,1650823530546701.0
1.0,-4.0,-30.0,-20.0,-6.0,-4.0,-7.0,-8.0,1650823530548668.0
-4.0,-13.0,-28.0,-9.0,-6.0,-13.0,-5.0,-8.0,1650823530548668.0
1.0,-1.0,15.0,3.0,-2.0,0.0,-3.0,-11.0,1650823530561671.0
-2.0,-3.0,-21.0,-3.0,0.0,2.0,1.0,3.0,1650823530561671.0
-1.0,7.0,25.0,5.0,-3.0,-3.0,2.0,-2.0,1650823530563683.0
3.0,4.0,6.0,0.0,8.0,-1.0,-1.0,6.0,1650823530563683.0
1.0,-3.0,-17.0,-3.0,-8.0,2.0,-1.0,-4.0,1650823530584102.0
2.0,7.0,24.0,15.0,8.0,6.0,3.0,-8.0,1650823530584102.0
2.0,-5.0,-11.0,-3.0,4.0,12.0,2.0,14.0,1650823530586100.0
-3.0,-2.0,-12.0,-10.0,-8.0,-17.0,-2.0,2.0,1650823530586100.0
-2.0,-1.0,1.0,1.0,-2.0,-5.0,-6.0,-4.0,1650823530599092.0
0.0,3.0,9.0,5.0,3.0,6.0,14.0,34.0,1650823530599092.0
2.0,2.0,9.0,7.0,7.0,3.0,-9.0,-13.0,1650823530601059.0
2.0,4.0,5.0,7.0,2.0,8.0,4.0,6.0,1650823530601059.0
-1.0,0.0,9.0,2.0,1.0,1.0,-1.0,-3.0,1650823530622162.0
-6.0,-16.0,-21.0,-22.0,-16.0,-14.0,-5.0,-8.0,1650823530622162.0
-4.0,6.0,20.0,11.0,2.0,5.0,-6.0,-6.0,1650823530623093.0
-4.0,-15.0,-23.0,-4.0,4.0,4.0,4.0,12.0,1650823530623093.0
-4.0,-3.0,5.0,-8.0,-7.0,-4.0,1.0,5.0,1650823530635061.0
12.0,12.0,18.0,10.0,4.0,0.0,0.0,3.0,1650823530635061.0
-1.0,-3.0,13.0,9.0,-6.0,-6.0,4.0,5.0,1650823530644103.0
0.0,1.0,23.0,15.0,17.0,7.0,-5.0,-13.0,1650823530644103.0
-8.0,-5.0,-26.0,-25.0,-3.0,3.0,-4.0,-8.0,1650823530658996.0
2.0,1.0,-9.0,5.0,6.0,5.0,6.0,6.0,1650823530658996.0
-3.0,-13.0,-17.0,-15.0,-14.0,-10.0,4.0,-3.0,1650823530660991.0
7.0,14.0,16.0,10.0,-4.0,-1.0,-4.0,10.0,1650823530660991.0
-3.0,-13.0,-16.0,1.0,5.0,1.0,7.0,11.0,1650823530681965.0
3.0,10.0,8.0,4.0,-8.0,-3.0,-2.0,-6.0,1650823530681965.0
2.0,3.0,3.0,-4.0,0.0,-1.0,2.0,-6.0,1650823530682933.0
-5.0,1.0,23.0,9.0,7.0,6.0,4.0,-41.0,1650823530682933.0
3.0,-8.0,-43.0,-28.0,-1.0,-2.0,-4.0,25.0,1650823530711922.0
5.0,-14.0,17.0,4.0,-6.0,4.0,0.0,2.0,1650823530711922.0
0.0,-4.0,-34.0,-1.0,9.0,2.0,14.0,42.0,1650823530713856.0
1.0,19.0,77.0,22.0,-12.0,-6.0,-8.0,-7.0,1650823530713856.0
7.0,20.0,-6.0,14.0,29.0,20.0,7.0,-10.0,1650823530719834.0
-25.0,-50.0,-40.0,-28.0,-25.0,-23.0,-18.0,-30.0,1650823530719834.0
-1.0,-2.0,-16.0,-2.0,4.0,6.0,2.0,-11.0,1650823530720843.0
10.0,17.0,-7.0,4.0,5.0,2.0,4.0,24.0,1650823530720843.0
1.0,4.0,81.0,29.0,-14.0,-14.0,-5.0,7.0,1650823530741923.0
5.0,21.0,5.0,14.0,10.0,8.0,9.0,19.0,1650823530741923.0
-15.0,-39.0,-12.0,-23.0,-15.0,-9.0,-11.0,-50.0,1650823530743866.0
7.0,2.0,-7.0,9.0,3.0,3.0,4.0,23.0,1650823530743866.0
12.0,5.0,-8.0,-4.0,-4.0,-1.0,-3.0,-12.0,1650823530764434.0
-12.0,6.0,5.0,4.0,6.0,-8.0,-8.0,44.0,1650823530764434.0
7.0,18.0,33.0,14.0,6.0,6.0,1.0,-3.0,1650823530766438.0
-19.0,-12.0,-47.0,-11.0,0.0,0.0,10.0,-11.0,1650823530766438.0
-3.0,-8.0,-4.0,-22.0,-13.0,-13.0,0.0,8.0,1650823530779393.0
-7.0,-12.0,-17.0,-5.0,-1.0,5.0,15.0,-1.0,1650823530779393.0
16.0,27.0,42.0,37.0,7.0,-1.0,-20.0,-20.0,1650823530781409.0
0.0,-12.0,-28.0,-27.0,-20.0,-10.0,-8.0,3.0,1650823530781409.0
-14.0,14.0,-2.0,27.0,18.0,3.0,-16.0,-46.0,1650823530801334.0
22.0,27.0,-20.0,-42.0,-21.0,3.0,26.0,51.0,1650823530801334.0
-12.0,-33.0,10.0,0.0,15.0,2.0,2.0,2.0,1650823530803330.0
-4.0,-29.0,-13.0,-26.0,-23.0,-14.0,-3.0,-18.0,1650823530803330.0
-4.0,-5.0,-13.0,14.0,-2.0,-5.0,-10.0,3.0,1650823530824631.0
-3.0,10.0,6.0,-3.0,-2.0,-1.0,-23.0,-51.0,1650823530824631.0
9.0,28.0,42.0,26.0,8.0,6.0,13.0,40.0,1650823530825604.0
0.0,-15.0,-24.0,-32.0,-4.0,2.0,-3.0,-11.0,1650823530825604.0
-2.0,8.0,52.0,27.0,-8.0,-6.0,13.0,14.0,1650823530838636.0
4.0,0.0,-36.0,-30.0,-3.0,-5.0,-9.0,-31.0,1650823530838636.0
-10.0,-37.0,-36.0,-24.0,-20.0,-8.0,16.0,32.0,1650823530845547.0
-9.0,14.0,6.0,41.0,32.0,14.0,11.0,26.0,1650823530845547.0
17.0,20.0,24.0,-2.0,12.0,14.0,17.0,33.0,1650823530862502.0
-3.0,-9.0,29.0,10.0,-2.0,-2.0,2.0,-27.0,1650823530862502.0
5.0,8.0,10.0,3.0,-6.0,-1.0,-1.0,20.0,1650823530863500.0
-12.0,13.0,-25.0,-11.0,-5.0,-2.0,-5.0,-15.0,1650823530863500.0
0.0,-7.0,1.0,9.0,12.0,8.0,-3.0,-39.0,1650823530884443.0
-11.0,-24.0,-37.0,-29.0,-16.0,-10.0,-5.0,6.0,1650823530884443.0
-4.0,14.0,3.0,-1.0,-8.0,-4.0,-2.0,-8.0,1650823530885442.0
10.0,12.0,49.0,51.0,5.0,-6.0,-7.0,10.0,1650823530885442.0
2.0,-1.0,-49.0,-63.0,-10.0,4.0,3.0,-1.0,1650823530898585.0
-11.0,-33.0,-64.0,-21.0,5.0,1.0,-11.0,-23.0,1650823530898585.0
-9.0,17.0,15.0,-5.0,-23.0,-19.0,-36.0,-70.0,1650823530905729.0
11.0,-26.0,-28.0,-24.0,10.0,11.0,43.0,69.0,1650823530905729.0
-1.0,9.0,20.0,29.0,11.0,7.0,14.0,2.0,1650823530923650.0
4.0,17.0,21.0,29.0,9.0,3.0,-3.0,-2.0,1650823530923650.0
-10.0,-10.0,-20.0,-23.0,-8.0,-4.0,-18.0,-37.0,1650823530924613.0
11.0,19.0,23.0,9.0,-7.0,1.0,3.0,-11.0,1650823530924613.0
-2.0,-17.0,-22.0,-14.0,-13.0,-10.0,-6.0,21.0,1650823530944627.0
5.0,10.0,36.0,17.0,12.0,8.0,-2.0,-16.0,1650823530944627.0
10.0,14.0,-5.0,37.0,18.0,8.0,17.0,12.0,1650823530945556.0
-15.0,-18.0,1.0,-60.0,-19.0,-11.0,-26.0,-49.0,1650823530945556.0
-1.0,10.0,56.0,42.0,10.0,4.0,2.0,3.0,1650823530958549.0
0.0,-18.0,-68.0,-16.0,-3.0,-3.0,-8.0,-8.0,1650823530958549.0
8.0,5.0,46.0,-20.0,-14.0,-9.0,0.0,16.0,1650823530965529.0
-1.0,-7.0,-10.0,24.0,5.0,3.0,0.0,-1.0,1650823530965529.0
-11.0,-20.0,-14.0,-35.0,-13.0,-4.0,-10.0,-15.0,1650823530981488.0
8.0,36.0,62.0,51.0,30.0,15.0,8.0,5.0,1650823530981488.0
-2.0,-20.0,-47.0,-29.0,-7.0,-3.0,-2.0,3.0,1650823530983454.0
-7.0,-19.0,-18.0,-24.0,-13.0,-8.0,-4.0,-4.0,1650823530983454.0
2.0,20.0,31.0,25.0,-1.0,-7.0,-13.0,-4.0,1650823531004521.0
8.0,-2.0,1.0,7.0,-5.0,-6.0,13.0,44.0,1650823531004521.0
-21.0,-15.0,-55.0,-18.0,4.0,3.0,1.0,-15.0,1650823531005567.0
-3.0,9.0,22.0,5.0,-4.0,-7.0,-23.0,-55.0,1650823531005567.0
1.0,-8.0,-15.0,4.0,1.0,1.0,1.0,-11.0,1650823531018500.0
-5.0,-1.0,13.0,-2.0,-1.0,3.0,-11.0,-31.0,1650823531018500.0
15.0,10.0,17.0,9.0,-4.0,-3.0,13.0,10.0,1650823531025549.0
7.0,14.0,28.0,15.0,3.0,1.0,-3.0,20.0,1650823531025549.0
-6.0,-27.0,-64.0,-19.0,9.0,7.0,5.0,4.0,1650823531041502.0
0.0,4.0,22.0,6.0,-6.0,4.0,3.0,8.0,1650823531041502.0
1.0,-4.0,-10.0,-7.0,-4.0,-5.0,-1.0,8.0,1650823531043435.0
2.0,14.0,39.0,13.0,-12.0,-9.0,-6.0,-3.0,1650823531043435.0
13.0,14.0,-50.0,-18.0,17.0,12.0,11.0,13.0,1650823531064654.0
-22.0,-55.0,-14.0,-6.0,-7.0,-5.0,-4.0,-2.0,1650823531064654.0
-2.0,17.0,28.0,12.0,12.0,10.0,-4.0,-10.0,1650823531065649.0
2.0,-13.0,-21.0,7.0,-4.0,-1.0,8.0,24.0,1650823531065649.0
1.0,14.0,19.0,-5.0,-10.0,-10.0,2.0,2.0,1650823531077616.0
3.0,25.0,25.0,6.0,0.0,-4.0,-14.0,-10.0,1650823531077616.0
6.0,-12.0,-13.0,3.0,2.0,7.0,22.0,44.0,1650823531086592.0
6.0,1.0,-12.0,-5.0,8.0,-1.0,-19.0,-33.0,1650823531086592.0
-20.0,-18.0,-3.0,-6.0,-11.0,-5.0,-4.0,6.0,1650823531101616.0
4.0,9.0,-3.0,3.0,5.0,6.0,15.0,-3.0,1650823531101616.0
0.0,-5.0,-3.0,-3.0,-2.0,-7.0,-14.0,-1.0,1650823531103547.0
5.0,14.0,-2.0,-1.0,9.0,10.0,15.0,18.0,1650823531103547.0
-2.0,5.0,35.0,12.0,-8.0,-11.0,-10.0,-12.0,1650823531124569.0
-5.0,-10.0,-4.0,-6.0,-10.0,-2.0,11.0,29.0,1650823531124569.0
