,EMG_s0,EMG_s1,EMG_s2,EMG_s3,EMG_s4,EMG_s5,EMG_s6,EMG_s7,timestamp
0,1.0,0.0,1.0,1.0,2.0,0.0,0.0,1.0,1650479185102359.0
1,-1.0,-3.0,0.0,1.0,0.0,-1.0,0.0,-1.0,1650479185102359.0
2,0.0,0.0,0.0,3.0,0.0,-1.0,-2.0,0.0,1650479185107389.0
3,-1.0,0.0,4.0,2.0,0.0,0.0,0.0,-3.0,1650479185107389.0
4,-1.0,0.0,1.0,-1.0,1.0,1.0,0.0,0.0,1650479185108346.0
5,0.0,-1.0,-5.0,-11.0,-2.0,-1.0,-2.0,0.0,1650479185108346.0
6,3.0,2.0,1.0,4.0,-1.0,0.0,-3.0,1.0,1650479185110344.0
7,1.0,0.0,3.0,1.0,0.0,1.0,0.0,0.0,1650479185110344.0
8,-1.0,-1.0,-7.0,-5.0,-2.0,-3.0,-2.0,0.0,1650479185120316.0
9,1.0,1.0,-1.0,-2.0,-2.0,-1.0,1.0,0.0,1650479185120316.0
10,1.0,1.0,-1.0,-5.0,1.0,1.0,2.0,0.0,1650479185131833.0
11,0.0,1.0,1.0,0.0,0.0,0.0,-2.0,1.0,1650479185131833.0
12,-2.0,0.0,1.0,-1.0,0.0,1.0,0.0,-1.0,1650479185135856.0
13,0.0,1.0,-1.0,1.0,0.0,0.0,-2.0,0.0,1650479185135856.0
14,2.0,1.0,-2.0,-2.0,-1.0,-1.0,-1.0,0.0,1650479185150781.0
15,0.0,0.0,-2.0,1.0,-2.0,-2.0,-2.0,-2.0,1650479185150781.0
16,1.0,-1.0,0.0,2.0,0.0,1.0,0.0,0.0,1650479185159827.0
17,1.0,0.0,7.0,6.0,2.0,1.0,1.0,1.0,1650479185159827.0
18,-4.0,-3.0,-3.0,-5.0,-1.0,1.0,-2.0,-2.0,1650479185174869.0
19,-1.0,-3.0,-10.0,-10.0,-2.0,-2.0,0.0,2.0,1650479185174869.0
20,0.0,1.0,13.0,6.0,-1.0,0.0,-1.0,0.0,1650479185180841.0
21,-1.0,-1.0,0.0,5.0,1.0,-1.0,-1.0,-3.0,1650479185180841.0
22,1.0,1.0,1.0,1.0,0.0,0.0,-2.0,-2.0,1650479185198569.0
23,0.0,0.0,-4.0,-4.0,0.0,1.0,1.0,1.0,1650479185198569.0
24,0.0,0.0,-2.0,0.0,0.0,1.0,1.0,1.0,1650479185236765.0
25,-1.0,-2.0,-2.0,-4.0,-1.0,1.0,1.0,0.0,1650479185236765.0
26,-1.0,-3.0,1.0,0.0,-1.0,-1.0,0.0,-2.0,1650479185236765.0
27,-2.0,0.0,-1.0,0.0,0.0,0.0,0.0,-1.0,1650479185236765.0
28,-4.0,-3.0,-1.0,-1.0,1.0,2.0,-2.0,-1.0,1650479185237720.0
29,0.0,0.0,3.0,7.0,0.0,-1.0,-1.0,-1.0,1650479185237720.0
30,-2.0,-3.0,-5.0,-5.0,0.0,1.0,-2.0,-2.0,1650479185240712.0
31,1.0,3.0,-6.0,-6.0,-3.0,-3.0,-2.0,-1.0,1650479185240712.0
32,2.0,1.0,6.0,5.0,-2.0,-1.0,0.0,-2.0,1650479185249825.0
33,1.0,1.0,-11.0,-7.0,-3.0,-3.0,-2.0,0.0,1650479185249825.0
34,-1.0,0.0,2.0,4.0,-1.0,-1.0,1.0,1.0,1650479185255905.0
35,-2.0,-1.0,-1.0,-3.0,0.0,1.0,0.0,1.0,1650479185255905.0
36,-1.0,-1.0,1.0,-1.0,1.0,-2.0,-1.0,-2.0,1650479185264036.0
37,-2.0,-2.0,2.0,0.0,-2.0,-1.0,1.0,-1.0,1650479185264036.0
38,-2.0,1.0,-1.0,-1.0,1.0,-1.0,0.0,-1.0,1650479185278122.0
39,0.0,-1.0,-1.0,2.0,-1.0,0.0,0.0,-1.0,1650479185278122.0
40,1.0,0.0,-5.0,-4.0,-1.0,-1.0,0.0,2.0,1650479185287197.0
41,0.0,1.0,7.0,2.0,2.0,1.0,-1.0,0.0,1650479185287197.0
42,0.0,-3.0,-10.0,-10.0,-5.0,-2.0,-1.0,-2.0,1650479185317126.0
43,-2.0,-3.0,1.0,-2.0,-1.0,-2.0,0.0,1.0,1650479185317126.0
44,0.0,1.0,2.0,5.0,0.0,-1.0,0.0,0.0,1650479185317979.0
45,1.0,1.0,-1.0,0.0,1.0,0.0,-1.0,-1.0,1650479185317979.0
46,-2.0,-2.0,0.0,0.0,-3.0,0.0,0.0,2.0,1650479185322965.0
47,1.0,2.0,2.0,0.0,0.0,1.0,-2.0,-2.0,1650479185322965.0
48,-2.0,-1.0,-1.0,0.0,-2.0,-1.0,-1.0,-1.0,1650479185329946.0
49,-2.0,-3.0,-2.0,-2.0,-1.0,-1.0,-1.0,0.0,1650479185329946.0
50,-2.0,-4.0,-3.0,-2.0,-3.0,-4.0,-3.0,-2.0,1650479185354632.0
51,0.0,0.0,0.0,1.0,-1.0,0.0,0.0,0.0,1650479185354632.0
52,0.0,2.0,1.0,-1.0,1.0,-2.0,-1.0,1.0,1650479185355541.0
53,-2.0,-3.0,1.0,1.0,2.0,0.0,0.0,-1.0,1650479185355541.0
54,1.0,-1.0,1.0,1.0,1.0,0.0,-1.0,0.0,1650479185368983.0
55,-2.0,-2.0,2.0,1.0,0.0,-1.0,1.0,0.0,1650479185368983.0
56,-1.0,-1.0,-3.0,-3.0,0.0,-1.0,1.0,0.0,1650479185370979.0
57,-2.0,-4.0,1.0,-6.0,-1.0,-1.0,-1.0,-1.0,1650479185370979.0
58,4.0,6.0,3.0,9.0,0.0,-2.0,0.0,2.0,1650479185384052.0
59,-1.0,0.0,-4.0,-2.0,-2.0,-1.0,-1.0,-1.0,1650479185384052.0
60,0.0,0.0,-4.0,-2.0,-1.0,-1.0,1.0,1.0,1650479185390960.0
61,2.0,3.0,-4.0,-4.0,-3.0,-1.0,0.0,2.0,1650479185390960.0
62,0.0,1.0,-2.0,-3.0,3.0,2.0,1.0,1.0,1650479185407152.0
63,-1.0,1.0,2.0,3.0,0.0,1.0,-1.0,-2.0,1650479185407152.0
64,0.0,-2.0,-1.0,-4.0,-2.0,2.0,-1.0,-1.0,1650479185407995.0
65,0.0,0.0,2.0,5.0,-1.0,-2.0,-3.0,-1.0,1650479185407995.0
66,0.0,1.0,3.0,1.0,0.0,-1.0,0.0,-1.0,1650479185429194.0
67,0.0,-2.0,-1.0,5.0,0.0,-2.0,-2.0,0.0,1650479185429194.0
68,-1.0,-3.0,-5.0,-7.0,1.0,0.0,0.0,-1.0,1650479185431223.0
69,-1.0,-1.0,-1.0,-2.0,-2.0,0.0,0.0,-1.0,1650479185431223.0
70,0.0,2.0,-3.0,-5.0,-2.0,-1.0,-1.0,0.0,1650479185443535.0
71,1.0,0.0,3.0,6.0,1.0,-1.0,-1.0,0.0,1650479185443535.0
72,1.0,1.0,-1.0,2.0,-4.0,-1.0,-2.0,-2.0,1650479185452439.0
73,-1.0,-1.0,0.0,5.0,0.0,-1.0,-2.0,1.0,1650479185452439.0
74,-1.0,2.0,6.0,-1.0,-1.0,1.0,0.0,-2.0,1650479185466673.0
75,0.0,6.0,-8.0,-7.0,-3.0,-3.0,-1.0,-3.0,1650479185466673.0
76,2.0,1.0,-1.0,-1.0,-2.0,-1.0,-1.0,-1.0,1650479185468542.0
77,-1.0,3.0,3.0,2.0,1.0,0.0,1.0,-1.0,1650479185468542.0
78,1.0,-3.0,-4.0,-2.0,-2.0,-1.0,-2.0,2.0,1650479185489648.0
79,0.0,0.0,6.0,2.0,0.0,-1.0,-2.0,0.0,1650479185489648.0
80,-1.0,-2.0,-4.0,-4.0,0.0,1.0,0.0,0.0,1650479185490553.0
81,-1.0,-3.0,-2.0,-2.0,-1.0,1.0,-2.0,-2.0,1650479185490553.0
82,0.0,0.0,4.0,4.0,2.0,1.0,0.0,-2.0,1650479185503260.0
83,-3.0,-5.0,-1.0,-4.0,0.0,-1.0,-1.0,0.0,1650479185503260.0
84,-2.0,-2.0,2.0,4.0,-1.0,-1.0,1.0,0.0,1650479185511685.0
85,1.0,-1.0,-2.0,-2.0,-1.0,0.0,1.0,-1.0,1650479185511685.0
86,-3.0,-5.0,5.0,2.0,1.0,1.0,0.0,0.0,1650479185527122.0
87,0.0,-2.0,1.0,2.0,0.0,1.0,-1.0,0.0,1650479185527122.0
88,-1.0,1.0,1.0,-1.0,1.0,0.0,-1.0,0.0,1650479185527973.0
89,-1.0,-1.0,-3.0,-1.0,-1.0,-1.0,0.0,0.0,1650479185527973.0
90,0.0,2.0,-2.0,-3.0,0.0,-1.0,-1.0,-2.0,1650479185549232.0
91,-2.0,-2.0,1.0,-1.0,-1.0,-1.0,1.0,0.0,1650479185549232.0
92,0.0,-2.0,-3.0,2.0,-1.0,-2.0,-1.0,0.0,1650479185551229.0
93,0.0,0.0,1.0,-2.0,1.0,-1.0,0.0,-3.0,1650479185551229.0
94,1.0,0.0,-3.0,-4.0,-3.0,-1.0,0.0,0.0,1650479185563048.0
95,0.0,1.0,-3.0,-4.0,-1.0,0.0,-2.0,-2.0,1650479185563048.0
96,-3.0,-5.0,2.0,1.0,1.0,1.0,-1.0,1.0,1650479185572403.0
97,0.0,0.0,3.0,-2.0,1.0,0.0,0.0,1.0,1650479185572403.0
98,-2.0,1.0,0.0,0.0,0.0,-1.0,-1.0,1.0,1650479185586431.0
99,0.0,0.0,-3.0,-4.0,0.0,2.0,0.0,0.0,1650479185586431.0
100,0.0,3.0,-1.0,0.0,0.0,1.0,-1.0,0.0,1650479185588424.0
101,1.0,-1.0,-4.0,-2.0,-2.0,-2.0,0.0,-1.0,1650479185588424.0
102,-1.0,-2.0,-1.0,0.0,0.0,1.0,-1.0,-1.0,1650479185609623.0
103,0.0,-5.0,-2.0,0.0,-2.0,0.0,0.0,-1.0,1650479185609623.0
104,-2.0,-3.0,0.0,-3.0,-2.0,-1.0,-2.0,-2.0,1650479185610510.0
105,1.0,-1.0,-8.0,-11.0,-2.0,-1.0,-1.0,1.0,1650479185610510.0
106,0.0,0.0,4.0,6.0,1.0,0.0,-1.0,0.0,1650479185623504.0
107,0.0,-2.0,2.0,4.0,0.0,0.0,1.0,0.0,1650479185623504.0
108,-1.0,0.0,-4.0,-2.0,0.0,-2.0,0.0,-1.0,1650479185632121.0
109,0.0,4.0,-1.0,0.0,-2.0,-2.0,-1.0,0.0,1650479185632121.0
110,-1.0,1.0,2.0,2.0,0.0,1.0,1.0,-2.0,1650479185646940.0
111,0.0,-1.0,0.0,-1.0,-1.0,-1.0,0.0,1.0,1650479185646940.0
112,0.0,0.0,4.0,0.0,1.0,0.0,0.0,-1.0,1650479185647850.0
113,-1.0,-5.0,-2.0,-1.0,-1.0,0.0,0.0,-2.0,1650479185647850.0
114,0.0,0.0,-6.0,-5.0,-1.0,-1.0,-2.0,-1.0,1650479185669363.0
115,-2.0,0.0,2.0,2.0,1.0,1.0,1.0,0.0,1650479185669363.0
116,2.0,2.0,1.0,1.0,0.0,-1.0,-1.0,0.0,1650479185670226.0
117,-2.0,0.0,-6.0,-4.0,0.0,1.0,0.0,0.0,1650479185670226.0
118,-1.0,-1.0,5.0,5.0,-1.0,-1.0,-1.0,-1.0,1650479185683191.0
119,2.0,9.0,-7.0,-4.0,-3.0,-1.0,-1.0,-3.0,1650479185683191.0
120,-1.0,-1.0,0.0,0.0,-1.0,-1.0,-1.0,0.0,1650479185691839.0
121,-1.0,1.0,1.0,4.0,0.0,0.0,0.0,-1.0,1650479185691839.0
122,1.0,0.0,0.0,1.0,-2.0,-2.0,-1.0,0.0,1650479185707046.0
123,-2.0,1.0,2.0,-1.0,-1.0,1.0,0.0,-1.0,1650479185707046.0
124,0.0,3.0,1.0,-2.0,-1.0,0.0,0.0,0.0,1650479185707886.0
125,1.0,-1.0,-2.0,1.0,-1.0,1.0,0.0,0.0,1650479185707886.0
126,-1.0,0.0,-6.0,-5.0,-2.0,-1.0,-1.0,0.0,1650479185729523.0
127,-1.0,0.0,0.0,-1.0,-1.0,-2.0,0.0,0.0,1650479185729523.0
128,0.0,2.0,4.0,2.0,0.0,-1.0,1.0,0.0,1650479185730518.0
129,-2.0,-3.0,-2.0,-4.0,-2.0,-1.0,-1.0,0.0,1650479185730518.0
130,1.0,3.0,6.0,11.0,1.0,1.0,1.0,1.0,1650479185743155.0
131,-1.0,-3.0,-6.0,-7.0,0.0,0.0,-1.0,1.0,1650479185743155.0
132,-2.0,-3.0,5.0,2.0,-1.0,0.0,0.0,-2.0,1650479185758148.0
133,-1.0,0.0,2.0,0.0,0.0,-1.0,-1.0,-2.0,1650479185758148.0
134,1.0,-1.0,-4.0,-6.0,-2.0,-1.0,0.0,-1.0,1650479185767150.0
135,-1.0,-1.0,2.0,1.0,1.0,0.0,-1.0,-2.0,1650479185767150.0
136,-2.0,1.0,-2.0,-3.0,-1.0,-2.0,0.0,-1.0,1650479185767994.0
137,0.0,-1.0,0.0,1.0,-2.0,-1.0,-1.0,-1.0,1650479185767994.0
138,-2.0,-2.0,0.0,2.0,1.0,-1.0,0.0,-2.0,1650479185789422.0
139,-1.0,2.0,-5.0,-1.0,-1.0,-1.0,1.0,-1.0,1650479185789422.0
140,-1.0,0.0,1.0,-4.0,0.0,0.0,-2.0,-1.0,1650479185791258.0
141,-2.0,0.0,2.0,2.0,2.0,-1.0,0.0,1.0,1650479185791258.0
142,-1.0,-3.0,-4.0,-3.0,-2.0,-1.0,-1.0,0.0,1650479185803541.0
143,0.0,3.0,0.0,0.0,0.0,-2.0,-2.0,-1.0,1650479185803541.0
144,0.0,-1.0,-1.0,2.0,-1.0,-1.0,-1.0,0.0,1650479185811842.0
145,-1.0,-2.0,-6.0,-5.0,-2.0,1.0,1.0,-2.0,1650479185811842.0
146,0.0,2.0,9.0,3.0,-1.0,-3.0,0.0,0.0,1650479185827012.0
147,-1.0,-3.0,-2.0,-2.0,-1.0,0.0,-2.0,0.0,1650479185827012.0
148,1.0,-1.0,-6.0,-3.0,0.0,0.0,-1.0,0.0,1650479185833260.0
149,1.0,1.0,2.0,3.0,-1.0,-2.0,-1.0,0.0,1650479185833260.0
150,-2.0,-2.0,-5.0,-4.0,1.0,2.0,0.0,0.0,1650479185849821.0
151,0.0,-4.0,3.0,0.0,-1.0,0.0,0.0,1.0,1650479185849821.0
152,0.0,-1.0,0.0,-1.0,0.0,-1.0,0.0,-1.0,1650479185850820.0
153,-1.0,1.0,2.0,0.0,-1.0,-1.0,0.0,-1.0,1650479185850820.0
154,-1.0,-2.0,-10.0,-6.0,-3.0,-1.0,-1.0,1.0,1650479185863006.0
155,0.0,1.0,9.0,8.0,2.0,0.0,2.0,-3.0,1650479185863006.0
156,0.0,-3.0,-4.0,-2.0,0.0,0.0,-1.0,-2.0,1650479185872365.0
157,-1.0,0.0,4.0,4.0,-2.0,-1.0,0.0,0.0,1650479185872365.0
158,-1.0,-1.0,1.0,-2.0,2.0,1.0,-1.0,0.0,1650479185887134.0
159,-1.0,-2.0,-5.0,-2.0,-1.0,0.0,0.0,2.0,1650479185887134.0
160,0.0,-1.0,-3.0,0.0,1.0,1.0,1.0,1.0,1650479185887980.0
161,-1.0,-1.0,3.0,2.0,1.0,0.0,-1.0,0.0,1650479185887980.0
162,-1.0,-4.0,2.0,-1.0,0.0,0.0,0.0,0.0,1650479185909568.0
163,3.0,-2.0,2.0,3.0,1.0,0.0,0.0,0.0,1650479185909568.0
164,-3.0,-1.0,-6.0,-5.0,-2.0,-1.0,-2.0,-2.0,1650479185910567.0
165,-2.0,1.0,-3.0,-1.0,-2.0,-2.0,-1.0,-1.0,1650479185910567.0
166,0.0,1.0,-5.0,-1.0,-1.0,1.0,-1.0,1.0,1650479185932333.0
167,0.0,-1.0,-2.0,-2.0,-1.0,-2.0,-1.0,-1.0,1650479185932333.0
168,-1.0,0.0,10.0,7.0,-3.0,-3.0,-2.0,-1.0,1650479185933333.0
169,0.0,-1.0,-4.0,-5.0,-2.0,0.0,-3.0,0.0,1650479185933333.0
170,1.0,1.0,0.0,0.0,-1.0,-2.0,-2.0,0.0,1650479185946896.0
171,-1.0,-3.0,-15.0,-14.0,-2.0,-1.0,0.0,-1.0,1650479185946896.0
172,2.0,1.0,2.0,2.0,-1.0,-1.0,0.0,-1.0,1650479185947896.0
173,-1.0,1.0,4.0,2.0,0.0,-1.0,0.0,-1.0,1650479185947896.0
174,0.0,0.0,0.0,-2.0,-2.0,0.0,0.0,-1.0,1650479185969001.0
175,0.0,-2.0,-3.0,4.0,-1.0,0.0,-3.0,-1.0,1650479185969001.0
176,1.0,1.0,-5.0,-8.0,-2.0,-2.0,-1.0,0.0,1650479185971029.0
177,2.0,0.0,2.0,4.0,0.0,-1.0,0.0,-1.0,1650479185971029.0
178,-3.0,-3.0,-2.0,2.0,1.0,-1.0,0.0,-1.0,1650479185992394.0
179,-1.0,0.0,-3.0,-2.0,-2.0,0.0,0.0,-1.0,1650479185992394.0
180,0.0,-1.0,2.0,0.0,1.0,0.0,0.0,0.0,1650479185993239.0
181,-1.0,1.0,1.0,-1.0,0.0,-1.0,0.0,-1.0,1650479185993239.0
182,-2.0,-3.0,1.0,5.0,-2.0,1.0,-1.0,-2.0,1650479186007131.0
183,-1.0,0.0,3.0,-3.0,-1.0,1.0,-1.0,0.0,1650479186007131.0
184,2.0,4.0,2.0,3.0,-1.0,-1.0,2.0,0.0,1650479186007981.0
185,-1.0,0.0,-1.0,-2.0,2.0,1.0,0.0,-1.0,1650479186007981.0
186,-1.0,0.0,-5.0,-5.0,2.0,1.0,0.0,0.0,1650479186029285.0
187,-2.0,-1.0,5.0,3.0,1.0,0.0,0.0,0.0,1650479186029285.0
188,0.0,-2.0,-6.0,-7.0,-1.0,0.0,0.0,-2.0,1650479186030320.0
189,-1.0,0.0,7.0,10.0,2.0,0.0,-1.0,-2.0,1650479186030320.0
190,2.0,0.0,-1.0,-1.0,-3.0,-2.0,-2.0,-2.0,1650479186051686.0
191,1.0,6.0,-8.0,-2.0,-1.0,-2.0,-2.0,-1.0,1650479186051686.0
192,-3.0,-4.0,-1.0,-2.0,-1.0,0.0,-1.0,-1.0,1650479186053580.0
193,0.0,-1.0,-2.0,-4.0,0.0,2.0,0.0,1.0,1650479186053580.0
194,0.0,0.0,-2.0,-2.0,-2.0,-2.0,-1.0,-2.0,1650479186065956.0
195,1.0,0.0,-1.0,-1.0,-2.0,-1.0,-1.0,0.0,1650479186065956.0
196,-1.0,1.0,-4.0,0.0,0.0,0.0,-2.0,-1.0,1650479186073363.0
197,-1.0,0.0,2.0,-1.0,1.0,-1.0,0.0,0.0,1650479186073363.0
198,0.0,-3.0,-6.0,-7.0,-3.0,0.0,-1.0,-3.0,1650479186089091.0
199,1.0,-2.0,2.0,-1.0,0.0,-1.0,0.0,-1.0,1650479186089091.0
200,-4.0,-4.0,1.0,4.0,2.0,-1.0,0.0,-1.0,1650479186091212.0
201,-1.0,-1.0,-5.0,-4.0,-3.0,-1.0,-1.0,0.0,1650479186091212.0
202,-3.0,1.0,2.0,-2.0,-1.0,-1.0,-1.0,0.0,1650479186112012.0
203,-1.0,-2.0,1.0,2.0,0.0,0.0,0.0,0.0,1650479186112012.0
204,1.0,1.0,3.0,3.0,0.0,0.0,-1.0,1.0,1650479186113013.0
205,1.0,-2.0,-10.0,-9.0,-4.0,-2.0,-2.0,0.0,1650479186113013.0
206,-2.0,-2.0,5.0,2.0,0.0,-1.0,0.0,0.0,1650479186126001.0
207,-3.0,-3.0,-2.0,-2.0,-1.0,0.0,0.0,-1.0,1650479186126001.0
208,0.0,0.0,7.0,6.0,0.0,-3.0,0.0,-1.0,1650479186133529.0
209,-1.0,-1.0,1.0,4.0,1.0,2.0,0.0,0.0,1650479186133529.0
210,2.0,1.0,-5.0,-6.0,1.0,0.0,-1.0,1.0,1650479186156803.0
211,-2.0,1.0,3.0,1.0,0.0,-2.0,-1.0,1.0,1650479186156803.0
212,-1.0,-1.0,-3.0,-3.0,-2.0,-2.0,0.0,0.0,1650479186158798.0
213,1.0,-2.0,-5.0,0.0,-2.0,-1.0,-1.0,-1.0,1650479186158798.0
214,-3.0,-5.0,6.0,4.0,1.0,0.0,0.0,0.0,1650479186172063.0
215,-1.0,0.0,6.0,4.0,0.0,1.0,-1.0,-1.0,1650479186172063.0
216,-4.0,-8.0,-3.0,-7.0,-1.0,1.0,-1.0,0.0,1650479186173062.0
217,0.0,2.0,3.0,4.0,1.0,-1.0,-1.0,0.0,1650479186173062.0
218,-3.0,-5.0,-4.0,-3.0,-2.0,-2.0,0.0,0.0,1650479186186336.0
219,-1.0,-3.0,2.0,1.0,0.0,-1.0,-1.0,-1.0,1650479186186336.0
220,-2.0,1.0,-3.0,-2.0,-1.0,0.0,-1.0,0.0,1650479186193156.0
221,-1.0,-1.0,-3.0,-2.0,0.0,0.0,-1.0,-1.0,1650479186193156.0
222,1.0,1.0,-1.0,-1.0,-1.0,-1.0,-1.0,-1.0,1650479186208154.0
223,0.0,-1.0,1.0,2.0,0.0,-2.0,0.0,-1.0,1650479186208154.0
224,0.0,2.0,-5.0,-6.0,-2.0,1.0,-1.0,1.0,1650479186217006.0
225,-1.0,-1.0,7.0,4.0,-2.0,-1.0,0.0,1.0,1650479186217006.0
226,1.0,2.0,-2.0,0.0,-1.0,1.0,0.0,-2.0,1650479186231909.0
227,-1.0,-1.0,-5.0,-3.0,-1.0,0.0,-1.0,-3.0,1650479186231909.0
228,1.0,3.0,4.0,3.0,-1.0,-2.0,-2.0,-1.0,1650479186232748.0
229,-3.0,-6.0,1.0,-5.0,1.0,-1.0,0.0,-1.0,1650479186232748.0
230,1.0,2.0,1.0,1.0,-1.0,-1.0,1.0,0.0,1650479186254156.0
231,1.0,-2.0,-3.0,1.0,-4.0,-1.0,-2.0,0.0,1650479186254156.0
232,0.0,-1.0,-3.0,-1.0,-1.0,-2.0,-1.0,0.0,1650479186256156.0
233,0.0,1.0,-3.0,-1.0,0.0,1.0,0.0,0.0,1650479186256156.0
234,-2.0,2.0,-1.0,-1.0,-1.0,1.0,-1.0,0.0,1650479186268141.0
235,1.0,-1.0,-1.0,0.0,0.0,1.0,-2.0,1.0,1650479186268141.0
236,0.0,-1.0,0.0,2.0,-1.0,-1.0,0.0,-1.0,1650479186276994.0
237,-3.0,-2.0,-1.0,-6.0,-3.0,0.0,-1.0,0.0,1650479186276994.0
238,1.0,1.0,-1.0,1.0,1.0,0.0,0.0,1.0,1650479186292086.0
239,-2.0,-2.0,-2.0,-2.0,-2.0,-1.0,0.0,0.0,1650479186292086.0
240,-2.0,-8.0,10.0,7.0,3.0,1.0,0.0,2.0,1650479186293085.0
241,1.0,4.0,0.0,0.0,1.0,-1.0,0.0,-1.0,1650479186293085.0
242,-1.0,1.0,-2.0,0.0,0.0,1.0,-1.0,0.0,1650479186314687.0
243,-1.0,0.0,0.0,-1.0,0.0,-1.0,1.0,1.0,1650479186314687.0
244,-1.0,2.0,-8.0,-4.0,0.0,-1.0,0.0,-1.0,1650479186315691.0
245,2.0,4.0,6.0,2.0,-2.0,-2.0,0.0,-2.0,1650479186315691.0
246,-1.0,-3.0,-6.0,-2.0,0.0,0.0,0.0,0.0,1650479186336694.0
247,0.0,1.0,3.0,1.0,-2.0,0.0,-2.0,-1.0,1650479186336694.0
248,1.0,2.0,-4.0,-2.0,-1.0,2.0,-1.0,0.0,1650479186338538.0
249,0.0,2.0,-2.0,-2.0,0.0,0.0,0.0,0.0,1650479186338538.0
250,-1.0,0.0,-3.0,-6.0,-2.0,-2.0,0.0,0.0,1650479186351727.0
251,0.0,1.0,-3.0,0.0,2.0,1.0,-1.0,-1.0,1650479186351727.0
252,0.0,0.0,3.0,2.0,-1.0,-1.0,0.0,-1.0,1650479186353687.0
253,-3.0,-2.0,2.0,-1.0,-1.0,-2.0,-2.0,0.0,1650479186353687.0
254,-1.0,0.0,2.0,1.0,1.0,0.0,0.0,-1.0,1650479186374654.0
255,-1.0,0.0,-2.0,0.0,-2.0,-1.0,0.0,-1.0,1650479186374654.0
256,-1.0,-1.0,-4.0,-4.0,-1.0,-1.0,-1.0,-1.0,1650479186375654.0
257,2.0,-1.0,-4.0,1.0,0.0,0.0,-1.0,-1.0,1650479186375654.0
258,0.0,2.0,-2.0,-3.0,0.0,0.0,-1.0,1.0,1650479186396964.0
259,1.0,-1.0,1.0,-2.0,0.0,-1.0,0.0,0.0,1650479186396964.0
260,0.0,-2.0,-2.0,1.0,-2.0,-1.0,0.0,-2.0,1650479186397861.0
261,0.0,-1.0,-2.0,-2.0,0.0,1.0,-1.0,-2.0,1650479186397861.0
262,-1.0,-1.0,1.0,0.0,-3.0,-3.0,-1.0,0.0,1650479186411961.0
263,-3.0,-6.0,13.0,13.0,3.0,-1.0,1.0,-1.0,1650479186411961.0
264,-2.0,0.0,-8.0,-8.0,0.0,-1.0,-1.0,1.0,1650479186412960.0
265,-1.0,-2.0,-1.0,3.0,-2.0,-1.0,-1.0,-1.0,1650479186412960.0
266,0.0,0.0,1.0,2.0,0.0,0.0,0.0,-1.0,1650479186434590.0
267,-1.0,0.0,-2.0,-4.0,-1.0,-1.0,0.0,0.0,1650479186434590.0
268,1.0,0.0,0.0,0.0,0.0,0.0,0.0,0.0,1650479186435939.0
269,-3.0,0.0,3.0,-1.0,0.0,1.0,0.0,0.0,1650479186435939.0
270,1.0,-1.0,-1.0,4.0,-1.0,-1.0,0.0,-1.0,1650479186457090.0
271,-1.0,2.0,2.0,-2.0,-1.0,-1.0,-1.0,1.0,1650479186457090.0
272,-1.0,-1.0,-3.0,-2.0,-1.0,0.0,-1.0,0.0,1650479186457955.0
273,-1.0,-1.0,-3.0,2.0,0.0,-1.0,-1.0,0.0,1650479186457955.0
274,-3.0,-4.0,4.0,0.0,1.0,-2.0,0.0,0.0,1650479186470921.0
275,-4.0,-5.0,-4.0,-4.0,-1.0,-2.0,0.0,-2.0,1650479186470921.0
276,0.0,0.0,2.0,4.0,0.0,-1.0,-3.0,-1.0,1650479186478039.0
277,-1.0,-3.0,1.0,-4.0,0.0,0.0,-1.0,-2.0,1650479186478039.0
278,0.0,0.0,2.0,1.0,-1.0,-1.0,1.0,-1.0,1650479186494665.0
279,-1.0,-1.0,-6.0,-6.0,-2.0,-1.0,0.0,-1.0,1650479186494665.0
280,1.0,1.0,4.0,3.0,-1.0,-1.0,-1.0,-1.0,1650479186495664.0
281,-1.0,0.0,-2.0,2.0,-2.0,0.0,-1.0,0.0,1650479186495664.0
282,0.0,0.0,0.0,-3.0,0.0,1.0,-1.0,2.0,1650479186517161.0
283,0.0,2.0,-1.0,1.0,0.0,-1.0,0.0,1.0,1650479186517161.0
284,0.0,2.0,-2.0,-1.0,0.0,-1.0,-1.0,-1.0,1650479186518001.0
285,1.0,-1.0,-1.0,-1.0,-2.0,-1.0,1.0,1.0,1650479186518001.0
286,1.0,3.0,-1.0,0.0,-4.0,0.0,0.0,-1.0,1650479186531136.0
287,1.0,-1.0,-5.0,-5.0,0.0,0.0,0.0,0.0,1650479186531136.0
288,0.0,6.0,2.0,0.0,-3.0,-2.0,-1.0,-2.0,1650479186538053.0
289,0.0,-2.0,-5.0,-3.0,2.0,-1.0,0.0,0.0,1650479186538053.0
290,-1.0,-1.0,10.0,7.0,0.0,-1.0,-2.0,-1.0,1650479186554783.0
291,0.0,0.0,-4.0,-4.0,-3.0,-1.0,-1.0,-1.0,1650479186554783.0
292,-1.0,2.0,2.0,2.0,1.0,-2.0,-1.0,-1.0,1650479186555783.0
293,0.0,2.0,-4.0,-3.0,-1.0,-1.0,0.0,-1.0,1650479186555783.0
294,-1.0,2.0,-2.0,-1.0,2.0,-1.0,-1.0,-1.0,1650479186577158.0
295,-4.0,0.0,-1.0,0.0,0.0,0.0,-1.0,-1.0,1650479186577158.0
296,-2.0,-3.0,-2.0,-3.0,-1.0,1.0,1.0,0.0,1650479186578009.0
297,-2.0,-4.0,-2.0,0.0,-1.0,0.0,-1.0,0.0,1650479186578009.0
298,-1.0,0.0,-4.0,-3.0,0.0,1.0,0.0,1.0,1650479186591662.0
299,2.0,1.0,6.0,5.0,-2.0,-1.0,-1.0,-2.0,1650479186591662.0
300,1.0,-3.0,-3.0,-3.0,-2.0,-1.0,-1.0,0.0,1650479186597984.0
301,-3.0,-2.0,1.0,2.0,0.0,0.0,1.0,-1.0,1650479186597984.0
302,0.0,-2.0,-3.0,-1.0,-1.0,-1.0,0.0,-1.0,1650479186614589.0
303,1.0,0.0,-5.0,-4.0,-1.0,-1.0,-2.0,-2.0,1650479186614589.0
304,-1.0,3.0,3.0,3.0,1.0,0.0,1.0,1.0,1650479186615588.0
305,-1.0,-2.0,1.0,-3.0,-2.0,-1.0,-2.0,0.0,1650479186615588.0
306,-1.0,-2.0,-2.0,-2.0,0.0,0.0,-1.0,0.0,1650479186637140.0
307,1.0,0.0,-3.0,-1.0,0.0,0.0,-1.0,0.0,1650479186637140.0
308,-3.0,-3.0,3.0,1.0,2.0,0.0,1.0,1.0,1650479186637999.0
309,-3.0,-6.0,4.0,4.0,0.0,0.0,-1.0,0.0,1650479186637999.0
310,0.0,1.0,0.0,0.0,-2.0,0.0,-1.0,-1.0,1650479186651611.0
311,0.0,-1.0,-4.0,-3.0,1.0,0.0,2.0,0.0,1650479186651611.0
312,1.0,-1.0,-5.0,-5.0,-2.0,0.0,1.0,-2.0,1650479186658336.0
313,0.0,3.0,-3.0,-3.0,-2.0,0.0,0.0,-1.0,1650479186658336.0
314,-3.0,-2.0,5.0,5.0,-1.0,0.0,-1.0,-2.0,1650479186674804.0
315,0.0,-3.0,-3.0,0.0,-1.0,-1.0,0.0,1.0,1650479186674804.0
316,0.0,2.0,-1.0,-1.0,0.0,0.0,-1.0,1.0,1650479186675363.0
317,-1.0,0.0,-2.0,-1.0,0.0,0.0,1.0,0.0,1650479186675363.0
318,1.0,1.0,0.0,-5.0,0.0,1.0,-2.0,0.0,1650479186696310.0
319,-3.0,-1.0,2.0,2.0,-1.0,-1.0,-2.0,0.0,1650479186696310.0
320,-2.0,-4.0,-3.0,-1.0,-2.0,-1.0,0.0,-1.0,1650479186698304.0
321,1.0,2.0,-1.0,0.0,0.0,-3.0,-1.0,-2.0,1650479186698304.0
322,-1.0,-1.0,-6.0,-3.0,-1.0,0.0,1.0,-2.0,1650479186710988.0
323,-1.0,0.0,2.0,2.0,2.0,1.0,0.0,-1.0,1650479186710988.0
324,-1.0,-4.0,-4.0,-3.0,-1.0,1.0,-1.0,-1.0,1650479186718000.0
325,2.0,2.0,0.0,1.0,-2.0,-1.0,-2.0,0.0,1650479186718000.0
326,-1.0,0.0,-2.0,-1.0,-2.0,-2.0,-2.0,-2.0,1650479186734218.0
327,-1.0,-1.0,4.0,1.0,0.0,-1.0,1.0,-1.0,1650479186734218.0
328,1.0,-1.0,-3.0,-1.0,-1.0,0.0,2.0,-2.0,1650479186736247.0
329,0.0,-2.0,-3.0,-2.0,0.0,0.0,-1.0,0.0,1650479186736247.0
330,-1.0,0.0,2.0,1.0,-1.0,-2.0,0.0,-2.0,1650479186756817.0
331,-1.0,1.0,2.0,-2.0,-2.0,-1.0,-1.0,0.0,1650479186756817.0
332,-3.0,-4.0,0.0,4.0,2.0,0.0,-1.0,1.0,1650479186758667.0
333,0.0,-2.0,1.0,3.0,1.0,1.0,1.0,0.0,1650479186758667.0
334,0.0,-1.0,3.0,2.0,-1.0,0.0,-2.0,1.0,1650479186770967.0
335,0.0,0.0,1.0,-1.0,-2.0,0.0,0.0,-1.0,1650479186770967.0
336,1.0,8.0,-2.0,-1.0,-2.0,-2.0,-2.0,-1.0,1650479186778086.0
337,-1.0,-2.0,-2.0,0.0,1.0,0.0,-2.0,-1.0,1650479186778086.0
338,-1.0,-2.0,-6.0,-5.0,0.0,0.0,0.0,0.0,1650479186794820.0
339,0.0,-2.0,3.0,1.0,-1.0,-2.0,-2.0,-1.0,1650479186794820.0
340,0.0,-2.0,0.0,-3.0,-1.0,0.0,-1.0,-1.0,1650479186795821.0
341,0.0,1.0,0.0,1.0,-1.0,-1.0,0.0,0.0,1650479186795821.0
342,1.0,4.0,0.0,-2.0,0.0,1.0,-1.0,1.0,1650479186817133.0
343,1.0,0.0,-6.0,-2.0,-2.0,1.0,-1.0,-1.0,1650479186817133.0
344,-2.0,-3.0,2.0,1.0,0.0,-1.0,-1.0,-2.0,1650479186817987.0
345,-1.0,0.0,-3.0,-1.0,-1.0,-1.0,0.0,-1.0,1650479186817987.0
346,0.0,1.0,6.0,7.0,0.0,0.0,2.0,0.0,1650479186829956.0
347,0.0,-2.0,-5.0,-6.0,-2.0,1.0,0.0,0.0,1650479186829956.0
348,0.0,-2.0,3.0,1.0,-3.0,-1.0,0.0,1.0,1650479186839074.0
349,-1.0,-2.0,-2.0,-2.0,1.0,1.0,1.0,-1.0,1650479186839074.0
350,0.0,-4.0,-1.0,2.0,0.0,-2.0,-1.0,0.0,1650479186861994.0
351,2.0,1.0,-1.0,2.0,-1.0,-2.0,0.0,1.0,1650479186861994.0
352,-2.0,-1.0,-5.0,-4.0,-1.0,-1.0,0.0,-2.0,1650479186863991.0
353,-3.0,-1.0,1.0,-3.0,-1.0,0.0,0.0,0.0,1650479186863991.0
354,-2.0,-1.0,0.0,2.0,-3.0,0.0,0.0,-1.0,1650479186877122.0
355,0.0,0.0,1.0,2.0,0.0,0.0,0.0,-1.0,1650479186877122.0
356,2.0,0.0,1.0,1.0,1.0,0.0,-1.0,-1.0,1650479186877978.0
357,0.0,4.0,2.0,1.0,-1.0,-1.0,-1.0,-1.0,1650479186877978.0
358,-2.0,-1.0,-6.0,-4.0,0.0,-2.0,-1.0,-1.0,1650479186890925.0
359,-2.0,5.0,-6.0,-3.0,-1.0,-1.0,-1.0,-1.0,1650479186890925.0
360,-1.0,-3.0,2.0,1.0,0.0,1.0,0.0,-2.0,1650479186899316.0
361,0.0,0.0,0.0,0.0,0.0,0.0,-1.0,0.0,1650479186899316.0
362,-1.0,-2.0,-6.0,-7.0,-2.0,-2.0,-2.0,-2.0,1650479186914809.0
363,0.0,1.0,-2.0,0.0,2.0,-2.0,-1.0,-1.0,1650479186914809.0
364,1.0,2.0,-2.0,-4.0,-2.0,0.0,0.0,-2.0,1650479186915808.0
365,-1.0,-1.0,-1.0,-1.0,-1.0,-2.0,-2.0,1.0,1650479186915808.0
366,-1.0,-2.0,-4.0,-2.0,0.0,1.0,-1.0,-1.0,1650479186944805.0
367,-2.0,-3.0,6.0,3.0,1.0,-2.0,0.0,0.0,1650479186944805.0
368,-2.0,-2.0,-2.0,1.0,-1.0,0.0,-1.0,-1.0,1650479186945805.0
369,-2.0,-3.0,1.0,-1.0,-1.0,-3.0,0.0,-2.0,1650479186945805.0
370,-4.0,5.0,1.0,0.0,1.0,0.0,1.0,-1.0,1650479186949823.0
371,-2.0,-2.0,1.0,-3.0,-2.0,0.0,0.0,1.0,1650479186949823.0
372,0.0,-1.0,1.0,0.0,2.0,-1.0,1.0,0.0,1650479186959011.0
373,1.0,-1.0,-4.0,1.0,-1.0,-2.0,1.0,-2.0,1650479186959011.0
374,0.0,-1.0,5.0,4.0,0.0,-1.0,-2.0,-1.0,1650479186982014.0
375,-1.0,-1.0,-4.0,-3.0,0.0,0.0,-1.0,-1.0,1650479186982014.0
376,2.0,2.0,3.0,1.0,0.0,0.0,1.0,1.0,1650479186983013.0
377,-3.0,-4.0,3.0,1.0,2.0,0.0,-2.0,-2.0,1650479186983013.0
378,2.0,2.0,-2.0,0.0,-2.0,-1.0,-1.0,1.0,1650479186996177.0
379,-1.0,-1.0,0.0,1.0,0.0,-1.0,-1.0,0.0,1650479186996177.0
380,0.0,0.0,-4.0,-2.0,-2.0,-2.0,-2.0,0.0,1650479186998174.0
381,0.0,-1.0,-6.0,-4.0,-1.0,1.0,0.0,1.0,1650479186998174.0
382,0.0,0.0,3.0,0.0,0.0,1.0,0.0,0.0,1650479187010297.0
383,-1.0,0.0,-4.0,-3.0,-2.0,-2.0,0.0,-2.0,1650479187010297.0
384,-2.0,-2.0,2.0,3.0,0.0,0.0,1.0,0.0,1650479187019000.0
385,-1.0,0.0,0.0,-2.0,-1.0,0.0,-2.0,0.0,1650479187019000.0
386,1.0,-1.0,-6.0,-2.0,0.0,-1.0,-1.0,2.0,1650479187034752.0
387,-1.0,-4.0,-7.0,-7.0,-1.0,-1.0,-1.0,0.0,1650479187034752.0
388,0.0,0.0,0.0,-5.0,-2.0,-1.0,-1.0,0.0,1650479187035319.0
389,0.0,0.0,0.0,5.0,-1.0,0.0,0.0,-1.0,1650479187035319.0
390,2.0,-3.0,-1.0,-1.0,-2.0,-2.0,0.0,0.0,1650479187057275.0
391,2.0,2.0,5.0,2.0,1.0,0.0,0.0,-1.0,1650479187057275.0
392,-2.0,-3.0,-2.0,-1.0,0.0,0.0,-1.0,-1.0,1650479187058123.0
393,-2.0,0.0,-1.0,-4.0,0.0,0.0,1.0,1.0,1650479187058123.0
394,-1.0,0.0,-2.0,0.0,-1.0,0.0,0.0,0.0,1650479187070244.0
395,0.0,0.0,4.0,3.0,-1.0,-1.0,-1.0,-1.0,1650479187070244.0
396,0.0,-2.0,-1.0,-3.0,1.0,-2.0,0.0,-1.0,1650479187079253.0
397,1.0,-2.0,-9.0,-5.0,-5.0,0.0,-1.0,0.0,1650479187079253.0
398,-2.0,-1.0,2.0,5.0,-1.0,1.0,-1.0,-2.0,1650479187093813.0
399,-2.0,-2.0,-4.0,-9.0,-2.0,1.0,0.0,-1.0,1650479187093813.0
400,0.0,2.0,4.0,8.0,-1.0,1.0,0.0,-1.0,1650479187101842.0
401,2.0,1.0,-1.0,-2.0,1.0,0.0,-1.0,0.0,1650479187101842.0
402,0.0,-3.0,0.0,0.0,-2.0,0.0,0.0,-1.0,1650479187117013.0
403,0.0,-1.0,-8.0,-5.0,0.0,-1.0,-1.0,0.0,1650479187117013.0
404,-1.0,-1.0,3.0,3.0,-2.0,-1.0,-1.0,-1.0,1650479187117985.0
405,1.0,1.0,1.0,1.0,-2.0,-4.0,0.0,-2.0,1650479187117985.0
406,1.0,0.0,-2.0,-3.0,2.0,-1.0,0.0,1.0,1650479187139854.0
407,-1.0,0.0,3.0,4.0,0.0,2.0,0.0,0.0,1650479187139854.0
408,-4.0,3.0,-9.0,-5.0,-1.0,-3.0,-1.0,-1.0,1650479187140851.0
409,2.0,3.0,8.0,8.0,-1.0,-1.0,0.0,0.0,1650479187140851.0
410,-1.0,-1.0,-6.0,-5.0,0.0,0.0,1.0,0.0,1650479187153817.0
411,-2.0,-4.0,2.0,0.0,-2.0,-2.0,0.0,-2.0,1650479187153817.0
412,1.0,-1.0,-1.0,1.0,-1.0,0.0,-1.0,0.0,1650479187155812.0
413,-1.0,-3.0,1.0,5.0,0.0,0.0,0.0,-1.0,1650479187155812.0
414,1.0,1.0,0.0,-2.0,-1.0,-1.0,-1.0,-1.0,1650479187177141.0
415,1.0,1.0,-1.0,1.0,1.0,1.0,-1.0,2.0,1650479187177141.0
416,-1.0,-3.0,-8.0,-4.0,-1.0,-1.0,-1.0,-2.0,1650479187177985.0
417,-1.0,-1.0,6.0,1.0,-1.0,-2.0,-1.0,-1.0,1650479187177985.0
418,-2.0,-2.0,1.0,0.0,0.0,0.0,-1.0,0.0,1650479187190937.0
419,2.0,2.0,-3.0,2.0,-1.0,-1.0,-1.0,0.0,1650479187190937.0
420,0.0,-3.0,0.0,-1.0,0.0,1.0,0.0,1.0,1650479187199325.0
421,0.0,1.0,-4.0,-2.0,0.0,0.0,0.0,0.0,1650479187199325.0
422,-2.0,-1.0,-2.0,-3.0,0.0,0.0,-2.0,-1.0,1650479187222156.0
423,-1.0,0.0,3.0,2.0,-2.0,-1.0,0.0,0.0,1650479187222156.0
424,-1.0,-1.0,-2.0,-1.0,-2.0,1.0,0.0,0.0,1650479187222988.0
425,-2.0,0.0,0.0,-1.0,-1.0,-1.0,-1.0,-2.0,1650479187222988.0
426,1.0,1.0,1.0,4.0,-2.0,-2.0,0.0,-1.0,1650479187237214.0
427,-1.0,0.0,0.0,0.0,1.0,0.0,1.0,-1.0,1650479187237214.0
428,-1.0,-4.0,-4.0,-8.0,-1.0,1.0,-2.0,0.0,1650479187238190.0
429,-2.0,0.0,1.0,0.0,-2.0,2.0,0.0,1.0,1650479187238190.0
430,-2.0,-3.0,2.0,7.0,1.0,0.0,0.0,-1.0,1650479187259516.0
431,-3.0,0.0,1.0,-1.0,1.0,2.0,0.0,0.0,1650479187259516.0
432,-2.0,-7.0,8.0,3.0,1.0,0.0,1.0,-1.0,1650479187260516.0
433,-1.0,-1.0,-4.0,-4.0,0.0,-1.0,-2.0,-1.0,1650479187260516.0
434,0.0,-1.0,-4.0,-3.0,-2.0,-1.0,-3.0,-1.0,1650479187274831.0
435,0.0,-1.0,2.0,3.0,-2.0,0.0,-1.0,-1.0,1650479187274831.0
436,-1.0,3.0,-3.0,-4.0,-1.0,0.0,0.0,0.0,1650479187275831.0
437,0.0,0.0,-2.0,-1.0,-2.0,-1.0,0.0,0.0,1650479187275831.0
438,-1.0,-2.0,2.0,-1.0,-2.0,-2.0,-1.0,0.0,1650479187296965.0
439,-1.0,-1.0,-1.0,1.0,2.0,2.0,1.0,1.0,1650479187296965.0
440,-1.0,-1.0,-3.0,1.0,0.0,-1.0,-1.0,-1.0,1650479187297827.0
441,0.0,0.0,-3.0,-2.0,-1.0,1.0,-1.0,0.0,1650479187297827.0
442,-1.0,3.0,6.0,4.0,0.0,-2.0,-1.0,1.0,1650479187319000.0
443,1.0,-1.0,2.0,-3.0,-1.0,0.0,0.0,0.0,1650479187319000.0
444,0.0,0.0,1.0,4.0,-1.0,-3.0,-2.0,-1.0,1650479187320995.0
445,-2.0,-3.0,-1.0,-2.0,0.0,-1.0,-1.0,0.0,1650479187320995.0
446,0.0,1.0,-3.0,-2.0,1.0,2.0,0.0,-1.0,1650479187334209.0
447,0.0,0.0,-2.0,0.0,-1.0,-1.0,0.0,-1.0,1650479187334209.0
448,1.0,2.0,-3.0,-1.0,-1.0,1.0,-1.0,2.0,1650479187336238.0
449,0.0,1.0,0.0,-1.0,1.0,0.0,0.0,0.0,1650479187336238.0
450,0.0,0.0,-1.0,-3.0,0.0,1.0,-1.0,0.0,1650479187357156.0
451,0.0,-3.0,-4.0,-5.0,-1.0,-2.0,0.0,-1.0,1650479187357156.0
452,-2.0,0.0,-3.0,-4.0,-3.0,-2.0,-1.0,-2.0,1650479187358000.0
453,-2.0,-8.0,1.0,-2.0,2.0,-1.0,1.0,-1.0,1650479187358000.0
454,-1.0,-1.0,6.0,10.0,0.0,-2.0,1.0,0.0,1650479187379326.0
455,-1.0,0.0,-1.0,-2.0,-1.0,-2.0,-1.0,-1.0,1650479187379326.0
456,1.0,1.0,0.0,0.0,1.0,-1.0,1.0,0.0,1650479187380341.0
457,-1.0,2.0,-5.0,-3.0,-1.0,0.0,1.0,-1.0,1650479187380341.0
458,0.0,0.0,-4.0,-6.0,-3.0,0.0,0.0,-1.0,1650479187394828.0
459,0.0,-3.0,-1.0,3.0,-1.0,-1.0,-1.0,0.0,1650479187394828.0
460,-1.0,-1.0,2.0,3.0,-1.0,-1.0,-2.0,0.0,1650479187395829.0
461,0.0,0.0,-5.0,-4.0,0.0,0.0,-2.0,-1.0,1650479187395829.0
462,0.0,-2.0,-1.0,-1.0,1.0,-1.0,-1.0,-1.0,1650479187417165.0
463,-1.0,2.0,-1.0,0.0,0.0,-1.0,0.0,1.0,1650479187417165.0
464,0.0,-2.0,4.0,5.0,1.0,0.0,1.0,0.0,1650479187418003.0
465,0.0,0.0,4.0,7.0,0.0,1.0,-1.0,1.0,1650479187418003.0
466,-1.0,-2.0,-6.0,-9.0,-2.0,-1.0,-1.0,2.0,1650479187439154.0
467,-2.0,0.0,1.0,0.0,0.0,1.0,-2.0,-1.0,1650479187439154.0
468,-2.0,-3.0,1.0,-1.0,-1.0,-1.0,0.0,-1.0,1650479187440992.0
469,-1.0,0.0,-7.0,-5.0,-1.0,-2.0,0.0,-2.0,1650479187440992.0
470,-2.0,-1.0,6.0,5.0,-1.0,0.0,1.0,0.0,1650479187454055.0
471,-2.0,-2.0,-2.0,-1.0,-3.0,-2.0,0.0,-1.0,1650479187454055.0
472,1.0,1.0,-3.0,-1.0,-1.0,0.0,0.0,2.0,1650479187460952.0
473,-1.0,-1.0,-1.0,-1.0,-1.0,1.0,-1.0,0.0,1650479187460952.0
474,-3.0,-2.0,-1.0,-4.0,2.0,3.0,1.0,1.0,1650479187477116.0
475,0.0,-1.0,-1.0,0.0,0.0,0.0,0.0,-1.0,1650479187477116.0
476,1.0,1.0,-1.0,-1.0,-1.0,-1.0,-1.0,-2.0,1650479187478008.0
477,1.0,0.0,-2.0,-2.0,-2.0,-2.0,-1.0,-1.0,1650479187478008.0
478,-1.0,1.0,5.0,7.0,0.0,-1.0,-1.0,-1.0,1650479187499269.0
479,1.0,-1.0,-5.0,-5.0,0.0,2.0,-1.0,0.0,1650479187499269.0
480,-2.0,-5.0,3.0,0.0,-1.0,-2.0,0.0,0.0,1650479187500268.0
481,1.0,2.0,5.0,6.0,0.0,1.0,0.0,1.0,1650479187500268.0
482,2.0,0.0,-7.0,-3.0,-2.0,-2.0,-2.0,-1.0,1650479187513919.0
483,1.0,-4.0,1.0,3.0,1.0,1.0,-1.0,0.0,1650479187513919.0
484,-1.0,0.0,-1.0,-3.0,0.0,1.0,1.0,-1.0,1650479187519905.0
485,0.0,-2.0,-1.0,-2.0,-1.0,0.0,-1.0,-1.0,1650479187519905.0
486,0.0,0.0,-1.0,0.0,-1.0,-1.0,0.0,-1.0,1650479187536743.0
487,0.0,-1.0,-2.0,-1.0,-1.0,2.0,0.0,-1.0,1650479187536743.0
488,0.0,1.0,0.0,-2.0,-1.0,-2.0,-2.0,-1.0,1650479187538762.0
489,-2.0,-3.0,0.0,0.0,0.0,0.0,-1.0,-1.0,1650479187538762.0
490,-2.0,-2.0,-3.0,0.0,0.0,-1.0,1.0,-1.0,1650479187559874.0
491,0.0,2.0,1.0,2.0,-1.0,0.0,-2.0,0.0,1650479187559874.0
492,0.0,-2.0,-7.0,-4.0,0.0,0.0,-1.0,-2.0,1650479187560884.0
493,1.0,2.0,8.0,3.0,-1.0,-1.0,1.0,-1.0,1650479187560884.0
494,0.0,-1.0,-5.0,-7.0,-1.0,0.0,-1.0,-1.0,1650479187574182.0
495,-2.0,1.0,-5.0,-3.0,-2.0,-2.0,0.0,-2.0,1650479187574182.0
496,2.0,3.0,-2.0,0.0,-1.0,0.0,-1.0,0.0,1650479187580168.0
497,-1.0,0.0,-5.0,-2.0,0.0,-2.0,0.0,1.0,1650479187580168.0
498,0.0,0.0,0.0,-2.0,0.0,1.0,0.0,-1.0,1650479187596312.0
499,0.0,0.0,5.0,6.0,-1.0,1.0,0.0,-1.0,1650479187596312.0
500,0.0,-1.0,-7.0,-3.0,-2.0,-2.0,0.0,0.0,1650479187598307.0
501,0.0,0.0,-3.0,-8.0,0.0,-2.0,-1.0,-1.0,1650479187598307.0
502,1.0,0.0,2.0,1.0,-1.0,0.0,0.0,1.0,1650479187618999.0
503,-2.0,-1.0,-3.0,-2.0,0.0,0.0,0.0,-1.0,1650479187618999.0
504,2.0,4.0,-2.0,-2.0,-1.0,-1.0,0.0,-1.0,1650479187620994.0
505,-1.0,-1.0,4.0,3.0,1.0,0.0,-1.0,0.0,1650479187620994.0
506,0.0,5.0,-4.0,2.0,0.0,0.0,0.0,-2.0,1650479187634025.0
507,0.0,2.0,-1.0,-5.0,-2.0,-1.0,-1.0,-1.0,1650479187634025.0
508,-2.0,-2.0,3.0,3.0,1.0,1.0,-2.0,1.0,1650479187640447.0
509,-2.0,-7.0,-4.0,-6.0,-2.0,-1.0,1.0,-3.0,1650479187640447.0
510,0.0,1.0,-3.0,2.0,0.0,-1.0,0.0,1.0,1650479187657151.0
511,-1.0,0.0,3.0,1.0,-1.0,-1.0,-1.0,0.0,1650479187657151.0
512,-1.0,-2.0,1.0,0.0,-1.0,-1.0,-1.0,0.0,1650479187657992.0
513,2.0,2.0,-8.0,-1.0,-2.0,-1.0,-1.0,2.0,1650479187657992.0
514,-2.0,-6.0,-1.0,-4.0,-2.0,0.0,-1.0,0.0,1650479187678992.0
515,-1.0,0.0,-2.0,-1.0,0.0,-2.0,0.0,1.0,1650479187678992.0
516,-2.0,0.0,-1.0,-1.0,-1.0,0.0,1.0,0.0,1650479187681017.0
517,-2.0,0.0,13.0,9.0,-1.0,0.0,-2.0,-1.0,1650479187681017.0
518,1.0,-2.0,-5.0,-4.0,-1.0,-1.0,1.0,-1.0,1650479187694208.0
519,1.0,-1.0,-1.0,-7.0,-2.0,-1.0,-1.0,1.0,1650479187694208.0
520,-2.0,-4.0,-1.0,1.0,1.0,1.0,0.0,-1.0,1650479187700350.0
521,-1.0,-1.0,-3.0,-1.0,0.0,1.0,-1.0,-1.0,1650479187700350.0
522,-1.0,-1.0,8.0,4.0,0.0,1.0,-1.0,-1.0,1650479187716327.0
523,-1.0,-1.0,-5.0,-5.0,-2.0,-2.0,-1.0,-1.0,1650479187716327.0
524,-1.0,-4.0,2.0,3.0,-1.0,-1.0,-1.0,-1.0,1650479187718295.0
525,-1.0,1.0,-3.0,-4.0,0.0,-1.0,-1.0,-1.0,1650479187718295.0
526,1.0,0.0,2.0,-2.0,-1.0,-2.0,-1.0,0.0,1650479187739475.0
527,0.0,2.0,3.0,2.0,0.0,1.0,0.0,-2.0,1650479187739475.0
528,0.0,1.0,0.0,-6.0,-2.0,0.0,0.0,1.0,1650479187740475.0
529,-2.0,0.0,-1.0,8.0,1.0,0.0,0.0,0.0,1650479187740475.0
530,0.0,1.0,-2.0,2.0,-5.0,-4.0,-2.0,-1.0,1650479187752443.0
531,-1.0,-1.0,-1.0,1.0,2.0,-1.0,1.0,-1.0,1650479187752443.0
532,0.0,-1.0,1.0,0.0,1.0,0.0,0.0,0.0,1650479187762170.0
533,-1.0,-1.0,-5.0,-6.0,1.0,-1.0,1.0,-1.0,1650479187762170.0
534,2.0,4.0,-5.0,-1.0,-2.0,-1.0,-1.0,0.0,1650479187777516.0
535,0.0,-3.0,-3.0,-3.0,-3.0,-2.0,0.0,-2.0,1650479187777516.0
536,0.0,-1.0,3.0,2.0,-1.0,-1.0,-1.0,0.0,1650479187778356.0
537,0.0,1.0,-1.0,-2.0,-1.0,2.0,1.0,0.0,1650479187778356.0
538,-3.0,-3.0,-3.0,-4.0,-2.0,-2.0,-1.0,0.0,1650479187799768.0
539,-2.0,-1.0,2.0,3.0,2.0,0.0,1.0,1.0,1650479187799768.0
540,-3.0,-9.0,1.0,0.0,3.0,0.0,0.0,0.0,1650479187800610.0
541,-2.0,-2.0,-4.0,1.0,-3.0,0.0,0.0,-1.0,1650479187800610.0
542,-1.0,-1.0,5.0,2.0,0.0,-1.0,1.0,-1.0,1650479187812798.0
543,0.0,-2.0,1.0,-1.0,-1.0,1.0,0.0,1.0,1650479187812798.0
544,0.0,4.0,-4.0,-1.0,-2.0,-1.0,0.0,-1.0,1650479187821838.0
545,0.0,1.0,0.0,2.0,-1.0,-1.0,-2.0,0.0,1650479187821838.0
546,-1.0,-2.0,-1.0,2.0,0.0,3.0,0.0,-1.0,1650479187837134.0
547,0.0,-1.0,-3.0,-2.0,0.0,-2.0,0.0,1.0,1650479187837134.0
548,1.0,1.0,-1.0,-1.0,-3.0,-1.0,0.0,-1.0,1650479187837968.0
549,-1.0,0.0,2.0,-1.0,-1.0,0.0,-1.0,0.0,1650479187837968.0
550,-2.0,-1.0,1.0,-1.0,0.0,0.0,-1.0,-1.0,1650479187859186.0
551,1.0,0.0,4.0,3.0,-1.0,-4.0,2.0,-1.0,1650479187859186.0
552,-2.0,0.0,-3.0,-4.0,1.0,0.0,-1.0,-1.0,1650479187861180.0
553,0.0,-1.0,-5.0,-4.0,0.0,-1.0,2.0,-1.0,1650479187861180.0
554,0.0,-1.0,6.0,6.0,2.0,1.0,-1.0,-1.0,1650479187873427.0
555,-2.0,0.0,0.0,-1.0,-2.0,0.0,-2.0,-1.0,1650479187873427.0
556,-2.0,0.0,2.0,-1.0,0.0,1.0,0.0,0.0,1650479187881495.0
557,1.0,0.0,1.0,1.0,-1.0,-1.0,-1.0,1.0,1650479187881495.0
558,0.0,0.0,-3.0,-4.0,1.0,-1.0,1.0,0.0,1650479187896878.0
559,0.0,1.0,-1.0,2.0,0.0,0.0,-1.0,0.0,1650479187896878.0
560,0.0,0.0,-3.0,2.0,-1.0,-1.0,1.0,-1.0,1650479187897856.0
561,-2.0,-5.0,0.0,-6.0,-1.0,-1.0,0.0,0.0,1650479187897856.0
562,0.0,-2.0,-1.0,-2.0,-2.0,-2.0,0.0,0.0,1650479187918957.0
563,0.0,-6.0,-2.0,0.0,-1.0,2.0,-1.0,-3.0,1650479187918957.0
564,0.0,2.0,0.0,0.0,-1.0,-1.0,-2.0,-2.0,1650479187920928.0
565,1.0,-2.0,-2.0,0.0,0.0,1.0,2.0,-1.0,1650479187920928.0
566,0.0,0.0,-4.0,-6.0,-1.0,-1.0,-1.0,-1.0,1650479187933484.0
567,-1.0,2.0,-3.0,-1.0,0.0,-1.0,1.0,-1.0,1650479187933484.0
568,-1.0,0.0,3.0,5.0,-1.0,-1.0,-1.0,0.0,1650479187941841.0
569,1.0,4.0,0.0,-2.0,-2.0,-2.0,-1.0,1.0,1650479187941841.0
570,-3.0,-4.0,2.0,0.0,0.0,2.0,1.0,-1.0,1650479187956994.0
571,1.0,1.0,-2.0,-4.0,0.0,0.0,0.0,1.0,1650479187956994.0
572,-1.0,0.0,1.0,5.0,1.0,0.0,0.0,0.0,1650479187958000.0
573,1.0,-1.0,-5.0,-9.0,-1.0,-2.0,0.0,1.0,1650479187958000.0
574,1.0,1.0,3.0,3.0,0.0,-1.0,-1.0,0.0,1650479187979382.0
575,-2.0,0.0,-1.0,2.0,-1.0,0.0,-2.0,0.0,1650479187979382.0
576,1.0,-2.0,-6.0,-4.0,-1.0,0.0,0.0,-1.0,1650479187980402.0
577,-2.0,1.0,6.0,7.0,-3.0,0.0,-2.0,-1.0,1650479187980402.0
578,-1.0,1.0,-3.0,-4.0,1.0,0.0,0.0,-1.0,1650479187992350.0
579,-2.0,-2.0,1.0,3.0,-1.0,-3.0,-1.0,0.0,1650479187992350.0
580,-1.0,0.0,2.0,0.0,-1.0,-2.0,-1.0,0.0,1650479188002356.0
581,1.0,-1.0,1.0,2.0,1.0,-2.0,0.0,0.0,1650479188002356.0
582,-1.0,0.0,0.0,0.0,0.0,-2.0,0.0,0.0,1650479188017087.0
583,-1.0,1.0,2.0,2.0,0.0,-1.0,0.0,1.0,1650479188017087.0
584,-2.0,-3.0,-8.0,-5.0,0.0,0.0,1.0,-1.0,1650479188017935.0
585,-2.0,-1.0,5.0,5.0,0.0,-1.0,-1.0,0.0,1650479188017935.0
586,1.0,0.0,-2.0,-1.0,-1.0,0.0,-1.0,-2.0,1650479188039256.0
587,-3.0,-1.0,-2.0,-2.0,1.0,1.0,1.0,-1.0,1650479188039256.0
588,-1.0,-1.0,5.0,1.0,-1.0,-1.0,-1.0,2.0,1650479188041093.0
589,1.0,1.0,-1.0,-1.0,-2.0,1.0,1.0,0.0,1650479188041093.0
590,2.0,-1.0,-3.0,-1.0,-1.0,-2.0,-1.0,-1.0,1650479188053369.0
591,0.0,0.0,1.0,-1.0,0.0,-1.0,0.0,-1.0,1650479188053369.0
592,1.0,0.0,4.0,1.0,-1.0,-1.0,-2.0,0.0,1650479188061837.0
593,0.0,-1.0,6.0,5.0,-1.0,0.0,1.0,-2.0,1650479188061837.0
594,-2.0,-1.0,-11.0,-8.0,-2.0,-1.0,-1.0,0.0,1650479188077155.0
595,1.0,-1.0,-4.0,-4.0,-2.0,0.0,0.0,-2.0,1650479188077155.0
596,1.0,2.0,-4.0,-2.0,0.0,0.0,-1.0,1.0,1650479188078005.0
597,-1.0,1.0,5.0,2.0,0.0,0.0,-2.0,-2.0,1650479188078005.0
598,-1.0,-1.0,1.0,-6.0,-3.0,0.0,-1.0,0.0,1650479188099489.0
599,-1.0,0.0,2.0,6.0,-1.0,1.0,-1.0,-1.0,1650479188099489.0
600,-1.0,-1.0,-1.0,-1.0,1.0,-2.0,-1.0,-1.0,1650479188100495.0
601,-1.0,1.0,-1.0,-1.0,-2.0,-1.0,0.0,0.0,1650479188100495.0
602,-3.0,-1.0,-14.0,-11.0,-4.0,-1.0,0.0,-1.0,1650479188113325.0
603,0.0,0.0,4.0,4.0,-1.0,0.0,-1.0,0.0,1650479188113325.0
604,0.0,0.0,3.0,0.0,-3.0,-1.0,-1.0,-2.0,1650479188121724.0
605,-1.0,0.0,-1.0,-1.0,0.0,1.0,-3.0,-1.0,1650479188121724.0
606,-1.0,-2.0,-2.0,-2.0,-1.0,0.0,1.0,0.0,1650479188137276.0
607,0.0,0.0,-2.0,-4.0,0.0,-1.0,1.0,0.0,1650479188137276.0
608,-1.0,0.0,-2.0,0.0,-1.0,-2.0,-1.0,-1.0,1650479188138169.0
609,-1.0,-4.0,-9.0,-7.0,-1.0,0.0,-1.0,0.0,1650479188138169.0
610,0.0,1.0,6.0,9.0,1.0,0.0,2.0,-2.0,1650479188159297.0
611,0.0,0.0,4.0,2.0,-2.0,0.0,-2.0,-2.0,1650479188159297.0
612,0.0,0.0,-4.0,-5.0,-3.0,-1.0,0.0,0.0,1650479188160329.0
613,-1.0,1.0,-5.0,-5.0,0.0,0.0,-1.0,1.0,1650479188160329.0
614,0.0,-2.0,4.0,4.0,2.0,1.0,0.0,0.0,1650479188173259.0
615,-1.0,-2.0,0.0,-3.0,-2.0,-3.0,0.0,-1.0,1650479188173259.0
616,-1.0,1.0,8.0,6.0,1.0,0.0,-2.0,-1.0,1650479188182251.0
617,-1.0,-2.0,-10.0,-7.0,-4.0,-1.0,0.0,-3.0,1650479188182251.0
618,-1.0,-2.0,-5.0,-1.0,-2.0,-3.0,1.0,1.0,1650479188196782.0
619,-1.0,-1.0,0.0,1.0,2.0,0.0,0.0,0.0,1650479188196782.0
620,2.0,3.0,7.0,3.0,2.0,2.0,-1.0,1.0,1650479188198678.0
621,1.0,-3.0,-6.0,-1.0,1.0,1.0,-1.0,-1.0,1650479188198678.0
622,-1.0,1.0,9.0,15.0,1.0,-1.0,-2.0,1.0,1650479188218997.0
623,-1.0,0.0,-10.0,-23.0,-4.0,-2.0,0.0,-1.0,1650479188218997.0
624,-1.0,-3.0,-8.0,-9.0,-4.0,-1.0,-2.0,-1.0,1650479188221023.0
625,1.0,0.0,3.0,-3.0,-2.0,-1.0,0.0,0.0,1650479188221023.0
626,-2.0,-1.0,5.0,10.0,2.0,1.0,-1.0,-2.0,1650479188248927.0
627,0.0,0.0,-1.0,11.0,4.0,-1.0,1.0,0.0,1650479188248927.0
628,1.0,3.0,4.0,0.0,3.0,1.0,0.0,-2.0,1650479188250825.0
629,2.0,8.0,25.0,29.0,6.0,1.0,1.0,2.0,1650479188250825.0
630,-5.0,-10.0,-36.0,-41.0,-17.0,-6.0,-5.0,-4.0,1650479188256809.0
631,0.0,1.0,8.0,8.0,-1.0,-2.0,-3.0,-1.0,1650479188256809.0
632,1.0,-2.0,-15.0,-3.0,0.0,1.0,1.0,0.0,1650479188257807.0
633,-1.0,-1.0,-6.0,-27.0,-2.0,-1.0,0.0,0.0,1650479188257807.0
634,1.0,6.0,27.0,25.0,6.0,2.0,3.0,0.0,1650479188278882.0
635,0.0,-1.0,-8.0,-6.0,-3.0,0.0,1.0,0.0,1650479188278882.0
636,-3.0,-1.0,-15.0,-20.0,-8.0,-4.0,-2.0,-2.0,1650479188280777.0
637,1.0,6.0,29.0,23.0,6.0,3.0,1.0,1.0,1650479188280777.0
638,1.0,-2.0,-29.0,-16.0,-4.0,0.0,0.0,1.0,1650479188301967.0
639,-6.0,-10.0,-9.0,-5.0,-6.0,-3.0,-5.0,-2.0,1650479188301967.0
640,-1.0,0.0,4.0,10.0,3.0,-1.0,-1.0,-2.0,1650479188302967.0
641,-2.0,0.0,6.0,-1.0,-4.0,-3.0,-2.0,-1.0,1650479188302967.0
642,4.0,9.0,33.0,18.0,7.0,3.0,1.0,3.0,1650479188315963.0
643,2.0,0.0,-3.0,-2.0,3.0,4.0,1.0,3.0,1650479188315963.0
644,-2.0,1.0,3.0,9.0,0.0,1.0,2.0,-1.0,1650479188323411.0
645,-3.0,-4.0,-16.0,-12.0,-6.0,-4.0,-4.0,-2.0,1650479188323411.0
646,1.0,9.0,28.0,7.0,0.0,-8.0,-7.0,0.0,1650479188339636.0
647,1.0,-5.0,-15.0,0.0,6.0,9.0,7.0,6.0,1650479188339636.0
648,-4.0,-2.0,18.0,15.0,-8.0,-10.0,-2.0,0.0,1650479188340514.0
649,0.0,-5.0,-19.0,-24.0,0.0,5.0,6.0,0.0,1650479188340514.0
650,2.0,3.0,24.0,25.0,2.0,1.0,1.0,3.0,1650479188362076.0
651,-1.0,0.0,-18.0,-32.0,-11.0,9.0,2.0,-1.0,1650479188362076.0
652,0.0,-2.0,-14.0,-9.0,3.0,-1.0,3.0,1.0,1650479188363078.0
653,0.0,-1.0,-1.0,12.0,-2.0,-3.0,-1.0,-1.0,1650479188363078.0
654,-2.0,-3.0,-3.0,-9.0,3.0,1.0,-2.0,-2.0,1650479188376306.0
655,1.0,6.0,15.0,12.0,2.0,-5.0,-4.0,-1.0,1650479188376306.0
656,0.0,-1.0,-7.0,-3.0,-4.0,-1.0,-3.0,-1.0,1650479188383327.0
657,-2.0,-1.0,-8.0,-8.0,-10.0,-10.0,-2.0,1.0,1650479188383327.0
658,-1.0,-4.0,-13.0,0.0,4.0,6.0,4.0,0.0,1650479188399495.0
659,-2.0,-1.0,1.0,0.0,1.0,-2.0,0.0,-1.0,1650479188399495.0
660,-1.0,-3.0,-2.0,-5.0,-4.0,-1.0,-3.0,2.0,1650479188400495.0
661,-1.0,-1.0,6.0,10.0,10.0,2.0,3.0,0.0,1650479188400495.0
662,0.0,0.0,-8.0,-6.0,-1.0,4.0,0.0,-1.0,1650479188422276.0
663,0.0,1.0,2.0,11.0,5.0,0.0,0.0,0.0,1650479188422276.0
664,-1.0,-1.0,5.0,-4.0,-5.0,-6.0,-1.0,-3.0,1650479188423276.0
665,-2.0,-3.0,-4.0,-1.0,-1.0,0.0,-2.0,-2.0,1650479188423276.0
666,-3.0,-3.0,-12.0,-5.0,-8.0,-5.0,-2.0,-2.0,1650479188436423.0
667,-1.0,1.0,5.0,0.0,-2.0,-5.0,-4.0,-2.0,1650479188436423.0
668,2.0,1.0,2.0,0.0,7.0,7.0,1.0,1.0,1650479188443540.0
669,-1.0,1.0,-5.0,2.0,0.0,-1.0,-1.0,1.0,1650479188443540.0
670,0.0,-4.0,-7.0,-2.0,0.0,1.0,2.0,-2.0,1650479188459791.0
671,-4.0,-4.0,5.0,3.0,0.0,-4.0,-3.0,-2.0,1650479188459791.0
672,1.0,2.0,3.0,0.0,0.0,1.0,1.0,0.0,1650479188460790.0
673,-4.0,-1.0,-1.0,4.0,1.0,3.0,0.0,-1.0,1650479188460790.0
674,-4.0,-6.0,-8.0,-11.0,-6.0,-7.0,-3.0,-1.0,1650479188489393.0
675,3.0,2.0,2.0,3.0,-2.0,-1.0,-1.0,0.0,1650479188489393.0
676,-1.0,-1.0,-2.0,2.0,0.0,3.0,1.0,-1.0,1650479188491225.0
677,-4.0,-3.0,-4.0,-4.0,-2.0,-2.0,-3.0,-2.0,1650479188491225.0
678,-1.0,1.0,-3.0,-1.0,0.0,-1.0,-3.0,0.0,1650479188495214.0
679,1.0,3.0,5.0,4.0,1.0,1.0,2.0,0.0,1650479188495214.0
680,0.0,-1.0,6.0,2.0,3.0,2.0,2.0,1.0,1650479188504165.0
681,3.0,0.0,-1.0,0.0,0.0,-1.0,-2.0,-2.0,1650479188504165.0
682,-5.0,-3.0,2.0,0.0,2.0,2.0,1.0,1.0,1650479188527152.0
683,2.0,0.0,2.0,1.0,-1.0,-1.0,-1.0,-1.0,1650479188527152.0
684,-1.0,-1.0,-3.0,-1.0,2.0,0.0,-1.0,1.0,1650479188527989.0
685,-1.0,-6.0,-7.0,-5.0,-6.0,-5.0,-3.0,-2.0,1650479188527989.0
686,1.0,-1.0,-7.0,-3.0,2.0,0.0,2.0,1.0,1650479188542276.0
687,-4.0,1.0,-3.0,-10.0,-9.0,-8.0,-7.0,-4.0,1650479188542276.0
688,-1.0,-5.0,-10.0,-2.0,0.0,1.0,0.0,0.0,1650479188543144.0
689,2.0,8.0,10.0,2.0,0.0,0.0,0.0,0.0,1650479188543144.0
690,4.0,7.0,19.0,6.0,1.0,4.0,0.0,0.0,1650479188555832.0
691,-7.0,-25.0,-39.0,-6.0,-4.0,-4.0,-3.0,-4.0,1650479188555832.0
692,1.0,2.0,11.0,8.0,2.0,0.0,1.0,0.0,1650479188563891.0
693,-1.0,-6.0,-17.0,-17.0,-5.0,-1.0,-3.0,0.0,1650479188563891.0
694,0.0,3.0,8.0,4.0,-1.0,-2.0,0.0,-1.0,1650479188578990.0
695,1.0,6.0,12.0,5.0,2.0,1.0,2.0,1.0,1650479188578990.0
696,-1.0,2.0,-3.0,-2.0,-2.0,-2.0,-4.0,-2.0,1650479188581018.0
697,0.0,-1.0,3.0,9.0,1.0,2.0,2.0,-1.0,1650479188581018.0
698,-2.0,-5.0,-7.0,-6.0,1.0,0.0,1.0,0.0,1650479188609131.0
699,2.0,10.0,19.0,8.0,0.0,-1.0,1.0,0.0,1650479188609131.0
700,-1.0,-8.0,-12.0,-3.0,-2.0,-2.0,-1.0,0.0,1650479188610988.0
701,-3.0,-3.0,-14.0,-8.0,-2.0,-1.0,0.0,-1.0,1650479188610988.0
702,-3.0,-3.0,-3.0,0.0,-1.0,-1.0,0.0,-1.0,1650479188614977.0
703,-1.0,-1.0,8.0,6.0,-1.0,-1.0,-1.0,-1.0,1650479188614977.0
704,-2.0,-5.0,-1.0,-2.0,-3.0,-2.0,-1.0,0.0,1650479188624366.0
705,-1.0,1.0,9.0,-2.0,0.0,1.0,0.0,-1.0,1650479188624366.0
706,1.0,-1.0,-8.0,-4.0,-3.0,0.0,-1.0,0.0,1650479188638158.0
707,1.0,-1.0,-10.0,-7.0,0.0,0.0,0.0,-1.0,1650479188638158.0
708,-1.0,3.0,8.0,1.0,-5.0,-2.0,-1.0,-1.0,1650479188646864.0
709,-7.0,-4.0,2.0,6.0,4.0,2.0,0.0,1.0,1650479188646864.0
710,5.0,-3.0,-12.0,-3.0,-2.0,-2.0,1.0,0.0,1650479188662050.0
711,2.0,1.0,-2.0,-8.0,-1.0,-1.0,-3.0,-2.0,1650479188662050.0
712,-2.0,0.0,-1.0,-4.0,1.0,-1.0,4.0,0.0,1650479188663050.0
713,3.0,3.0,0.0,4.0,1.0,0.0,-4.0,-1.0,1650479188663050.0
714,0.0,1.0,1.0,2.0,2.0,1.0,3.0,-2.0,1650479188675909.0
715,1.0,1.0,9.0,6.0,1.0,0.0,-1.0,0.0,1650479188675909.0
716,-9.0,2.0,0.0,0.0,-1.0,-2.0,-1.0,-2.0,1650479188684207.0
717,6.0,0.0,-1.0,-4.0,-4.0,-2.0,1.0,0.0,1650479188684207.0
718,-4.0,-5.0,1.0,3.0,1.0,-1.0,-1.0,0.0,1650479188699407.0
719,2.0,0.0,-4.0,-2.0,2.0,2.0,2.0,2.0,1650479188699407.0
720,1.0,0.0,2.0,-2.0,3.0,0.0,-2.0,-1.0,1650479188700406.0
721,-4.0,1.0,4.0,2.0,-5.0,-4.0,1.0,-1.0,1650479188700406.0
722,5.0,6.0,-8.0,-8.0,-4.0,-2.0,-1.0,-1.0,1650479188721839.0
723,-1.0,-3.0,3.0,2.0,1.0,1.0,0.0,-1.0,1650479188721839.0
724,0.0,-5.0,-4.0,-3.0,2.0,2.0,-4.0,-3.0,1650479188722812.0
725,-2.0,-4.0,-7.0,5.0,1.0,0.0,0.0,-2.0,1650479188722812.0
726,-5.0,-4.0,11.0,16.0,6.0,-1.0,-2.0,-2.0,1650479188735259.0
727,-7.0,0.0,-7.0,-22.0,-15.0,-11.0,-8.0,-4.0,1650479188735259.0
728,5.0,4.0,-1.0,-21.0,-5.0,0.0,5.0,3.0,1650479188744157.0
729,1.0,-4.0,-5.0,-2.0,2.0,-1.0,-1.0,0.0,1650479188744157.0
730,-2.0,-1.0,-4.0,-2.0,-2.0,-1.0,0.0,0.0,1650479188759808.0
731,4.0,4.0,6.0,15.0,4.0,2.0,3.0,0.0,1650479188759808.0
732,0.0,-1.0,1.0,6.0,2.0,1.0,-2.0,-1.0,1650479188760808.0
733,0.0,0.0,-1.0,-9.0,-3.0,-1.0,-5.0,-2.0,1650479188760808.0
734,-2.0,5.0,3.0,0.0,0.0,1.0,0.0,-1.0,1650479188782028.0
735,-4.0,-8.0,-4.0,0.0,-1.0,-1.0,-2.0,-1.0,1650479188782028.0
736,0.0,3.0,0.0,1.0,-1.0,0.0,-1.0,0.0,1650479188783028.0
737,4.0,4.0,7.0,8.0,6.0,3.0,3.0,1.0,1650479188783028.0
738,1.0,-3.0,-2.0,-4.0,-6.0,-2.0,-9.0,-3.0,1650479188804683.0
739,2.0,3.0,2.0,2.0,2.0,4.0,4.0,2.0,1650479188804683.0
740,-1.0,2.0,6.0,3.0,-2.0,-1.0,-1.0,0.0,1650479188805683.0
741,-2.0,-1.0,0.0,-4.0,-3.0,-3.0,-6.0,-2.0,1650479188805683.0
742,0.0,-5.0,-10.0,-10.0,0.0,1.0,-2.0,-2.0,1650479188819329.0
743,0.0,-4.0,-6.0,-4.0,0.0,0.0,1.0,-1.0,1650479188819329.0
744,-5.0,-1.0,2.0,11.0,2.0,-1.0,-2.0,1.0,1650479188821183.0
745,5.0,3.0,2.0,-1.0,-2.0,0.0,1.0,-1.0,1650479188821183.0
746,-2.0,1.0,0.0,0.0,-1.0,0.0,1.0,2.0,1650479188841464.0
747,-1.0,1.0,5.0,8.0,5.0,3.0,2.0,1.0,1650479188841464.0
748,-4.0,-3.0,-7.0,-7.0,-1.0,-1.0,-1.0,-3.0,1650479188843478.0
749,-5.0,-2.0,6.0,8.0,2.0,1.0,-1.0,-1.0,1650479188843478.0
750,4.0,2.0,0.0,15.0,4.0,1.0,2.0,2.0,1650479188855833.0
751,5.0,3.0,1.0,-13.0,-6.0,-2.0,0.0,2.0,1650479188855833.0
752,0.0,-2.0,-11.0,-2.0,-3.0,-2.0,1.0,0.0,1650479188863870.0
753,-3.0,-3.0,-8.0,-20.0,-7.0,0.0,1.0,-1.0,1650479188863870.0
754,-3.0,-2.0,6.0,1.0,2.0,-1.0,-1.0,-3.0,1650479188878839.0
755,-4.0,-1.0,3.0,15.0,4.0,0.0,-1.0,-1.0,1650479188878839.0
756,2.0,0.0,-1.0,0.0,0.0,1.0,-2.0,-3.0,1650479188886990.0
757,2.0,5.0,-1.0,4.0,1.0,-2.0,2.0,1.0,1650479188886990.0
758,-8.0,0.0,2.0,5.0,1.0,-1.0,-1.0,-1.0,1650479188901848.0
759,1.0,2.0,-1.0,6.0,1.0,-1.0,-1.0,0.0,1650479188901848.0
760,13.0,2.0,-4.0,-14.0,-4.0,-1.0,2.0,6.0,1650479188902850.0
761,-4.0,-2.0,2.0,1.0,0.0,-1.0,0.0,-2.0,1650479188902850.0
762,0.0,2.0,-6.0,-7.0,0.0,0.0,-2.0,1.0,1650479188915939.0
763,-7.0,-4.0,-3.0,-7.0,-5.0,-5.0,-4.0,-4.0,1650479188915939.0
764,-3.0,0.0,6.0,14.0,4.0,1.0,-8.0,-4.0,1650479188932248.0
765,8.0,3.0,5.0,1.0,-1.0,2.0,14.0,8.0,1650479188932248.0
766,0.0,0.0,1.0,-9.0,-4.0,-1.0,-1.0,-2.0,1650479188939393.0
767,-1.0,0.0,0.0,3.0,2.0,2.0,3.0,0.0,1650479188939393.0
768,2.0,2.0,1.0,4.0,3.0,-1.0,-4.0,-2.0,1650479188941250.0
769,-2.0,-4.0,2.0,8.0,1.0,-3.0,-8.0,-4.0,1650479188941250.0
770,-4.0,-3.0,0.0,-3.0,-3.0,-1.0,2.0,-1.0,1650479188962034.0
771,3.0,3.0,-2.0,-3.0,-2.0,-1.0,-2.0,-2.0,1650479188962034.0
772,3.0,-2.0,-3.0,-6.0,-1.0,0.0,2.0,1.0,1650479188963034.0
773,-3.0,-2.0,-3.0,3.0,3.0,2.0,0.0,-1.0,1650479188963034.0
774,-5.0,0.0,2.0,1.0,1.0,-1.0,1.0,1.0,1650479188975238.0
775,2.0,-2.0,-1.0,-8.0,-2.0,1.0,-1.0,1.0,1650479188975238.0
776,-4.0,0.0,-8.0,0.0,-1.0,0.0,6.0,4.0,1650479188984267.0
777,2.0,-3.0,1.0,0.0,0.0,1.0,-2.0,0.0,1650479188984267.0
778,0.0,-1.0,-1.0,-3.0,-3.0,-2.0,-6.0,-2.0,1650479188999626.0
779,-2.0,0.0,3.0,3.0,2.0,1.0,3.0,-1.0,1650479188999626.0
780,0.0,-1.0,5.0,7.0,1.0,-2.0,-2.0,-3.0,1650479189000626.0
781,-1.0,2.0,-4.0,-6.0,4.0,4.0,8.0,6.0,1650479189000626.0
782,4.0,-2.0,-3.0,3.0,-1.0,1.0,-2.0,0.0,1650479189021998.0
783,-5.0,-3.0,-11.0,-18.0,-9.0,-5.0,-3.0,-1.0,1650479189021998.0
784,4.0,1.0,-1.0,-1.0,1.0,3.0,5.0,-2.0,1650479189022997.0
785,-4.0,-1.0,10.0,12.0,-1.0,-4.0,-1.0,-4.0,1650479189022997.0
786,3.0,0.0,-1.0,-2.0,2.0,0.0,2.0,4.0,1650479189035832.0
787,3.0,-3.0,-2.0,0.0,2.0,1.0,1.0,3.0,1650479189035832.0
788,-6.0,-3.0,-7.0,-7.0,-3.0,-7.0,-17.0,-3.0,1650479189044205.0
789,5.0,-2.0,-3.0,-4.0,0.0,5.0,8.0,1.0,1650479189044205.0
790,-1.0,1.0,-1.0,0.0,-1.0,0.0,11.0,0.0,1650479189058679.0
791,1.0,1.0,6.0,5.0,-2.0,-4.0,-3.0,-3.0,1650479189058679.0
792,-4.0,-4.0,-3.0,-2.0,-5.0,1.0,1.0,0.0,1650479189065629.0
793,-4.0,-2.0,3.0,-3.0,-2.0,-2.0,5.0,0.0,1650479189065629.0
794,0.0,1.0,0.0,-4.0,-3.0,-3.0,-2.0,-2.0,1650479189082043.0
795,-1.0,-1.0,-4.0,0.0,2.0,4.0,-1.0,-1.0,1650479189082043.0
796,-2.0,-2.0,-6.0,0.0,0.0,-5.0,-7.0,-3.0,1650479189083058.0
797,-1.0,0.0,-4.0,-9.0,-5.0,-2.0,2.0,1.0,1650479189083058.0
798,0.0,-1.0,-2.0,-2.0,-2.0,0.0,1.0,0.0,1650479189095533.0
799,2.0,-1.0,1.0,3.0,0.0,-3.0,-15.0,-3.0,1650479189095533.0
800,-1.0,1.0,5.0,2.0,1.0,4.0,22.0,2.0,1650479189103856.0
801,0.0,-1.0,-9.0,-3.0,0.0,-2.0,-11.0,-4.0,1650479189103856.0
802,-1.0,-1.0,2.0,-3.0,-1.0,-1.0,-2.0,-2.0,1650479189118156.0
803,6.0,3.0,1.0,3.0,0.0,0.0,4.0,2.0,1650479189118156.0
804,-9.0,-2.0,3.0,4.0,0.0,-4.0,-12.0,-4.0,1650479189125742.0
805,3.0,-2.0,-11.0,-12.0,-1.0,3.0,7.0,2.0,1650479189125742.0
806,-5.0,-7.0,12.0,19.0,-2.0,-6.0,-5.0,-8.0,1650479189142006.0
807,-3.0,-1.0,2.0,2.0,0.0,-3.0,-7.0,-4.0,1650479189142006.0
808,3.0,3.0,4.0,2.0,1.0,3.0,3.0,1.0,1650479189143006.0
809,-7.0,-3.0,-8.0,-6.0,-1.0,-4.0,-2.0,-3.0,1650479189143006.0
810,4.0,-3.0,-10.0,-12.0,-1.0,0.0,-5.0,1.0,1650479189164482.0
811,0.0,1.0,-4.0,-4.0,0.0,0.0,5.0,3.0,1650479189164482.0
812,1.0,-1.0,6.0,3.0,-4.0,-2.0,-1.0,-1.0,1650479189165484.0
813,-2.0,3.0,6.0,1.0,-3.0,0.0,2.0,0.0,1650479189165484.0
814,2.0,3.0,-3.0,1.0,3.0,3.0,3.0,4.0,1650479189178853.0
815,-2.0,-6.0,-5.0,-12.0,-4.0,-1.0,5.0,1.0,1650479189178853.0
816,-1.0,1.0,7.0,19.0,3.0,-2.0,-1.0,-1.0,1650479189185756.0
817,3.0,-2.0,-12.0,-10.0,-6.0,-10.0,-14.0,-6.0,1650479189185756.0
818,-1.0,3.0,5.0,2.0,1.0,7.0,5.0,4.0,1650479189202535.0
819,3.0,5.0,-9.0,-12.0,3.0,6.0,27.0,7.0,1650479189202535.0
820,-1.0,3.0,8.0,3.0,0.0,2.0,-1.0,1.0,1650479189203537.0
821,1.0,-7.0,4.0,9.0,1.0,-3.0,-7.0,-2.0,1650479189203537.0
822,2.0,-1.0,-3.0,-4.0,-2.0,-3.0,-5.0,0.0,1650479189224733.0
823,-4.0,1.0,0.0,1.0,0.0,0.0,-1.0,1.0,1650479189224733.0
824,-1.0,-3.0,-2.0,-4.0,-1.0,-1.0,0.0,-2.0,1650479189225737.0
825,-1.0,3.0,5.0,11.0,3.0,2.0,-1.0,-2.0,1650479189225737.0
826,1.0,0.0,-2.0,-13.0,-5.0,-4.0,0.0,0.0,1650479189239016.0
827,-2.0,-4.0,-1.0,9.0,-1.0,-2.0,-16.0,-3.0,1650479189239016.0
828,1.0,-3.0,-11.0,-16.0,-5.0,0.0,13.0,3.0,1650479189244875.0
829,2.0,7.0,5.0,1.0,1.0,1.0,-2.0,1.0,1650479189244875.0
830,-1.0,-2.0,-2.0,-1.0,1.0,-2.0,1.0,1.0,1650479189262010.0
831,-2.0,-8.0,4.0,8.0,-3.0,-4.0,-6.0,-4.0,1650479189262010.0
832,-2.0,-5.0,-1.0,-2.0,1.0,3.0,-1.0,1.0,1650479189263010.0
833,-2.0,2.0,3.0,6.0,8.0,3.0,-1.0,0.0,1650479189263010.0
834,5.0,9.0,0.0,-1.0,-9.0,-5.0,-2.0,-2.0,1650479189284563.0
835,0.0,-3.0,1.0,-1.0,-1.0,4.0,0.0,-1.0,1650479189284563.0
836,0.0,-1.0,-5.0,-4.0,-2.0,2.0,0.0,-1.0,1650479189285564.0
837,-3.0,0.0,-2.0,-4.0,-4.0,-2.0,5.0,1.0,1650479189285564.0
838,-6.0,-3.0,-3.0,4.0,-1.0,-9.0,-12.0,-7.0,1650479189299078.0
839,7.0,8.0,-2.0,4.0,1.0,2.0,4.0,5.0,1650479189299078.0
840,0.0,-6.0,6.0,0.0,0.0,2.0,1.0,1.0,1650479189305942.0
841,-2.0,-1.0,0.0,-1.0,-8.0,-6.0,-6.0,-4.0,1650479189305942.0
842,-2.0,-5.0,-4.0,-6.0,-2.0,-2.0,3.0,-1.0,1650479189322802.0
843,-4.0,1.0,2.0,-1.0,0.0,-1.0,0.0,-1.0,1650479189322802.0
844,4.0,2.0,-4.0,-3.0,1.0,0.0,2.0,1.0,1650479189323837.0
845,0.0,0.0,5.0,7.0,1.0,-1.0,-3.0,-1.0,1650479189323837.0
846,-4.0,2.0,3.0,2.0,1.0,1.0,0.0,-1.0,1650479189344803.0
847,-5.0,-11.0,-7.0,-2.0,-1.0,-2.0,2.0,-2.0,1650479189344803.0
848,-5.0,0.0,-6.0,-9.0,-3.0,-9.0,-5.0,-3.0,1650479189345834.0
849,0.0,0.0,-1.0,2.0,2.0,6.0,2.0,1.0,1650479189345834.0
850,2.0,-1.0,-2.0,-14.0,-9.0,16.0,4.0,2.0,1650479189359080.0
851,-1.0,6.0,8.0,9.0,0.0,-6.0,-3.0,-3.0,1650479189359080.0
852,1.0,8.0,-2.0,-5.0,0.0,1.0,-2.0,-2.0,1650479189365938.0
853,-2.0,-19.0,-10.0,-1.0,1.0,-7.0,-3.0,-4.0,1650479189365938.0
854,-3.0,0.0,4.0,3.0,2.0,-6.0,-1.0,-1.0,1650479189382140.0
855,2.0,0.0,-5.0,3.0,-1.0,-5.0,1.0,5.0,1650479189382140.0
856,-6.0,-8.0,-3.0,-6.0,1.0,7.0,2.0,0.0,1650479189382979.0
857,1.0,0.0,3.0,5.0,-1.0,0.0,-3.0,0.0,1650479189382979.0
858,4.0,16.0,8.0,9.0,6.0,2.0,5.0,0.0,1650479189404838.0
859,1.0,-5.0,-2.0,-7.0,-2.0,-6.0,-3.0,-4.0,1650479189404838.0
860,-5.0,-28.0,-8.0,3.0,-1.0,-8.0,-4.0,-4.0,1650479189405833.0
861,0.0,4.0,3.0,9.0,17.0,13.0,6.0,1.0,1650479189405833.0
862,3.0,-3.0,-7.0,-16.0,-12.0,-2.0,-1.0,2.0,1650479189418273.0
863,-4.0,4.0,2.0,-3.0,-6.0,-4.0,-2.0,-3.0,1650479189418273.0
864,0.0,6.0,4.0,9.0,-4.0,-5.0,-1.0,-2.0,1650479189427001.0
865,-2.0,-4.0,-6.0,-25.0,-11.0,-6.0,-3.0,-5.0,1650479189427001.0
866,-3.0,-9.0,2.0,11.0,11.0,-3.0,-2.0,-5.0,1650479189442014.0
867,-4.0,10.0,23.0,16.0,7.0,8.0,6.0,5.0,1650479189442014.0
868,6.0,-7.0,-38.0,-34.0,-18.0,-4.0,1.0,8.0,1650479189443013.0
869,2.0,-6.0,-12.0,-2.0,15.0,9.0,1.0,3.0,1650479189443013.0
870,8.0,7.0,-2.0,1.0,1.0,-1.0,0.0,-2.0,1650479189464800.0
871,-12.0,7.0,24.0,14.0,-4.0,-2.0,-5.0,-9.0,1650479189464800.0
872,-1.0,-4.0,7.0,9.0,8.0,2.0,-1.0,-2.0,1650479189465800.0
873,11.0,-3.0,-9.0,7.0,-4.0,-2.0,1.0,6.0,1650479189465800.0
874,-14.0,-3.0,-12.0,-22.0,-5.0,-2.0,-4.0,-5.0,1650479189477997.0
875,-4.0,-6.0,2.0,-8.0,3.0,6.0,2.0,-2.0,1650479189477997.0
876,1.0,9.0,16.0,12.0,5.0,1.0,-1.0,0.0,1650479189486991.0
877,-9.0,1.0,-40.0,-37.0,-18.0,-10.0,-4.0,-7.0,1650479189486991.0
878,2.0,-13.0,19.0,34.0,4.0,2.0,1.0,2.0,1650479189502038.0
879,-4.0,-9.0,-28.0,-21.0,-2.0,-5.0,-2.0,-2.0,1650479189502038.0
880,-1.0,11.0,7.0,-9.0,-5.0,4.0,-3.0,-3.0,1650479189503040.0
881,1.0,5.0,15.0,5.0,-6.0,-11.0,-1.0,1.0,1650479189503040.0
882,-2.0,-1.0,-13.0,6.0,16.0,11.0,1.0,2.0,1650479189524024.0
883,6.0,4.0,8.0,-1.0,-9.0,-9.0,2.0,3.0,1650479189524024.0
884,1.0,0.0,-9.0,8.0,5.0,3.0,3.0,-1.0,1650479189525978.0
885,1.0,-1.0,18.0,3.0,-8.0,5.0,2.0,-1.0,1650479189525978.0
886,-1.0,6.0,1.0,-3.0,-1.0,-8.0,-3.0,-2.0,1650479189538291.0
887,2.0,-6.0,-2.0,11.0,7.0,8.0,0.0,2.0,1650479189538291.0
888,1.0,6.0,4.0,3.0,2.0,-3.0,0.0,0.0,1650479189546900.0
889,-5.0,-5.0,7.0,11.0,-1.0,-8.0,-3.0,-2.0,1650479189546900.0
890,-4.0,3.0,4.0,-9.0,-17.0,-1.0,3.0,-1.0,1650479189561978.0
891,7.0,-2.0,-25.0,-21.0,12.0,10.0,1.0,3.0,1650479189561978.0
892,-3.0,2.0,-5.0,0.0,-8.0,-6.0,-2.0,0.0,1650479189562977.0
893,-2.0,7.0,7.0,3.0,-1.0,-8.0,-5.0,-3.0,1650479189562977.0
894,-3.0,-17.0,0.0,1.0,-1.0,-2.0,-1.0,-1.0,1650479189584221.0
895,1.0,0.0,14.0,23.0,7.0,-1.0,-2.0,-3.0,1650479189584221.0
896,1.0,-1.0,7.0,6.0,7.0,7.0,2.0,0.0,1650479189585220.0
897,1.0,7.0,11.0,9.0,5.0,-2.0,2.0,2.0,1650479189585220.0
898,0.0,1.0,-14.0,-12.0,-5.0,5.0,-1.0,2.0,1650479189598905.0
899,-3.0,-3.0,-9.0,-19.0,-11.0,-7.0,-4.0,-2.0,1650479189598905.0
900,-1.0,2.0,4.0,1.0,-2.0,1.0,-1.0,-1.0,1650479189606997.0
901,-2.0,2.0,12.0,23.0,-2.0,-4.0,0.0,2.0,1650479189606997.0
902,3.0,-1.0,3.0,-3.0,15.0,14.0,3.0,2.0,1650479189622140.0
903,2.0,0.0,-5.0,6.0,-2.0,-2.0,2.0,1.0,1650479189622140.0
904,2.0,24.0,10.0,-3.0,0.0,-5.0,-2.0,0.0,1650479189622988.0
905,-3.0,-15.0,-6.0,-12.0,-4.0,3.0,1.0,0.0,1650479189622988.0
906,-1.0,2.0,11.0,15.0,-2.0,-9.0,-2.0,2.0,1650479189644761.0
907,-1.0,-2.0,-1.0,-2.0,-8.0,-3.0,-2.0,0.0,1650479189644761.0
908,1.0,3.0,-3.0,-6.0,0.0,0.0,-1.0,0.0,1650479189645762.0
909,2.0,6.0,3.0,7.0,3.0,3.0,-1.0,-1.0,1650479189645762.0
910,-1.0,-2.0,-13.0,-13.0,-6.0,-5.0,-1.0,-1.0,1650479189658140.0
911,0.0,-5.0,5.0,6.0,-1.0,-1.0,1.0,2.0,1650479189658140.0
912,-3.0,-12.0,3.0,2.0,-6.0,-6.0,-1.0,-1.0,1650479189666932.0
913,-1.0,5.0,-5.0,-3.0,2.0,1.0,-1.0,0.0,1650479189666932.0
914,1.0,-4.0,-7.0,-2.0,-6.0,-5.0,-1.0,-2.0,1650479189681699.0
915,-3.0,6.0,-8.0,-3.0,2.0,-2.0,-7.0,-9.0,1650479189681699.0
916,1.0,-6.0,2.0,-15.0,-12.0,1.0,4.0,6.0,1650479189683566.0
917,2.0,6.0,-5.0,-10.0,-1.0,4.0,5.0,8.0,1650479189683566.0
918,-2.0,-1.0,-2.0,0.0,-4.0,-7.0,-3.0,-5.0,1650479189704838.0
919,-1.0,1.0,1.0,2.0,0.0,-2.0,-1.0,0.0,1650479189704838.0
920,-3.0,1.0,-1.0,7.0,3.0,-4.0,-5.0,-5.0,1650479189705829.0
921,-1.0,4.0,-8.0,-8.0,-7.0,0.0,0.0,-2.0,1650479189705829.0
922,-1.0,-5.0,1.0,1.0,1.0,1.0,1.0,1.0,1650479189717909.0
923,3.0,2.0,4.0,-1.0,1.0,3.0,4.0,5.0,1650479189717909.0
924,2.0,-3.0,-5.0,3.0,5.0,4.0,3.0,1.0,1650479189726886.0
925,0.0,-1.0,-2.0,-2.0,-4.0,-3.0,2.0,-3.0,1650479189726886.0
926,-3.0,-2.0,-4.0,1.0,0.0,-9.0,-6.0,-8.0,1650479189742002.0
927,0.0,-5.0,-4.0,-3.0,1.0,4.0,-2.0,0.0,1650479189742002.0
928,1.0,4.0,3.0,-3.0,-5.0,0.0,1.0,1.0,1650479189743002.0
929,-3.0,-3.0,-1.0,3.0,7.0,7.0,0.0,-7.0,1650479189743002.0
930,7.0,19.0,6.0,-1.0,-1.0,2.0,8.0,12.0,1650479189764833.0
931,1.0,-4.0,2.0,1.0,4.0,0.0,1.0,0.0,1650479189764833.0
932,-4.0,-12.0,-6.0,-5.0,-2.0,-1.0,-1.0,-3.0,1650479189765873.0
933,-2.0,-2.0,-4.0,-11.0,-10.0,-2.0,6.0,3.0,1650479189765873.0
934,-5.0,-5.0,-1.0,2.0,5.0,-4.0,-10.0,-7.0,1650479189777984.0
935,-2.0,0.0,-3.0,-5.0,-4.0,1.0,-10.0,-9.0,1650479189777984.0
936,3.0,6.0,4.0,2.0,4.0,0.0,1.0,2.0,1650479189794113.0
937,-1.0,-6.0,1.0,9.0,4.0,-7.0,-4.0,-2.0,1650479189794113.0
938,0.0,-1.0,-6.0,2.0,17.0,18.0,8.0,2.0,1650479189801095.0
939,-1.0,4.0,-1.0,-3.0,1.0,4.0,6.0,2.0,1650479189801095.0
940,-2.0,-1.0,-1.0,3.0,2.0,-1.0,-1.0,0.0,1650479189803090.0
941,-2.0,-8.0,1.0,-1.0,2.0,-1.0,0.0,-4.0,1650479189803090.0
942,-2.0,2.0,2.0,4.0,-5.0,-8.0,-4.0,-5.0,1650479189824689.0
943,1.0,-11.0,0.0,12.0,4.0,0.0,8.0,12.0,1650479189824689.0
944,5.0,2.0,-5.0,-15.0,-8.0,-2.0,-4.0,8.0,1650479189825689.0
945,-1.0,1.0,0.0,-3.0,-1.0,-1.0,-7.0,-5.0,1650479189825689.0
946,-1.0,-2.0,2.0,-6.0,-13.0,-2.0,-2.0,-4.0,1650479189838218.0
947,-3.0,7.0,0.0,2.0,2.0,-5.0,-5.0,-8.0,1650479189838218.0
948,-4.0,-6.0,-3.0,6.0,7.0,-2.0,5.0,-2.0,1650479189846855.0
949,3.0,-3.0,-4.0,3.0,1.0,4.0,1.0,7.0,1650479189846855.0
950,-1.0,5.0,1.0,-3.0,-5.0,-4.0,-1.0,-2.0,1650479189862001.0
951,-1.0,6.0,-2.0,-9.0,-9.0,-2.0,-4.0,0.0,1650479189862001.0
952,-4.0,-27.0,1.0,7.0,4.0,1.0,1.0,-2.0,1650479189863001.0
953,-2.0,-2.0,-6.0,-8.0,3.0,8.0,-1.0,-3.0,1650479189863001.0
954,3.0,2.0,-1.0,-1.0,-1.0,3.0,1.0,2.0,1650479189884664.0
955,-1.0,-6.0,-8.0,-8.0,-12.0,-6.0,0.0,2.0,1650479189884664.0
956,-2.0,3.0,-7.0,-16.0,-8.0,-2.0,-3.0,-7.0,1650479189885664.0
957,1.0,4.0,4.0,9.0,3.0,-1.0,2.0,2.0,1650479189885664.0
958,2.0,1.0,0.0,0.0,-4.0,1.0,4.0,2.0,1650479189898487.0
959,-2.0,-11.0,1.0,-5.0,4.0,-1.0,0.0,-1.0,1650479189898487.0
960,3.0,4.0,3.0,7.0,4.0,0.0,0.0,4.0,1650479189912804.0
961,-3.0,0.0,2.0,-6.0,-7.0,-5.0,-2.0,0.0,1650479189912804.0
962,-1.0,-11.0,-4.0,4.0,8.0,0.0,-1.0,2.0,1650479189922053.0
963,1.0,-4.0,-3.0,4.0,3.0,1.0,0.0,-4.0,1650479189922053.0
964,-2.0,6.0,5.0,1.0,2.0,-2.0,-2.0,-1.0,1650479189923051.0
965,0.0,0.0,1.0,-4.0,-6.0,0.0,1.0,2.0,1650479189923051.0
966,-4.0,1.0,0.0,4.0,-1.0,-5.0,-4.0,-2.0,1650479189944800.0
967,2.0,4.0,-5.0,-10.0,0.0,7.0,5.0,6.0,1650479189944800.0
968,-4.0,-9.0,-2.0,1.0,3.0,1.0,-2.0,-3.0,1650479189945801.0
969,0.0,4.0,1.0,5.0,-2.0,-2.0,-1.0,-1.0,1650479189945801.0
970,-1.0,-3.0,-1.0,-7.0,-2.0,0.0,-1.0,-3.0,1650479189958152.0
971,-3.0,1.0,5.0,10.0,-5.0,-8.0,-2.0,-4.0,1650479189958152.0
972,1.0,33.0,4.0,-10.0,5.0,5.0,-1.0,-4.0,1650479189967004.0
973,7.0,-15.0,-1.0,0.0,-4.0,2.0,8.0,10.0,1650479189967004.0
974,-3.0,-2.0,3.0,7.0,5.0,0.0,-6.0,-5.0,1650479189982014.0
975,3.0,2.0,-6.0,-7.0,-8.0,-3.0,0.0,1.0,1650479189982014.0
976,2.0,12.0,6.0,6.0,-4.0,-2.0,-2.0,1.0,1650479189983013.0
977,0.0,13.0,5.0,5.0,-1.0,-2.0,2.0,-4.0,1650479189983013.0
978,-1.0,1.0,-2.0,-3.0,12.0,2.0,-2.0,1.0,1650479190004747.0
979,3.0,-16.0,-3.0,-11.0,-14.0,-3.0,0.0,4.0,1650479190004747.0
980,-2.0,-5.0,0.0,1.0,-1.0,-2.0,-1.0,-2.0,1650479190005747.0
981,-1.0,1.0,-3.0,-10.0,-1.0,-2.0,0.0,-2.0,1650479190005747.0
982,-1.0,-2.0,-2.0,1.0,-6.0,-2.0,1.0,2.0,1650479190018214.0
983,-1.0,10.0,12.0,13.0,1.0,-2.0,-3.0,-4.0,1650479190018214.0
984,6.0,0.0,18.0,15.0,9.0,9.0,5.0,6.0,1650479190026891.0
985,-9.0,-15.0,-33.0,-30.0,-12.0,-8.0,-7.0,-4.0,1650479190026891.0
986,-3.0,19.0,0.0,-13.0,-12.0,-14.0,-13.0,-7.0,1650479190042198.0
987,1.0,10.0,2.0,1.0,3.0,-2.0,1.0,0.0,1650479190042198.0
988,0.0,-19.0,-10.0,12.0,8.0,4.0,4.0,0.0,1650479190043033.0
989,3.0,4.0,-3.0,-14.0,5.0,6.0,4.0,3.0,1650479190043033.0
990,3.0,3.0,3.0,13.0,-3.0,4.0,6.0,6.0,1650479190064804.0
991,-3.0,3.0,9.0,-1.0,-8.0,-6.0,-6.0,-3.0,1650479190064804.0
992,-1.0,-7.0,-9.0,17.0,2.0,-9.0,-4.0,-1.0,1650479190065836.0
993,1.0,3.0,2.0,14.0,22.0,13.0,0.0,0.0,1650479190065836.0
994,0.0,-9.0,-10.0,-42.0,-12.0,3.0,6.0,1.0,1650479190078225.0
995,-4.0,-9.0,-14.0,-7.0,8.0,6.0,1.0,1.0,1650479190078225.0
996,-1.0,2.0,4.0,6.0,4.0,-6.0,-4.0,-3.0,1650479190086526.0
997,-2.0,4.0,1.0,-4.0,-23.0,-12.0,-7.0,-5.0,1650479190086526.0
998,4.0,-6.0,5.0,18.0,12.0,2.0,5.0,6.0,1650479190100720.0
999,-3.0,-2.0,1.0,5.0,9.0,12.0,0.0,-15.0,1650479190100720.0
1000,4.0,5.0,2.0,-15.0,-8.0,-2.0,5.0,16.0,1650479190107572.0
1001,1.0,-22.0,1.0,8.0,-8.0,-6.0,0.0,3.0,1650479190107572.0
1002,0.0,-5.0,8.0,13.0,16.0,8.0,2.0,2.0,1650479190124785.0
1003,0.0,-12.0,-8.0,-12.0,-12.0,-6.0,-2.0,0.0,1650479190124785.0
1004,-5.0,7.0,-13.0,-9.0,-1.0,-2.0,-7.0,-10.0,1650479190125785.0
1005,4.0,4.0,17.0,17.0,12.0,13.0,3.0,3.0,1650479190125785.0
1006,-1.0,-12.0,-10.0,-1.0,-4.0,-3.0,2.0,1.0,1650479190145830.0
1007,-1.0,-15.0,-19.0,-13.0,9.0,6.0,6.0,4.0,1650479190145830.0
1008,-5.0,-6.0,9.0,10.0,-13.0,-4.0,-4.0,-5.0,1650479190162892.0
1009,-5.0,1.0,-1.0,7.0,1.0,-7.0,-8.0,-5.0,1650479190162892.0
1010,-3.0,-9.0,-4.0,-1.0,5.0,-3.0,-6.0,-6.0,1650479190163891.0
1011,2.0,7.0,-1.0,1.0,0.0,-3.0,-4.0,1.0,1650479190163891.0
1012,-3.0,-14.0,-11.0,-19.0,-1.0,6.0,0.0,-1.0,1650479190167915.0
1013,-1.0,2.0,4.0,-2.0,-3.0,1.0,3.0,1.0,1650479190167915.0
1014,0.0,10.0,13.0,23.0,-1.0,-2.0,-2.0,-10.0,1650479190184153.0
1015,7.0,7.0,-6.0,-9.0,7.0,2.0,8.0,17.0,1650479190184153.0
1016,-4.0,4.0,8.0,1.0,-5.0,-5.0,-6.0,-6.0,1650479190190839.0
1017,1.0,12.0,20.0,14.0,8.0,3.0,-2.0,-1.0,1650479190190839.0
1018,1.0,-21.0,-24.0,-12.0,-2.0,3.0,7.0,6.0,1650479190207153.0
1019,-2.0,5.0,17.0,-6.0,-8.0,-8.0,-7.0,-7.0,1650479190207153.0
1020,1.0,1.0,-2.0,2.0,1.0,-2.0,-2.0,-2.0,1650479190207999.0
1021,0.0,7.0,4.0,8.0,4.0,-1.0,0.0,0.0,1650479190207999.0
1022,-2.0,11.0,3.0,13.0,-8.0,-7.0,-6.0,0.0,1650479190221604.0
1023,1.0,0.0,5.0,-17.0,-7.0,0.0,1.0,-1.0,1650479190221604.0
1024,1.0,-5.0,3.0,6.0,5.0,8.0,6.0,6.0,1650479190228299.0
1025,-1.0,-3.0,-8.0,12.0,4.0,2.0,1.0,-1.0,1650479190228299.0
1026,0.0,7.0,-19.0,-39.0,-9.0,-3.0,-2.0,1.0,1650479190244655.0
1027,-6.0,-17.0,-4.0,3.0,-6.0,-5.0,-3.0,-1.0,1650479190244655.0
1028,-2.0,22.0,14.0,-4.0,-5.0,-8.0,-8.0,-6.0,1650479190245660.0
1029,-2.0,-14.0,0.0,7.0,-4.0,-5.0,-3.0,-1.0,1650479190245660.0
1030,2.0,2.0,2.0,-2.0,12.0,11.0,7.0,2.0,1650479190274720.0
1031,-2.0,6.0,-12.0,-12.0,-12.0,-4.0,-1.0,-4.0,1650479190274720.0
1032,-3.0,1.0,10.0,9.0,-2.0,-2.0,-1.0,-5.0,1650479190275720.0
1033,-3.0,-3.0,-8.0,-4.0,-3.0,-4.0,0.0,2.0,1650479190275720.0
1034,1.0,4.0,13.0,12.0,1.0,-7.0,-4.0,3.0,1650479190280706.0
1035,2.0,3.0,17.0,18.0,0.0,-1.0,-3.0,-1.0,1650479190280706.0
1036,1.0,-8.0,-25.0,-3.0,5.0,8.0,4.0,2.0,1650479190287688.0
1037,-4.0,-3.0,-5.0,-19.0,-3.0,-1.0,0.0,-2.0,1650479190287688.0
1038,-7.0,-42.0,-8.0,-12.0,-7.0,3.0,0.0,1.0,1650479190303691.0
1039,1.0,10.0,6.0,18.0,5.0,1.0,-1.0,-1.0,1650479190303691.0
1040,-1.0,-21.0,3.0,8.0,-3.0,-2.0,2.0,1.0,1650479190311842.0
1041,2.0,12.0,-5.0,-10.0,-5.0,-5.0,-4.0,-2.0,1650479190311842.0
1042,2.0,12.0,-5.0,-5.0,1.0,-1.0,0.0,-1.0,1650479190327157.0
1043,-4.0,-6.0,-8.0,-24.0,-2.0,-1.0,-2.0,1.0,1650479190327157.0
1044,-3.0,-5.0,5.0,10.0,-6.0,-3.0,-2.0,-1.0,1650479190327998.0
1045,-2.0,6.0,12.0,1.0,-1.0,-3.0,-5.0,-6.0,1650479190327998.0
1046,-2.0,-3.0,1.0,16.0,7.0,3.0,6.0,0.0,1650479190341497.0
1047,4.0,5.0,-2.0,9.0,6.0,4.0,3.0,3.0,1650479190341497.0
1048,4.0,10.0,-4.0,-27.0,-2.0,10.0,3.0,2.0,1650479190348852.0
1049,2.0,-6.0,-3.0,8.0,9.0,4.0,1.0,0.0,1650479190348852.0
1050,-1.0,7.0,-3.0,-7.0,-9.0,-9.0,-5.0,-1.0,1650479190363889.0
1051,1.0,-8.0,-5.0,6.0,3.0,-3.0,0.0,0.0,1650479190363889.0
1052,-3.0,-13.0,34.0,45.0,6.0,-4.0,-3.0,-4.0,1650479190363889.0
1053,-2.0,-4.0,-25.0,-40.0,-3.0,7.0,2.0,2.0,1650479190363889.0
1054,-7.0,-11.0,-27.0,-27.0,-20.0,-6.0,-6.0,-5.0,1650479190386252.0
1055,-2.0,7.0,11.0,18.0,6.0,5.0,1.0,-2.0,1650479190386252.0
1056,2.0,8.0,-4.0,-8.0,-9.0,-8.0,-2.0,-5.0,1650479190387250.0
1057,0.0,6.0,24.0,26.0,5.0,-4.0,-6.0,-2.0,1650479190387250.0
1058,2.0,-2.0,3.0,5.0,9.0,5.0,0.0,0.0,1650479190409159.0
1059,3.0,1.0,-4.0,2.0,9.0,5.0,5.0,5.0,1650479190409159.0
1060,4.0,11.0,10.0,5.0,-3.0,2.0,3.0,5.0,1650479190410031.0
1061,-3.0,-10.0,-17.0,-9.0,-7.0,-3.0,-1.0,-5.0,1650479190410031.0
1062,-2.0,12.0,22.0,13.0,5.0,2.0,3.0,-2.0,1650479190424087.0
1063,-6.0,7.0,6.0,0.0,-13.0,-3.0,-17.0,-4.0,1650479190424087.0
1064,0.0,-10.0,-21.0,-21.0,3.0,-4.0,-3.0,1.0,1650479190424087.0
1065,0.0,-6.0,-7.0,-3.0,1.0,2.0,4.0,4.0,1650479190424087.0
1066,1.0,3.0,6.0,5.0,-8.0,-10.0,-4.0,-3.0,1650479190445831.0
1067,3.0,4.0,6.0,11.0,-1.0,-2.0,4.0,3.0,1650479190445831.0
1068,-3.0,0.0,0.0,-8.0,-5.0,-4.0,-1.0,-7.0,1650479190446865.0
1069,2.0,-5.0,-2.0,1.0,5.0,9.0,6.0,5.0,1650479190446865.0
1070,2.0,12.0,13.0,-2.0,-9.0,0.0,-4.0,-6.0,1650479190468996.0
1071,-5.0,-6.0,-7.0,4.0,5.0,-4.0,-1.0,-3.0,1650479190468996.0
1072,-4.0,-2.0,-17.0,-39.0,-22.0,3.0,4.0,4.0,1650479190469996.0
1073,8.0,6.0,13.0,20.0,8.0,-4.0,1.0,8.0,1650479190469996.0
1074,-1.0,-7.0,-20.0,-24.0,-10.0,-1.0,-2.0,2.0,1650479190484010.0
1075,-4.0,-19.0,-19.0,-6.0,2.0,-2.0,-1.0,-5.0,1650479190484010.0
1076,1.0,2.0,5.0,3.0,5.0,-3.0,-2.0,-1.0,1650479190484010.0
1077,-3.0,-3.0,14.0,6.0,-5.0,0.0,-2.0,-5.0,1650479190484010.0
1078,0.0,-3.0,0.0,6.0,-9.0,-13.0,-6.0,-2.0,1650479190505965.0
1079,5.0,8.0,8.0,6.0,6.0,3.0,3.0,0.0,1650479190505965.0
1080,-5.0,-11.0,-38.0,-24.0,0.0,5.0,-1.0,-2.0,1650479190506805.0
1081,-1.0,6.0,6.0,-4.0,-5.0,-5.0,-5.0,-3.0,1650479190506805.0
1082,-2.0,-3.0,11.0,9.0,-4.0,-5.0,-6.0,-4.0,1650479190529023.0
1083,-2.0,7.0,6.0,7.0,6.0,3.0,-1.0,-1.0,1650479190529023.0
1084,-3.0,-7.0,9.0,17.0,19.0,5.0,1.0,-9.0,1650479190529990.0
1085,8.0,11.0,5.0,6.0,1.0,0.0,11.0,18.0,1650479190529990.0
1086,-1.0,-8.0,-25.0,-32.0,-5.0,2.0,1.0,3.0,1650479190543809.0
1087,1.0,9.0,18.0,15.0,-4.0,-9.0,-8.0,-2.0,1650479190543809.0
1088,-4.0,-6.0,-13.0,-12.0,-4.0,-4.0,-8.0,-8.0,1650479190550951.0
1089,-5.0,4.0,9.0,12.0,2.0,-6.0,-6.0,-8.0,1650479190550951.0
1090,1.0,-2.0,6.0,1.0,5.0,11.0,11.0,8.0,1650479190565826.0
1091,1.0,-16.0,-5.0,-11.0,-4.0,-1.0,4.0,6.0,1650479190565826.0
1092,2.0,6.0,1.0,2.0,-2.0,-2.0,-2.0,1.0,1650479190566664.0
1093,-3.0,-4.0,-8.0,-12.0,-10.0,-7.0,-5.0,-7.0,1650479190566664.0
1094,1.0,-2.0,3.0,13.0,5.0,-4.0,-3.0,-2.0,1650479190589662.0
1095,-3.0,4.0,-5.0,-6.0,2.0,6.0,2.0,-3.0,1650479190589662.0
1096,2.0,2.0,2.0,4.0,-5.0,0.0,1.0,3.0,1650479190589662.0
1097,-3.0,-8.0,-6.0,-5.0,4.0,2.0,-1.0,-2.0,1650479190589662.0
1098,2.0,6.0,5.0,3.0,0.0,0.0,-3.0,-2.0,1650479190604095.0
1099,0.0,0.0,13.0,15.0,-2.0,0.0,0.0,-3.0,1650479190604095.0
1100,-1.0,-5.0,-8.0,-6.0,2.0,0.0,0.0,3.0,1650479190604095.0
1101,-3.0,-11.0,-16.0,-17.0,1.0,5.0,2.0,0.0,1650479190604095.0
1102,0.0,6.0,-2.0,-10.0,-1.0,-1.0,-4.0,-2.0,1650479190625995.0
1103,-4.0,-11.0,0.0,8.0,1.0,1.0,1.0,0.0,1650479190625995.0
1104,-1.0,-6.0,-3.0,7.0,-1.0,-5.0,-1.0,2.0,1650479190626995.0
1105,1.0,3.0,1.0,-3.0,-3.0,0.0,0.0,0.0,1650479190626995.0
1106,0.0,3.0,15.0,11.0,10.0,4.0,2.0,0.0,1650479190649822.0
1107,-1.0,2.0,-2.0,4.0,0.0,1.0,2.0,0.0,1650479190649822.0
1108,-2.0,-4.0,-6.0,1.0,-1.0,-6.0,-7.0,0.0,1650479190649822.0
1109,1.0,-1.0,-10.0,-9.0,-3.0,-1.0,2.0,-3.0,1650479190649822.0
1110,0.0,-3.0,-7.0,9.0,6.0,2.0,4.0,3.0,1650479190663938.0
1111,1.0,-2.0,-3.0,-11.0,4.0,4.0,0.0,-2.0,1650479190663938.0
1112,-1.0,11.0,4.0,1.0,-7.0,-5.0,-5.0,-2.0,1650479190663938.0
1113,0.0,-1.0,10.0,-4.0,-2.0,-1.0,-4.0,-2.0,1650479190663938.0
1114,-2.0,-10.0,-21.0,-8.0,-3.0,-3.0,-3.0,-1.0,1650479190685996.0
1115,0.0,0.0,-9.0,-1.0,-5.0,-1.0,-1.0,-1.0,1650479190685996.0
1116,0.0,4.0,9.0,-11.0,-2.0,-3.0,1.0,1.0,1650479190686995.0
1117,-4.0,5.0,14.0,18.0,-6.0,-8.0,-5.0,-3.0,1650479190686995.0
1118,-3.0,2.0,5.0,3.0,10.0,7.0,0.0,-2.0,1650479190708801.0
1119,11.0,1.0,14.0,-4.0,5.0,6.0,2.0,3.0,1650479190708801.0
1120,0.0,7.0,-4.0,1.0,-4.0,-4.0,1.0,1.0,1650479190709798.0
1121,-13.0,-26.0,-42.0,-15.0,-9.0,-7.0,-6.0,-7.0,1650479190709798.0
1122,-5.0,0.0,1.0,3.0,-1.0,-2.0,-2.0,-1.0,1650479190724051.0
1123,-5.0,-2.0,-17.0,-11.0,-6.0,-6.0,-1.0,-2.0,1650479190724051.0
1124,7.0,15.0,30.0,12.0,6.0,5.0,4.0,6.0,1650479190724051.0
1125,14.0,14.0,21.0,9.0,7.0,5.0,2.0,3.0,1650479190724051.0
1126,-11.0,-16.0,-43.0,-15.0,-10.0,-6.0,-4.0,-5.0,1650479190746900.0
1127,3.0,15.0,18.0,1.0,-3.0,-4.0,-4.0,-1.0,1650479190746900.0
1128,-8.0,-17.0,-30.0,-3.0,0.0,1.0,-6.0,-3.0,1650479190746900.0
1129,2.0,10.0,15.0,5.0,3.0,4.0,-1.0,1.0,1650479190746900.0
1130,12.0,16.0,43.0,18.0,9.0,8.0,10.0,7.0,1650479190768998.0
1131,-14.0,-5.0,-29.0,-15.0,-11.0,-7.0,-7.0,-4.0,1650479190768998.0
1132,0.0,-3.0,-14.0,-8.0,-5.0,-5.0,0.0,-2.0,1650479190769995.0
1133,-5.0,-13.0,-24.0,-3.0,0.0,-2.0,-8.0,-3.0,1650479190769995.0
1134,-1.0,3.0,13.0,1.0,0.0,-1.0,-1.0,0.0,1650479190784096.0
1135,7.0,3.0,13.0,8.0,4.0,3.0,4.0,4.0,1650479190784096.0
1136,8.0,1.0,8.0,6.0,5.0,7.0,3.0,2.0,1650479190784096.0
1137,-3.0,-3.0,0.0,-3.0,1.0,4.0,4.0,0.0,1650479190784096.0
1138,3.0,2.0,2.0,6.0,-2.0,-2.0,-1.0,0.0,1650479190805987.0
1139,-3.0,-2.0,-8.0,-6.0,-4.0,-3.0,-4.0,-4.0,1650479190805987.0
1140,-1.0,-5.0,5.0,2.0,0.0,-2.0,-3.0,-1.0,1650479190807003.0
1141,1.0,2.0,3.0,0.0,-1.0,2.0,9.0,5.0,1650479190807003.0
1142,-2.0,-3.0,6.0,2.0,4.0,2.0,0.0,-5.0,1650479190829117.0
1143,-2.0,1.0,4.0,0.0,-1.0,2.0,-1.0,1.0,1650479190829117.0
1144,0.0,10.0,17.0,6.0,-2.0,-2.0,1.0,-1.0,1650479190830154.0
1145,2.0,-18.0,-26.0,-13.0,-7.0,-4.0,-3.0,0.0,1650479190830154.0
1146,8.0,5.0,0.0,-1.0,2.0,3.0,4.0,4.0,1650479190844025.0
1147,-7.0,0.0,2.0,-1.0,5.0,3.0,5.0,0.0,1650479190844025.0
1148,-1.0,0.0,10.0,5.0,0.0,0.0,-9.0,-1.0,1650479190844025.0
1149,0.0,7.0,11.0,3.0,-3.0,-5.0,6.0,0.0,1650479190844025.0
1150,-3.0,-5.0,-3.0,0.0,-4.0,-4.0,-7.0,-3.0,1650479190865992.0
1151,3.0,-7.0,1.0,2.0,0.0,3.0,7.0,4.0,1650479190865992.0
1152,-5.0,-1.0,-6.0,0.0,3.0,1.0,-3.0,0.0,1650479190867024.0
1153,-4.0,2.0,-3.0,-5.0,0.0,1.0,0.0,-1.0,1650479190867024.0
1154,-1.0,4.0,-5.0,-3.0,-1.0,-2.0,1.0,-4.0,1650479190889174.0
1155,2.0,10.0,5.0,3.0,2.0,2.0,0.0,-2.0,1650479190889174.0
1156,-3.0,-12.0,-13.0,-13.0,-6.0,-3.0,0.0,-2.0,1650479190889174.0
1157,-1.0,-8.0,-9.0,-1.0,-1.0,-3.0,-9.0,-4.0,1650479190889174.0
1158,1.0,-2.0,-1.0,-1.0,-3.0,-4.0,-2.0,0.0,1650479190904056.0
1159,0.0,-4.0,-8.0,-4.0,-3.0,-7.0,-9.0,0.0,1650479190904056.0
1160,3.0,11.0,9.0,3.0,3.0,5.0,2.0,0.0,1650479190904056.0
1161,0.0,7.0,6.0,6.0,10.0,11.0,11.0,5.0,1650479190904056.0
1162,1.0,2.0,1.0,-3.0,-4.0,-4.0,1.0,1.0,1650479190926616.0
1163,-1.0,-6.0,-6.0,-3.0,-7.0,-5.0,-4.0,-6.0,1650479190926616.0
1164,-1.0,-4.0,-3.0,4.0,4.0,2.0,-3.0,1.0,1650479190926616.0
1165,-3.0,-1.0,4.0,-1.0,0.0,0.0,10.0,0.0,1650479190926616.0
1166,-4.0,5.0,3.0,-3.0,1.0,4.0,0.0,-1.0,1650479190949083.0
1167,-2.0,-2.0,-15.0,-7.0,-1.0,-2.0,-1.0,0.0,1650479190949083.0
1168,-3.0,-10.0,2.0,7.0,-3.0,-7.0,-7.0,-6.0,1650479190949083.0
1169,4.0,6.0,7.0,-4.0,1.0,2.0,0.0,4.0,1650479190949083.0
1170,-2.0,2.0,12.0,21.0,-1.0,-2.0,5.0,0.0,1650479190963859.0
1171,0.0,-8.0,-14.0,-15.0,-1.0,-1.0,-7.0,-3.0,1650479190963859.0
1172,0.0,-2.0,-1.0,1.0,1.0,0.0,4.0,0.0,1650479190963859.0
1173,-4.0,4.0,1.0,0.0,1.0,0.0,-8.0,0.0,1650479190963859.0
1174,11.0,1.0,3.0,3.0,4.0,3.0,9.0,3.0,1650479190985987.0
1175,-8.0,-1.0,4.0,2.0,-2.0,0.0,4.0,1.0,1650479190985987.0
1176,-5.0,-6.0,-21.0,-15.0,-8.0,-3.0,0.0,-5.0,1650479190986984.0
1177,4.0,4.0,11.0,4.0,1.0,0.0,-7.0,0.0,1650479190986984.0
1178,-5.0,-3.0,-2.0,-7.0,-3.0,-2.0,-13.0,-2.0,1650479191009089.0
1179,8.0,3.0,8.0,13.0,2.0,-1.0,2.0,0.0,1650479191009089.0
1180,9.0,22.0,3.0,-2.0,1.0,5.0,13.0,6.0,1650479191009089.0
1181,-8.0,0.0,23.0,21.0,2.0,-1.0,-1.0,-2.0,1650479191009089.0
1182,-17.0,-24.0,-41.0,-32.0,-3.0,-2.0,-9.0,-6.0,1650479191023232.0
1183,-15.0,-17.0,-4.0,-4.0,-8.0,-11.0,-16.0,-14.0,1650479191023232.0
1184,-16.0,-36.0,-12.0,-11.0,-5.0,-11.0,-25.0,-8.0,1650479191024233.0
1185,8.0,11.0,-3.0,0.0,1.0,6.0,16.0,3.0,1650479191024233.0
1186,12.0,12.0,20.0,21.0,8.0,10.0,19.0,7.0,1650479191046173.0
1187,9.0,18.0,10.0,6.0,4.0,4.0,0.0,2.0,1650479191046173.0
1188,4.0,14.0,-3.0,-9.0,3.0,5.0,14.0,4.0,1650479191046173.0
1189,-2.0,-7.0,-12.0,-12.0,-5.0,-10.0,-16.0,-6.0,1650479191046173.0
1190,-3.0,-6.0,19.0,24.0,-6.0,-9.0,-12.0,-5.0,1650479191069742.0
1191,1.0,1.0,-32.0,-32.0,-6.0,1.0,7.0,1.0,1650479191069742.0
1192,0.0,2.0,9.0,9.0,3.0,3.0,-6.0,-1.0,1650479191069742.0
1193,-4.0,-10.0,-5.0,-2.0,-3.0,-9.0,-10.0,-4.0,1650479191069742.0
1194,1.0,4.0,-2.0,-2.0,-1.0,5.0,10.0,5.0,1650479191084127.0
1195,0.0,0.0,12.0,15.0,0.0,0.0,-4.0,-1.0,1650479191084127.0
1196,-2.0,-2.0,4.0,3.0,3.0,3.0,2.0,0.0,1650479191084127.0
1197,1.0,-1.0,-24.0,-19.0,-2.0,3.0,12.0,3.0,1650479191084127.0
1198,0.0,-2.0,-7.0,-4.0,-1.0,-4.0,-12.0,-3.0,1650479191106000.0
1199,0.0,1.0,15.0,11.0,0.0,-4.0,-13.0,-4.0,1650479191106000.0
1200,-2.0,-1.0,-3.0,-5.0,-3.0,-7.0,-13.0,-5.0,1650479191106999.0
1201,3.0,1.0,-4.0,-1.0,-2.0,2.0,3.0,3.0,1650479191106999.0
1202,-6.0,1.0,6.0,2.0,2.0,5.0,15.0,4.0,1650479191129025.0
1203,0.0,-6.0,-2.0,4.0,2.0,7.0,13.0,5.0,1650479191129025.0
1204,-3.0,0.0,11.0,8.0,-1.0,1.0,8.0,2.0,1650479191129990.0
1205,-1.0,2.0,12.0,8.0,0.0,-5.0,-11.0,-4.0,1650479191129990.0
1206,2.0,-4.0,-19.0,-19.0,-4.0,-5.0,-16.0,-5.0,1650479191143180.0
1207,1.0,2.0,10.0,3.0,1.0,0.0,10.0,3.0,1650479191143180.0
1208,1.0,2.0,-6.0,2.0,-1.0,0.0,2.0,2.0,1650479191144009.0
1209,-2.0,0.0,10.0,10.0,-1.0,0.0,-2.0,-1.0,1650479191144009.0
1210,1.0,-1.0,-9.0,-8.0,-1.0,-2.0,1.0,1.0,1650479191166002.0
1211,-2.0,-1.0,0.0,3.0,0.0,-2.0,-12.0,-2.0,1650479191166002.0
1212,2.0,-1.0,0.0,1.0,1.0,2.0,11.0,5.0,1650479191167002.0
1213,-2.0,0.0,1.0,-2.0,0.0,-1.0,-3.0,-4.0,1650479191167002.0
1214,0.0,0.0,5.0,0.0,1.0,-5.0,-7.0,-2.0,1650479191189314.0
1215,0.0,-1.0,0.0,-1.0,0.0,1.0,1.0,-1.0,1650479191189314.0
1216,-1.0,0.0,2.0,2.0,3.0,3.0,7.0,2.0,1650479191190151.0
1217,0.0,1.0,3.0,1.0,0.0,1.0,7.0,0.0,1650479191190151.0
1218,-2.0,-4.0,-16.0,-8.0,-4.0,1.0,-1.0,-3.0,1650479191203747.0
1219,1.0,0.0,-2.0,-3.0,-1.0,-1.0,-2.0,0.0,1650479191203747.0
1220,1.0,-1.0,-1.0,1.0,0.0,-2.0,-2.0,0.0,1650479191203747.0
1221,-3.0,0.0,0.0,1.0,-3.0,-6.0,-8.0,-3.0,1650479191203747.0
1222,0.0,-1.0,-11.0,-10.0,-3.0,-3.0,-3.0,-2.0,1650479191226059.0
1223,-1.0,-1.0,9.0,2.0,0.0,3.0,8.0,0.0,1650479191226059.0
1224,0.0,-1.0,-7.0,-2.0,0.0,0.0,0.0,-3.0,1650479191226893.0
1225,-2.0,-5.0,0.0,-2.0,-1.0,-6.0,-9.0,-4.0,1650479191226893.0
1226,0.0,0.0,3.0,2.0,-4.0,-3.0,2.0,1.0,1650479191249106.0
1227,-2.0,-1.0,-1.0,-2.0,3.0,4.0,14.0,4.0,1650479191249106.0
1228,1.0,2.0,7.0,5.0,9.0,6.0,-2.0,1.0,1650479191250131.0
1229,0.0,-2.0,-8.0,-3.0,-3.0,-3.0,-6.0,-5.0,1650479191250131.0
1230,0.0,1.0,4.0,2.0,1.0,3.0,7.0,4.0,1650479191264561.0
1231,-1.0,1.0,-2.0,0.0,-3.0,-4.0,1.0,1.0,1650479191264561.0
1232,0.0,-2.0,-2.0,0.0,-4.0,-6.0,-1.0,-2.0,1650479191264561.0
1233,-3.0,-4.0,-8.0,-4.0,-3.0,-3.0,-4.0,-4.0,1650479191264561.0
1234,-1.0,-3.0,7.0,3.0,-4.0,-9.0,-14.0,-4.0,1650479191285925.0
1235,0.0,-1.0,-6.0,-5.0,-4.0,-1.0,5.0,2.0,1650479191285925.0
1236,3.0,0.0,3.0,1.0,6.0,9.0,-8.0,0.0,1650479191286926.0
1237,-2.0,-3.0,-4.0,-2.0,3.0,5.0,16.0,2.0,1650479191286926.0
1238,2.0,2.0,7.0,3.0,2.0,1.0,15.0,2.0,1650479191308907.0
1239,-1.0,0.0,-4.0,0.0,1.0,-3.0,-2.0,2.0,1650479191308907.0
1240,-2.0,-5.0,-5.0,-4.0,-6.0,-6.0,2.0,-1.0,1650479191308907.0
1241,-1.0,3.0,9.0,2.0,-2.0,-3.0,-18.0,-2.0,1650479191308907.0
1242,-3.0,-3.0,-6.0,-1.0,0.0,-1.0,-3.0,-4.0,1650479191324122.0
1243,2.0,1.0,-1.0,-1.0,-4.0,-4.0,-1.0,0.0,1650479191324122.0
1244,1.0,4.0,2.0,0.0,1.0,1.0,-3.0,-3.0,1650479191324122.0
1245,-1.0,-1.0,-1.0,0.0,3.0,3.0,-2.0,-1.0,1650479191324122.0
1246,-3.0,-4.0,-5.0,-4.0,-5.0,-9.0,-10.0,-5.0,1650479191346139.0
1247,1.0,1.0,6.0,1.0,-6.0,-3.0,-3.0,3.0,1650479191346139.0
1248,1.0,0.0,2.0,4.0,14.0,16.0,14.0,5.0,1650479191347137.0
1249,0.0,0.0,1.0,2.0,10.0,11.0,8.0,0.0,1650479191347137.0
1250,3.0,2.0,0.0,1.0,3.0,2.0,-11.0,-6.0,1650479191368122.0
1251,-3.0,-2.0,-4.0,-3.0,-5.0,-11.0,-26.0,-12.0,1650479191368122.0
1252,-1.0,-2.0,-1.0,-4.0,-13.0,-7.0,23.0,7.0,1650479191368972.0
1253,1.0,1.0,-4.0,-3.0,-2.0,3.0,8.0,5.0,1650479191368972.0
1254,1.0,1.0,3.0,0.0,0.0,-3.0,4.0,1.0,1650479191391367.0
1255,1.0,2.0,-5.0,-1.0,-1.0,1.0,-8.0,-5.0,1650479191391367.0
1256,-1.0,-1.0,-2.0,-1.0,-4.0,-4.0,-1.0,-2.0,1650479191392215.0
1257,0.0,-1.0,0.0,-2.0,0.0,-4.0,-9.0,-3.0,1650479191392215.0
1258,-3.0,-1.0,-3.0,-2.0,-2.0,0.0,-3.0,2.0,1650479191405981.0
1259,1.0,1.0,4.0,0.0,1.0,0.0,10.0,-1.0,1650479191405981.0
1260,0.0,5.0,12.0,1.0,3.0,-1.0,-11.0,-2.0,1650479191406982.0
1261,-2.0,-3.0,-17.0,-5.0,-2.0,-1.0,2.0,-1.0,1650479191406982.0
1262,-2.0,2.0,9.0,0.0,-5.0,-5.0,-27.0,-4.0,1650479191428986.0
1263,-4.0,-6.0,-5.0,-2.0,0.0,-1.0,17.0,3.0,1650479191428986.0
1264,-2.0,-3.0,-5.0,-3.0,-1.0,-1.0,-19.0,-9.0,1650479191429983.0
1265,-1.0,-2.0,3.0,2.0,7.0,10.0,11.0,1.0,1650479191429983.0
1266,2.0,4.0,3.0,1.0,1.0,4.0,3.0,3.0,1650479191444136.0
1267,-8.0,-2.0,-1.0,0.0,-3.0,-3.0,-3.0,-3.0,1650479191444136.0
1268,7.0,-4.0,-1.0,-3.0,-11.0,-11.0,-2.0,0.0,1650479191444136.0
1269,0.0,2.0,-1.0,-1.0,-3.0,-9.0,-22.0,-8.0,1650479191444136.0
1270,0.0,2.0,3.0,6.0,5.0,9.0,23.0,9.0,1650479191466059.0
1271,4.0,1.0,2.0,3.0,6.0,7.0,14.0,7.0,1650479191466059.0
1272,-5.0,-3.0,-5.0,-7.0,-4.0,-6.0,-7.0,-4.0,1650479191466898.0
1273,-1.0,-1.0,4.0,6.0,-2.0,0.0,-6.0,-1.0,1650479191466898.0
1274,3.0,-3.0,-7.0,-8.0,1.0,4.0,13.0,0.0,1650479191489069.0
1275,0.0,0.0,-4.0,-8.0,-1.0,3.0,-4.0,-1.0,1650479191489069.0
1276,-2.0,-1.0,1.0,6.0,1.0,1.0,1.0,1.0,1650479191489069.0
1277,3.0,0.0,0.0,-3.0,-5.0,-8.0,8.0,3.0,1650479191489069.0
1278,-3.0,0.0,1.0,7.0,0.0,0.0,1.0,-4.0,1650479191503953.0
1279,-1.0,-7.0,-1.0,11.0,9.0,11.0,6.0,3.0,1650479191503953.0
1280,-4.0,-2.0,-7.0,-10.0,0.0,-1.0,-7.0,-3.0,1650479191503953.0
1281,2.0,1.0,-1.0,4.0,-4.0,-1.0,2.0,2.0,1650479191503953.0
1282,-3.0,-3.0,3.0,-14.0,-6.0,-9.0,-14.0,-5.0,1650479191525991.0
1283,4.0,-5.0,-5.0,-6.0,-2.0,-3.0,-1.0,1.0,1650479191525991.0
1284,-2.0,2.0,0.0,-1.0,-3.0,0.0,1.0,1.0,1650479191526990.0
1285,-8.0,-2.0,4.0,5.0,-2.0,-4.0,-13.0,-4.0,1650479191526990.0
1286,9.0,6.0,-4.0,1.0,4.0,8.0,33.0,12.0,1650479191549124.0
1287,-3.0,-1.0,0.0,-3.0,-4.0,-6.0,-17.0,-6.0,1650479191549124.0
1288,0.0,1.0,11.0,27.0,1.0,4.0,7.0,1.0,1650479191549124.0
1289,-2.0,-2.0,-14.0,-35.0,-2.0,1.0,1.0,-4.0,1650479191549124.0
1290,-6.0,-3.0,0.0,5.0,1.0,-2.0,-13.0,-3.0,1650479191563876.0
1291,4.0,-3.0,-1.0,-6.0,2.0,0.0,0.0,-1.0,1650479191563876.0
1292,0.0,3.0,3.0,5.0,1.0,-2.0,2.0,-2.0,1650479191563876.0
1293,2.0,3.0,10.0,10.0,-3.0,-3.0,-5.0,1.0,1650479191563876.0
1294,-2.0,5.0,0.0,12.0,3.0,0.0,-7.0,-4.0,1650479191586089.0
1295,-2.0,2.0,-4.0,-14.0,-8.0,-5.0,-2.0,0.0,1650479191586089.0
1296,-3.0,-4.0,-9.0,-1.0,-3.0,-2.0,-3.0,0.0,1650479191586949.0
1297,0.0,1.0,2.0,2.0,2.0,0.0,-1.0,-1.0,1650479191586949.0
1298,1.0,-1.0,2.0,8.0,1.0,2.0,12.0,4.0,1650479191609059.0
1299,0.0,3.0,1.0,4.0,4.0,3.0,-2.0,0.0,1650479191609059.0
1300,-5.0,-9.0,-14.0,-21.0,-9.0,-8.0,-15.0,-6.0,1650479191609059.0
1301,1.0,2.0,1.0,-8.0,-1.0,2.0,24.0,5.0,1650479191609059.0
1302,-1.0,-3.0,-2.0,1.0,-2.0,-2.0,-7.0,-4.0,1650479191624098.0
1303,0.0,4.0,3.0,4.0,0.0,2.0,6.0,1.0,1650479191624098.0
1304,1.0,1.0,4.0,5.0,5.0,1.0,-2.0,-1.0,1650479191624098.0
1305,2.0,-4.0,-2.0,3.0,0.0,1.0,-2.0,5.0,1650479191624098.0
1306,-1.0,-3.0,5.0,1.0,-2.0,-2.0,-2.0,-7.0,1650479191645830.0
1307,-2.0,-3.0,-18.0,-18.0,-1.0,0.0,-3.0,-1.0,1650479191645830.0
1308,0.0,1.0,-8.0,-2.0,0.0,-1.0,2.0,0.0,1650479191646834.0
1309,-2.0,-1.0,5.0,7.0,0.0,-3.0,-4.0,-1.0,1650479191646834.0
1310,0.0,-2.0,1.0,-4.0,1.0,1.0,-5.0,-1.0,1650479191668145.0
1311,1.0,4.0,10.0,11.0,3.0,3.0,5.0,1.0,1650479191668145.0
1312,-1.0,-3.0,-7.0,-11.0,-5.0,-4.0,4.0,0.0,1650479191668980.0
1313,1.0,-1.0,5.0,6.0,-1.0,0.0,2.0,0.0,1650479191668980.0
1314,-2.0,-2.0,-9.0,-7.0,1.0,-3.0,-7.0,-2.0,1650479191683409.0
1315,-3.0,-2.0,-2.0,-4.0,-7.0,-3.0,-2.0,-2.0,1650479191683409.0
1316,-2.0,-1.0,0.0,2.0,7.0,3.0,1.0,-3.0,1650479191691296.0
1317,3.0,0.0,5.0,8.0,1.0,1.0,2.0,-1.0,1650479191691296.0
1318,-1.0,-4.0,-9.0,-12.0,-5.0,-4.0,-4.0,0.0,1650479191706322.0
1319,3.0,2.0,4.0,2.0,-2.0,-1.0,4.0,3.0,1650479191706322.0
1320,1.0,-2.0,-9.0,-6.0,0.0,0.0,4.0,1.0,1650479191706322.0
1321,-3.0,-1.0,3.0,-1.0,-4.0,-3.0,-6.0,-2.0,1650479191706322.0
1322,1.0,1.0,5.0,1.0,0.0,-4.0,-14.0,-3.0,1650479191728672.0
1323,-1.0,-5.0,-9.0,0.0,3.0,11.0,36.0,12.0,1650479191728672.0
1324,-1.0,1.0,5.0,0.0,-1.0,-3.0,-8.0,3.0,1650479191729206.0
1325,-2.0,0.0,-7.0,-2.0,1.0,4.0,15.0,-3.0,1650479191729206.0
1326,-3.0,-1.0,3.0,1.0,-2.0,-3.0,-8.0,-5.0,1650479191743456.0
1327,0.0,12.0,15.0,9.0,1.0,-3.0,-11.0,-2.0,1650479191743456.0
1328,0.0,3.0,3.0,2.0,1.0,4.0,7.0,2.0,1650479191750472.0
1329,-2.0,-4.0,1.0,-5.0,-4.0,-4.0,-3.0,0.0,1650479191750472.0
1330,0.0,3.0,7.0,2.0,1.0,2.0,0.0,-2.0,1650479191765401.0
1331,-5.0,-10.0,-28.0,-12.0,-6.0,-9.0,-21.0,-13.0,1650479191765401.0
1332,0.0,-1.0,-6.0,-3.0,-3.0,-1.0,2.0,1.0,1650479191766398.0
1333,-4.0,-2.0,-3.0,-3.0,0.0,-1.0,-7.0,-2.0,1650479191766398.0
1334,-1.0,1.0,6.0,-1.0,-1.0,1.0,9.0,5.0,1650479191788372.0
1335,-1.0,1.0,12.0,8.0,-1.0,-2.0,-4.0,1.0,1650479191788372.0
1336,4.0,2.0,0.0,-3.0,0.0,1.0,4.0,1.0,1650479191789362.0
1337,1.0,-3.0,-4.0,0.0,0.0,3.0,-2.0,-1.0,1650479191789362.0
1338,-2.0,-1.0,-1.0,1.0,2.0,0.0,-1.0,1.0,1650479191802361.0
1339,-2.0,-3.0,1.0,2.0,4.0,-1.0,-4.0,-4.0,1650479191802361.0
1340,-1.0,-2.0,-4.0,-5.0,-3.0,-1.0,7.0,-1.0,1650479191818495.0
1341,2.0,1.0,-3.0,0.0,-2.0,-2.0,-4.0,-2.0,1650479191818495.0
1342,1.0,1.0,4.0,3.0,0.0,0.0,4.0,2.0,1650479191825512.0
1343,0.0,0.0,2.0,2.0,1.0,-2.0,-11.0,-2.0,1650479191825512.0
1344,-2.0,-6.0,-14.0,-5.0,-5.0,-6.0,-6.0,-5.0,1650479191826474.0
1345,-1.0,1.0,-1.0,-2.0,0.0,-2.0,4.0,3.0,1650479191826474.0
1346,-4.0,-3.0,-7.0,-5.0,-2.0,1.0,1.0,2.0,1650479191848417.0
1347,-1.0,-1.0,7.0,2.0,-1.0,-1.0,0.0,-2.0,1650479191848417.0
1348,1.0,3.0,12.0,5.0,0.0,2.0,-1.0,0.0,1650479191849414.0
1349,1.0,1.0,-3.0,1.0,1.0,1.0,-4.0,0.0,1650479191849414.0
1350,2.0,-3.0,-9.0,-6.0,-3.0,-4.0,-4.0,1.0,1650479191862379.0
1351,1.0,-2.0,2.0,1.0,1.0,5.0,14.0,-1.0,1650479191862379.0
1352,-1.0,1.0,4.0,3.0,3.0,-2.0,-7.0,-2.0,1650479191871355.0
1353,-1.0,-3.0,-3.0,-1.0,0.0,3.0,1.0,3.0,1650479191871355.0
1354,1.0,1.0,8.0,3.0,1.0,1.0,2.0,1.0,1650479191886315.0
1355,0.0,0.0,-4.0,-1.0,-2.0,-2.0,-5.0,0.0,1650479191886315.0
1356,-2.0,-5.0,-5.0,-6.0,-5.0,0.0,1.0,1.0,1650479191886315.0
1357,-3.0,-2.0,4.0,3.0,-1.0,-1.0,-5.0,-5.0,1650479191886315.0
1358,-1.0,4.0,-3.0,1.0,-1.0,0.0,3.0,2.0,1650479191908255.0
1359,0.0,3.0,-1.0,0.0,0.0,-1.0,-5.0,2.0,1650479191908255.0
1360,2.0,2.0,9.0,6.0,0.0,-1.0,-4.0,-1.0,1650479191909252.0
1361,0.0,1.0,-1.0,-1.0,-2.0,-1.0,0.0,1.0,1650479191909252.0
1362,0.0,2.0,-1.0,0.0,1.0,4.0,2.0,1.0,1650479191922218.0
1363,-2.0,-2.0,-4.0,-3.0,1.0,-1.0,-3.0,-2.0,1650479191922218.0
1364,1.0,1.0,-3.0,-2.0,0.0,2.0,1.0,1.0,1650479191930196.0
1365,-2.0,-7.0,-13.0,-8.0,-5.0,-5.0,-3.0,-1.0,1650479191930196.0
1366,1.0,-3.0,0.0,2.0,1.0,0.0,6.0,-3.0,1650479191946153.0
1367,-1.0,-1.0,2.0,3.0,2.0,0.0,-1.0,-1.0,1650479191946153.0
1368,-2.0,0.0,6.0,-2.0,1.0,-1.0,-7.0,-2.0,1650479191946153.0
1369,3.0,1.0,3.0,3.0,-1.0,0.0,0.0,3.0,1650479191946153.0
1370,0.0,-4.0,-1.0,-1.0,-3.0,1.0,10.0,5.0,1650479191968097.0
1371,-1.0,0.0,0.0,0.0,-1.0,1.0,-2.0,-5.0,1650479191968097.0
1372,-3.0,-6.0,-10.0,-3.0,-3.0,2.0,4.0,4.0,1650479191969096.0
1373,-1.0,0.0,-1.0,-1.0,2.0,-1.0,0.0,-2.0,1650479191969096.0
1374,-2.0,-1.0,-2.0,1.0,-1.0,-3.0,-13.0,-4.0,1650479191992031.0
1375,1.0,0.0,4.0,2.0,-1.0,0.0,10.0,5.0,1650479191992031.0
1376,1.0,7.0,8.0,0.0,0.0,-1.0,-7.0,-4.0,1650479191992031.0
1377,0.0,-2.0,-1.0,0.0,1.0,-1.0,-2.0,-2.0,1650479191992031.0
1378,-2.0,-2.0,-4.0,-7.0,-2.0,-3.0,-3.0,-1.0,1650479192005993.0
1379,0.0,1.0,-2.0,2.0,-1.0,0.0,-1.0,0.0,1650479192005993.0
1380,-2.0,-4.0,7.0,5.0,-3.0,-3.0,0.0,-2.0,1650479192006991.0
1381,0.0,4.0,12.0,3.0,2.0,3.0,5.0,2.0,1650479192006991.0
1382,-3.0,-6.0,-15.0,-5.0,-1.0,0.0,-2.0,-5.0,1650479192027996.0
1383,-1.0,1.0,-13.0,-12.0,-5.0,-5.0,-4.0,-1.0,1650479192027996.0
1384,0.0,-7.0,-4.0,2.0,0.0,0.0,5.0,2.0,1650479192028995.0
1385,0.0,-1.0,4.0,5.0,-3.0,-1.0,-1.0,-4.0,1650479192028995.0
1386,2.0,3.0,12.0,4.0,0.0,0.0,1.0,-1.0,1650479192051955.0
1387,-1.0,-1.0,-5.0,-6.0,-2.0,0.0,-4.0,3.0,1650479192051955.0
1388,-2.0,-4.0,-11.0,-10.0,-3.0,2.0,6.0,-1.0,1650479192051955.0
1389,0.0,0.0,2.0,2.0,1.0,-1.0,-1.0,1.0,1650479192051955.0
1390,0.0,0.0,-3.0,0.0,-1.0,1.0,1.0,1.0,1650479192065927.0
1391,2.0,-3.0,3.0,4.0,1.0,1.0,-6.0,-1.0,1650479192065927.0
1392,-1.0,2.0,5.0,1.0,0.0,0.0,2.0,-2.0,1650479192066924.0
1393,1.0,-3.0,-10.0,-9.0,-3.0,2.0,16.0,4.0,1650479192066924.0
1394,-1.0,-3.0,-7.0,-3.0,0.0,-2.0,-6.0,-3.0,1650479192087998.0
1395,0.0,0.0,12.0,5.0,-1.0,2.0,5.0,4.0,1650479192087998.0
1396,-1.0,0.0,2.0,4.0,0.0,1.0,-5.0,-6.0,1650479192095941.0
1397,-4.0,-7.0,-26.0,-14.0,-5.0,-3.0,2.0,0.0,1650479192095941.0
1398,-2.0,1.0,5.0,4.0,1.0,0.0,-3.0,-1.0,1650479192111455.0
1399,2.0,1.0,4.0,0.0,-1.0,1.0,0.0,-1.0,1650479192111455.0
1400,2.0,4.0,8.0,1.0,1.0,0.0,-5.0,0.0,1650479192112292.0
1401,1.0,1.0,0.0,-3.0,0.0,1.0,-3.0,-1.0,1650479192112292.0
1402,0.0,-4.0,-7.0,-4.0,-1.0,-2.0,-2.0,-4.0,1650479192125256.0
1403,-2.0,-1.0,1.0,2.0,2.0,-1.0,4.0,0.0,1650479192125256.0
1404,0.0,3.0,5.0,6.0,2.0,2.0,3.0,3.0,1650479192133235.0
1405,3.0,1.0,3.0,0.0,-2.0,-3.0,-7.0,0.0,1650479192133235.0
1406,-1.0,-6.0,-3.0,-4.0,1.0,0.0,5.0,1.0,1650479192148385.0
1407,0.0,-2.0,4.0,2.0,0.0,-1.0,-4.0,-3.0,1650479192148385.0
1408,0.0,0.0,-5.0,1.0,1.0,0.0,3.0,2.0,1650479192149382.0
1409,-4.0,-7.0,-14.0,-6.0,-3.0,-2.0,-5.0,-3.0,1650479192149382.0
1410,0.0,0.0,5.0,1.0,-1.0,-1.0,-4.0,-4.0,1650479192172138.0
1411,0.0,4.0,4.0,1.0,1.0,4.0,10.0,3.0,1650479192172138.0
1412,-1.0,0.0,-4.0,-2.0,-2.0,-2.0,-1.0,4.0,1650479192172138.0
1413,-1.0,1.0,7.0,4.0,0.0,-2.0,-3.0,-8.0,1650479192172138.0
1414,-1.0,3.0,-3.0,-1.0,0.0,0.0,-1.0,2.0,1650479192186135.0
1415,-1.0,-9.0,-4.0,-1.0,1.0,-3.0,-1.0,-2.0,1650479192186135.0
1416,1.0,0.0,7.0,1.0,1.0,1.0,2.0,2.0,1650479192187132.0
1417,0.0,4.0,12.0,7.0,1.0,1.0,0.0,1.0,1650479192187132.0
1418,-1.0,-4.0,-14.0,-8.0,-3.0,1.0,0.0,-1.0,1650479192208951.0
1419,0.0,2.0,-3.0,-2.0,-1.0,-1.0,-5.0,-4.0,1650479192208951.0
1420,-2.0,-4.0,-11.0,-4.0,0.0,-1.0,-1.0,-2.0,1650479192209247.0
1421,0.0,2.0,8.0,0.0,-2.0,-1.0,-1.0,0.0,1650479192209247.0
1422,2.0,5.0,12.0,6.0,0.0,1.0,4.0,1.0,1650479192232006.0
1423,-4.0,-7.0,-21.0,-10.0,-5.0,-6.0,-11.0,-2.0,1650479192232006.0
1424,1.0,4.0,7.0,3.0,3.0,3.0,8.0,-2.0,1650479192232006.0
1425,-3.0,-6.0,-15.0,-8.0,-6.0,-6.0,-7.0,-3.0,1650479192232006.0
1426,1.0,3.0,9.0,3.0,0.0,1.0,1.0,4.0,1650479192254501.0
1427,-1.0,0.0,1.0,0.0,2.0,-1.0,-7.0,-4.0,1650479192254501.0
1428,0.0,-1.0,5.0,0.0,-2.0,-2.0,0.0,-1.0,1650479192254501.0
1429,2.0,1.0,1.0,-1.0,6.0,0.0,3.0,-1.0,1650479192254501.0
1430,-1.0,-1.0,5.0,1.0,-3.0,-2.0,-2.0,-2.0,1650479192268935.0
1431,-3.0,-4.0,-16.0,-7.0,-1.0,-2.0,-9.0,-4.0,1650479192268935.0
1432,0.0,1.0,2.0,2.0,2.0,1.0,2.0,-1.0,1650479192269526.0
1433,-1.0,1.0,-4.0,-2.0,-2.0,-2.0,-2.0,-2.0,1650479192269526.0
1434,0.0,-2.0,-3.0,-3.0,-2.0,-2.0,0.0,0.0,1650479192292060.0
1435,1.0,3.0,7.0,4.0,0.0,2.0,1.0,1.0,1650479192292060.0
1436,-1.0,-1.0,2.0,-1.0,-1.0,-3.0,-9.0,-2.0,1650479192292060.0
1437,0.0,-1.0,-4.0,-2.0,-1.0,0.0,-4.0,0.0,1650479192292060.0
1438,0.0,1.0,2.0,2.0,0.0,3.0,11.0,7.0,1650479192305989.0
1439,-3.0,-2.0,-2.0,-2.0,-5.0,-1.0,1.0,-4.0,1650479192305989.0
1440,-1.0,-1.0,-7.0,-2.0,-3.0,0.0,-2.0,0.0,1650479192306988.0
1441,1.0,2.0,6.0,4.0,2.0,-2.0,0.0,-1.0,1650479192306988.0
1442,-2.0,-1.0,-3.0,-1.0,1.0,-3.0,-5.0,0.0,1650479192328151.0
1443,2.0,2.0,9.0,5.0,1.0,1.0,4.0,0.0,1650479192328151.0
1444,0.0,-4.0,-7.0,-4.0,-1.0,-1.0,-1.0,1.0,1650479192329004.0
1445,-2.0,-1.0,3.0,2.0,0.0,-1.0,-1.0,1.0,1650479192329004.0
1446,-1.0,-2.0,-2.0,-1.0,-3.0,-2.0,-2.0,-5.0,1650479192351450.0
1447,-1.0,-4.0,0.0,-2.0,-1.0,-1.0,1.0,-1.0,1650479192351450.0
1448,0.0,3.0,4.0,2.0,1.0,-1.0,-2.0,-1.0,1650479192352294.0
1449,2.0,1.0,4.0,5.0,1.0,3.0,3.0,1.0,1650479192352294.0
1450,-4.0,-13.0,-30.0,-18.0,-7.0,-4.0,-6.0,-4.0,1650479192374778.0
1451,2.0,4.0,9.0,2.0,-1.0,0.0,0.0,1.0,1650479192374778.0
1452,-1.0,-2.0,-2.0,-1.0,-2.0,-1.0,4.0,2.0,1650479192374778.0
1453,1.0,3.0,7.0,3.0,2.0,3.0,-3.0,0.0,1650479192374778.0
1454,2.0,4.0,8.0,3.0,2.0,0.0,5.0,-2.0,1650479192389050.0
1455,-1.0,-3.0,-4.0,-2.0,1.0,-4.0,-2.0,-2.0,1650479192389050.0
1456,-1.0,-1.0,-2.0,-2.0,-2.0,-5.0,-8.0,0.0,1650479192389050.0
1457,-1.0,-2.0,0.0,0.0,1.0,0.0,1.0,-4.0,1650479192389050.0
1458,1.0,2.0,1.0,0.0,-1.0,1.0,2.0,1.0,1650479192411973.0
1459,-1.0,-2.0,0.0,0.0,0.0,0.0,-1.0,0.0,1650479192411973.0
1460,1.0,-2.0,-6.0,-3.0,-1.0,-1.0,-1.0,-1.0,1650479192412973.0
1461,0.0,-1.0,0.0,1.0,0.0,0.0,1.0,1.0,1650479192412973.0
1462,1.0,1.0,3.0,1.0,-1.0,-1.0,-3.0,0.0,1650479192426030.0
1463,-1.0,-2.0,-7.0,-6.0,-3.0,-2.0,-2.0,1.0,1650479192426030.0
1464,-1.0,0.0,4.0,2.0,-1.0,-2.0,-2.0,-2.0,1650479192426877.0
1465,-1.0,-1.0,-5.0,-2.0,1.0,-1.0,-4.0,-1.0,1650479192426877.0
1466,1.0,1.0,0.0,1.0,3.0,3.0,-1.0,-1.0,1650479192449157.0
1467,2.0,4.0,6.0,2.0,-1.0,-2.0,4.0,1.0,1650479192449157.0
1468,-1.0,0.0,-4.0,-2.0,0.0,-1.0,-8.0,-2.0,1650479192449157.0
1469,1.0,-1.0,4.0,1.0,-1.0,3.0,16.0,3.0,1650479192449157.0
1470,0.0,2.0,0.0,4.0,1.0,0.0,3.0,1.0,1650479192472128.0
1471,-2.0,-3.0,-6.0,-1.0,-1.0,-1.0,-7.0,-4.0,1650479192472128.0
1472,1.0,0.0,-4.0,-4.0,0.0,1.0,1.0,-2.0,1650479192472128.0
1473,-1.0,-4.0,0.0,-1.0,-1.0,-2.0,-3.0,-1.0,1650479192472128.0
1474,-2.0,4.0,10.0,5.0,0.0,1.0,-3.0,2.0,1650479192486256.0
1475,1.0,0.0,-1.0,-1.0,-3.0,3.0,9.0,2.0,1650479192486256.0
1476,-1.0,-3.0,-7.0,-1.0,-1.0,-1.0,4.0,0.0,1650479192487120.0
1477,2.0,4.0,7.0,1.0,1.0,2.0,-5.0,-2.0,1650479192487120.0
1478,-3.0,-7.0,-12.0,-6.0,-5.0,-3.0,-3.0,-1.0,1650479192509022.0
1479,-2.0,0.0,-3.0,-5.0,-5.0,-3.0,-4.0,-3.0,1650479192509022.0
1480,1.0,-2.0,5.0,3.0,2.0,0.0,2.0,1.0,1650479192509216.0
1481,1.0,6.0,4.0,2.0,1.0,-1.0,2.0,0.0,1650479192509216.0
1482,0.0,0.0,1.0,1.0,3.0,-1.0,-2.0,-1.0,1650479192531531.0
1483,-2.0,1.0,-1.0,1.0,2.0,0.0,0.0,1.0,1650479192531531.0
1484,0.0,1.0,4.0,-1.0,-3.0,-1.0,0.0,0.0,1650479192532377.0
1485,0.0,-1.0,-1.0,0.0,-1.0,0.0,4.0,2.0,1650479192532377.0
1486,-1.0,-6.0,-7.0,-2.0,-1.0,0.0,1.0,-2.0,1650479192545829.0
1487,-4.0,-6.0,-10.0,-7.0,-3.0,-3.0,-2.0,-3.0,1650479192545829.0
1488,-1.0,-1.0,0.0,-1.0,1.0,-1.0,-3.0,-2.0,1650479192546831.0
1489,1.0,-1.0,1.0,1.0,0.0,-1.0,-2.0,0.0,1650479192546831.0
1490,0.0,4.0,9.0,3.0,-1.0,-1.0,-2.0,0.0,1650479192567996.0
1491,1.0,0.0,1.0,2.0,3.0,1.0,2.0,2.0,1650479192567996.0
1492,-3.0,0.0,2.0,0.0,-1.0,0.0,2.0,-1.0,1650479192568993.0
1493,-2.0,-3.0,-6.0,-5.0,-5.0,-3.0,-2.0,-1.0,1650479192568993.0
1494,2.0,0.0,-3.0,-1.0,-1.0,-2.0,-2.0,-3.0,1650479192592010.0
1495,0.0,-4.0,-1.0,2.0,1.0,1.0,-1.0,0.0,1650479192592010.0
1496,0.0,1.0,1.0,1.0,-1.0,-1.0,12.0,2.0,1650479192592010.0
1497,-2.0,0.0,-4.0,-2.0,1.0,-1.0,-4.0,-2.0,1650479192592010.0
1498,-2.0,-2.0,-3.0,-3.0,-4.0,1.0,1.0,0.0,1650479192605830.0
1499,2.0,2.0,6.0,2.0,0.0,-1.0,-1.0,-1.0,1650479192605830.0
1500,1.0,0.0,8.0,1.0,0.0,0.0,-9.0,-4.0,1650479192613993.0
1501,-5.0,-8.0,-16.0,-8.0,-5.0,-3.0,0.0,0.0,1650479192613993.0
1502,0.0,-1.0,-2.0,1.0,3.0,1.0,2.0,1.0,1650479192628136.0
1503,0.0,1.0,0.0,1.0,0.0,0.0,-1.0,0.0,1650479192628136.0
1504,-1.0,-1.0,1.0,1.0,-2.0,0.0,0.0,1.0,1650479192629136.0
1505,2.0,-2.0,3.0,0.0,1.0,-2.0,-4.0,-3.0,1650479192629136.0
1506,-2.0,-4.0,1.0,-2.0,0.0,1.0,0.0,-2.0,1650479192651993.0
1507,-1.0,2.0,1.0,3.0,1.0,1.0,8.0,4.0,1650479192651993.0
1508,-1.0,-2.0,-10.0,-6.0,-3.0,-2.0,-3.0,0.0,1650479192652837.0
1509,-1.0,1.0,1.0,0.0,-1.0,0.0,-3.0,-5.0,1650479192652837.0
1510,-1.0,2.0,0.0,-1.0,-1.0,-2.0,-2.0,0.0,1650479192664890.0
1511,0.0,0.0,3.0,0.0,0.0,1.0,-2.0,-1.0,1650479192664890.0
1512,1.0,4.0,-3.0,-1.0,2.0,0.0,-1.0,-1.0,1650479192674112.0
1513,-2.0,-4.0,-12.0,-7.0,-5.0,-1.0,-3.0,0.0,1650479192674112.0
1514,-1.0,0.0,2.0,1.0,2.0,0.0,1.0,0.0,1650479192688496.0
1515,-1.0,0.0,2.0,1.0,-1.0,-2.0,-2.0,0.0,1650479192688496.0
1516,-1.0,1.0,2.0,2.0,0.0,-2.0,-3.0,-1.0,1650479192689352.0
1517,0.0,0.0,0.0,0.0,1.0,0.0,-1.0,1.0,1650479192689352.0
1518,-1.0,-1.0,0.0,0.0,-1.0,0.0,5.0,2.0,1650479192711963.0
1519,0.0,-3.0,-2.0,-1.0,0.0,-1.0,-7.0,-3.0,1650479192711963.0
1520,0.0,-1.0,-2.0,2.0,1.0,2.0,2.0,0.0,1650479192711963.0
1521,0.0,2.0,3.0,3.0,1.0,2.0,1.0,2.0,1650479192711963.0
1522,-1.0,-1.0,-1.0,-3.0,-2.0,-2.0,-2.0,-3.0,1650479192725906.0
1523,1.0,3.0,7.0,2.0,0.0,1.0,4.0,1.0,1650479192725906.0
1524,-1.0,-4.0,-7.0,-4.0,-2.0,-2.0,-2.0,-1.0,1650479192734042.0
1525,-1.0,-1.0,-2.0,-3.0,1.0,0.0,-2.0,0.0,1650479192734042.0
1526,1.0,-1.0,-1.0,1.0,0.0,1.0,-5.0,-1.0,1650479192748040.0
1527,1.0,2.0,6.0,2.0,-1.0,0.0,4.0,1.0,1650479192748040.0
1528,1.0,0.0,-2.0,-2.0,-1.0,-1.0,-2.0,0.0,1650479192748898.0
1529,0.0,-1.0,2.0,1.0,-3.0,-2.0,2.0,0.0,1650479192748898.0
1530,-1.0,-3.0,-5.0,-1.0,1.0,-1.0,0.0,-2.0,1650479192772004.0
1531,-1.0,0.0,0.0,-2.0,-1.0,0.0,-5.0,-2.0,1650479192772004.0
1532,-1.0,-3.0,-4.0,-6.0,-2.0,0.0,4.0,1.0,1650479192772004.0
1533,3.0,3.0,7.0,2.0,0.0,-1.0,2.0,0.0,1650479192772004.0
1534,-3.0,-2.0,-6.0,-3.0,-3.0,-3.0,-5.0,-2.0,1650479192785159.0
1535,0.0,-2.0,2.0,-1.0,2.0,1.0,2.0,0.0,1650479192785159.0
1536,0.0,-1.0,1.0,3.0,1.0,1.0,0.0,1.0,1650479192794124.0
1537,-2.0,-1.0,0.0,0.0,-1.0,-2.0,-2.0,-1.0,1650479192794124.0
1538,2.0,2.0,4.0,3.0,-1.0,0.0,-2.0,-1.0,1650479192809035.0
1539,0.0,-1.0,-6.0,-1.0,0.0,0.0,-1.0,0.0,1650479192809035.0
1540,0.0,2.0,1.0,1.0,-2.0,0.0,-4.0,-1.0,1650479192809035.0
1541,0.0,-2.0,-1.0,0.0,0.0,-2.0,-4.0,0.0,1650479192809035.0
1542,-1.0,1.0,5.0,2.0,1.0,2.0,7.0,1.0,1650479192832276.0
1543,-3.0,-6.0,-15.0,-7.0,-6.0,-1.0,2.0,-1.0,1650479192832276.0
1544,0.0,-1.0,1.0,0.0,-2.0,-2.0,-4.0,-1.0,1650479192832276.0
1545,-1.0,-1.0,-4.0,0.0,1.0,0.0,-3.0,1.0,1650479192832276.0
1546,-1.0,-2.0,0.0,-1.0,-2.0,-4.0,-3.0,-1.0,1650479192845263.0
1547,0.0,2.0,2.0,2.0,0.0,-2.0,-1.0,0.0,1650479192845263.0
1548,-1.0,-2.0,1.0,2.0,0.0,2.0,2.0,-1.0,1650479192854133.0
1549,0.0,-1.0,-3.0,0.0,-1.0,1.0,3.0,0.0,1650479192854133.0
1550,0.0,0.0,-2.0,-4.0,-1.0,-1.0,-1.0,-2.0,1650479192868233.0
1551,-1.0,-1.0,2.0,-1.0,-2.0,-1.0,-2.0,0.0,1650479192868233.0
1552,0.0,-2.0,1.0,-1.0,-1.0,-2.0,-5.0,-2.0,1650479192869233.0
1553,1.0,3.0,4.0,-1.0,0.0,0.0,8.0,0.0,1650479192869233.0
1554,-1.0,0.0,-5.0,-2.0,-1.0,1.0,-1.0,-1.0,1650479192891997.0
1555,0.0,-3.0,-7.0,-2.0,-2.0,-2.0,-1.0,0.0,1650479192891997.0
1556,-1.0,0.0,-3.0,-3.0,-1.0,-3.0,-4.0,-5.0,1650479192891997.0
1557,-2.0,-2.0,2.0,0.0,1.0,1.0,-1.0,0.0,1650479192891997.0
1558,-1.0,0.0,1.0,1.0,1.0,0.0,-1.0,0.0,1650479192905310.0
1559,0.0,3.0,5.0,2.0,-2.0,-1.0,0.0,1.0,1650479192905310.0
1560,0.0,0.0,-3.0,-1.0,-2.0,0.0,3.0,0.0,1650479192914006.0
1561,1.0,-1.0,-2.0,-2.0,0.0,0.0,3.0,-1.0,1650479192914006.0
1562,1.0,1.0,2.0,2.0,0.0,-3.0,-5.0,1.0,1650479192928155.0
1563,1.0,2.0,6.0,2.0,1.0,2.0,4.0,0.0,1650479192928155.0
1564,-2.0,-2.0,-4.0,-3.0,0.0,1.0,2.0,2.0,1650479192928985.0
1565,0.0,-3.0,-5.0,-3.0,-2.0,-2.0,-1.0,-1.0,1650479192928985.0
1566,0.0,0.0,2.0,1.0,-1.0,1.0,-5.0,-4.0,1650479192951228.0
1567,0.0,3.0,0.0,-1.0,-1.0,-1.0,-3.0,-2.0,1650479192951228.0
1568,1.0,1.0,8.0,3.0,-1.0,1.0,6.0,1.0,1650479192952067.0
1569,0.0,1.0,0.0,0.0,0.0,1.0,1.0,0.0,1650479192952067.0
1570,0.0,1.0,0.0,-2.0,1.0,0.0,1.0,1.0,1650479192974832.0
1571,-1.0,-2.0,-5.0,-4.0,-2.0,-3.0,-5.0,-3.0,1650479192974832.0
1572,0.0,0.0,0.0,0.0,0.0,-1.0,2.0,0.0,1650479192974832.0
1573,-1.0,2.0,2.0,5.0,2.0,-1.0,-5.0,0.0,1650479192974832.0
1574,-2.0,-6.0,-5.0,-5.0,-6.0,-2.0,3.0,2.0,1650479192989057.0
1575,-1.0,-3.0,-6.0,-2.0,-3.0,-3.0,-3.0,-3.0,1650479192989057.0
1576,1.0,0.0,-3.0,-2.0,-2.0,-1.0,-2.0,0.0,1650479192989057.0
1577,1.0,0.0,2.0,1.0,1.0,1.0,-1.0,-1.0,1650479192989057.0
1578,0.0,3.0,6.0,4.0,0.0,0.0,1.0,0.0,1650479193011957.0
1579,-1.0,2.0,3.0,0.0,1.0,0.0,1.0,-3.0,1650479193011957.0
1580,-3.0,-2.0,-6.0,-4.0,-4.0,-4.0,-4.0,-3.0,1650479193011957.0
1581,-2.0,0.0,-3.0,-1.0,-2.0,-1.0,-1.0,-2.0,1650479193011957.0
1582,-1.0,0.0,-3.0,0.0,0.0,2.0,1.0,-1.0,1650479193034808.0
1583,0.0,-6.0,2.0,0.0,-2.0,-1.0,0.0,1.0,1650479193034808.0
1584,0.0,-1.0,4.0,-1.0,2.0,-1.0,-3.0,0.0,1650479193034808.0
1585,0.0,0.0,0.0,-2.0,-2.0,0.0,2.0,-1.0,1650479193034808.0
1586,-1.0,0.0,-3.0,-1.0,1.0,-1.0,0.0,0.0,1650479193048992.0
1587,0.0,2.0,6.0,5.0,0.0,-1.0,-3.0,1.0,1650479193048992.0
1588,-1.0,0.0,-2.0,1.0,0.0,-1.0,-2.0,-2.0,1650479193048992.0
1589,-2.0,-7.0,-10.0,-5.0,-3.0,-1.0,0.0,-1.0,1650479193048992.0
1590,0.0,-1.0,2.0,-1.0,-1.0,-3.0,0.0,-1.0,1650479193071973.0
1591,-1.0,1.0,-1.0,-2.0,2.0,-1.0,-1.0,0.0,1650479193071973.0
1592,0.0,1.0,6.0,4.0,1.0,1.0,4.0,0.0,1650479193071973.0
1593,1.0,0.0,0.0,0.0,-2.0,-3.0,-4.0,0.0,1650479193071973.0
1594,0.0,-2.0,-1.0,1.0,0.0,2.0,5.0,2.0,1650479193094780.0
1595,-1.0,0.0,1.0,2.0,3.0,0.0,-2.0,0.0,1650479193094780.0
1596,-1.0,-1.0,-6.0,-2.0,0.0,1.0,4.0,0.0,1650479193094780.0
1597,-1.0,0.0,-6.0,-4.0,-3.0,-5.0,-3.0,-1.0,1650479193094780.0
1598,1.0,1.0,4.0,0.0,-2.0,-1.0,-2.0,-2.0,1650479193109083.0
1599,-1.0,0.0,-1.0,-2.0,1.0,1.0,0.0,2.0,1650479193109083.0
1600,-2.0,-7.0,-6.0,-3.0,-2.0,-2.0,-2.0,-1.0,1650479193109083.0
1601,-1.0,4.0,5.0,4.0,1.0,0.0,0.0,-2.0,1650479193109083.0
1602,0.0,-2.0,-1.0,-1.0,0.0,-1.0,0.0,0.0,1650479193132049.0
1603,1.0,0.0,-1.0,-2.0,-1.0,-1.0,-2.0,-1.0,1650479193132049.0
1604,-2.0,0.0,6.0,3.0,2.0,2.0,0.0,-1.0,1650479193132049.0
1605,-1.0,-2.0,-4.0,-4.0,-1.0,-2.0,-2.0,1.0,1650479193132049.0
1606,-2.0,-1.0,-1.0,0.0,-3.0,-3.0,-4.0,-1.0,1650479193153873.0
1607,1.0,-1.0,-5.0,-2.0,-1.0,0.0,4.0,0.0,1650479193153873.0
1608,-1.0,-2.0,-3.0,-3.0,-2.0,-2.0,-6.0,-3.0,1650479193154870.0
1609,2.0,2.0,4.0,1.0,-2.0,-2.0,2.0,2.0,1650479193154870.0
1610,0.0,-1.0,-1.0,1.0,0.0,2.0,5.0,-1.0,1650479193168839.0
1611,-1.0,-3.0,-4.0,-4.0,-2.0,-1.0,-1.0,-1.0,1650479193168839.0
1612,0.0,3.0,2.0,1.0,-2.0,-1.0,3.0,1.0,1650479193168839.0
1613,-1.0,2.0,1.0,1.0,0.0,1.0,-3.0,-2.0,1650479193168839.0
1614,-2.0,0.0,-1.0,0.0,-1.0,2.0,0.0,0.0,1650479193191954.0
1615,-1.0,-3.0,-1.0,-1.0,-1.0,-1.0,2.0,-2.0,1650479193191954.0
1616,0.0,0.0,4.0,1.0,0.0,-2.0,-3.0,-1.0,1650479193191954.0
1617,-2.0,-1.0,0.0,-1.0,-1.0,0.0,1.0,-1.0,1650479193191954.0
1618,-2.0,-1.0,-10.0,-6.0,-3.0,-2.0,-4.0,-2.0,1650479193214806.0
1619,1.0,1.0,0.0,1.0,0.0,-1.0,-1.0,1.0,1650479193214806.0
1620,1.0,1.0,2.0,-1.0,-2.0,0.0,1.0,0.0,1650479193214806.0
1621,-1.0,-3.0,2.0,1.0,2.0,2.0,2.0,0.0,1650479193214806.0
1622,0.0,0.0,1.0,-2.0,-1.0,-1.0,1.0,0.0,1650479193228049.0
1623,-2.0,-2.0,-1.0,-2.0,-1.0,0.0,-5.0,-3.0,1650479193228049.0
1624,0.0,1.0,0.0,1.0,1.0,2.0,5.0,4.0,1650479193228905.0
1625,0.0,-2.0,0.0,-1.0,-1.0,0.0,0.0,-1.0,1650479193228905.0
1626,0.0,-1.0,1.0,-1.0,1.0,0.0,-7.0,-2.0,1650479193251701.0
1627,-1.0,-1.0,0.0,0.0,-1.0,0.0,4.0,1.0,1650479193251701.0
1628,0.0,-1.0,-4.0,-1.0,-3.0,0.0,-3.0,-2.0,1650479193252559.0
1629,0.0,2.0,-1.0,0.0,-1.0,-1.0,-1.0,-1.0,1650479193252559.0
1630,0.0,1.0,1.0,1.0,-1.0,-1.0,0.0,1.0,1650479193274782.0
1631,0.0,2.0,-2.0,-3.0,-2.0,-2.0,-4.0,-2.0,1650479193274782.0
1632,-1.0,-1.0,-3.0,-3.0,-2.0,-2.0,0.0,-1.0,1650479193275168.0
1633,-2.0,-2.0,-3.0,-1.0,3.0,2.0,1.0,-1.0,1650479193275168.0
1634,2.0,-3.0,1.0,0.0,-2.0,-2.0,-3.0,-1.0,1650479193288513.0
1635,-1.0,0.0,2.0,2.0,1.0,2.0,3.0,0.0,1650479193288513.0
1636,-1.0,-1.0,1.0,-1.0,1.0,-1.0,-2.0,0.0,1650479193289350.0
1637,0.0,2.0,2.0,1.0,-2.0,1.0,3.0,0.0,1650479193289350.0
1638,1.0,0.0,3.0,1.0,0.0,-1.0,1.0,-1.0,1650479193311911.0
1639,-2.0,-3.0,-2.0,-2.0,-2.0,-3.0,1.0,-2.0,1650479193311911.0
1640,-1.0,-1.0,1.0,0.0,1.0,-1.0,-4.0,-3.0,1650479193311911.0
1641,0.0,1.0,2.0,1.0,2.0,2.0,8.0,4.0,1650479193311911.0
1642,-4.0,-5.0,-14.0,-7.0,-3.0,-2.0,-4.0,-5.0,1650479193333812.0
1643,0.0,-1.0,1.0,1.0,-1.0,-1.0,-1.0,1.0,1650479193333812.0
1644,0.0,0.0,0.0,-2.0,-1.0,-2.0,-2.0,-1.0,1650479193334813.0
1645,1.0,-1.0,3.0,2.0,0.0,-1.0,-5.0,-2.0,1650479193334813.0
1646,-1.0,1.0,-2.0,-1.0,0.0,0.0,5.0,0.0,1650479193349051.0
1647,-2.0,0.0,-5.0,0.0,0.0,1.0,2.0,2.0,1650479193349051.0
1648,1.0,-1.0,1.0,1.0,-2.0,0.0,0.0,-1.0,1650479193349051.0
1649,-1.0,-1.0,-2.0,-2.0,-3.0,-2.0,-1.0,-3.0,1650479193349051.0
1650,-1.0,-5.0,-6.0,-2.0,-1.0,-1.0,-1.0,-3.0,1650479193372181.0
1651,0.0,-1.0,1.0,-2.0,-2.0,-1.0,-2.0,-3.0,1650479193372181.0
1652,-2.0,-3.0,0.0,0.0,0.0,-2.0,-1.0,-2.0,1650479193372181.0
1653,-1.0,-2.0,0.0,-1.0,-2.0,-1.0,2.0,1.0,1650479193372181.0
1654,-1.0,1.0,3.0,1.0,1.0,-2.0,-2.0,0.0,1650479193394776.0
1655,2.0,3.0,5.0,1.0,0.0,1.0,0.0,1.0,1650479193394776.0
1656,1.0,-2.0,-6.0,-5.0,-3.0,-1.0,-2.0,0.0,1650479193394776.0
1657,0.0,-3.0,0.0,-2.0,-2.0,-1.0,-1.0,-1.0,1650479193394776.0
1658,1.0,2.0,2.0,3.0,0.0,0.0,0.0,-1.0,1650479193409083.0
1659,-1.0,1.0,0.0,0.0,0.0,0.0,-3.0,-2.0,1650479193409083.0
1660,-1.0,1.0,2.0,2.0,-1.0,3.0,4.0,1.0,1650479193409083.0
1661,0.0,-1.0,-6.0,-3.0,-3.0,-5.0,-7.0,-3.0,1650479193409083.0
1662,-3.0,-3.0,-2.0,0.0,1.0,1.0,10.0,5.0,1650479193432133.0
1663,-3.0,1.0,-2.0,0.0,-1.0,-2.0,-4.0,-1.0,1650479193432133.0
1664,0.0,0.0,1.0,0.0,-1.0,-1.0,-1.0,0.0,1650479193432133.0
1665,0.0,2.0,4.0,1.0,-1.0,0.0,-2.0,0.0,1650479193432133.0
1666,1.0,3.0,2.0,-1.0,-2.0,-2.0,-4.0,-1.0,1650479193454126.0
1667,-2.0,-2.0,-6.0,-2.0,-3.0,1.0,3.0,-1.0,1650479193454126.0
1668,-2.0,0.0,-2.0,0.0,-1.0,-1.0,0.0,-2.0,1650479193455125.0
1669,-2.0,2.0,-1.0,0.0,1.0,-3.0,-1.0,0.0,1650479193455125.0
1670,0.0,-2.0,1.0,1.0,-1.0,-2.0,-1.0,0.0,1650479193469118.0
1671,0.0,-1.0,2.0,1.0,1.0,4.0,3.0,3.0,1650479193469118.0
1672,0.0,0.0,0.0,0.0,0.0,-2.0,-2.0,0.0,1650479193469118.0
1673,-2.0,-2.0,2.0,2.0,0.0,-1.0,-2.0,-3.0,1650479193469118.0
1674,0.0,-3.0,-5.0,-3.0,-3.0,-2.0,-5.0,1.0,1650479193492011.0
1675,-1.0,-1.0,-2.0,0.0,-3.0,-2.0,1.0,-2.0,1650479193492011.0
1676,0.0,0.0,0.0,0.0,-2.0,-2.0,2.0,2.0,1650479193492011.0
1677,-1.0,0.0,2.0,-1.0,1.0,-1.0,-6.0,-3.0,1650479193492011.0
1678,0.0,0.0,4.0,1.0,3.0,1.0,2.0,0.0,1650479193514813.0
1679,1.0,-3.0,-2.0,-1.0,0.0,1.0,0.0,-2.0,1650479193514813.0
1680,-2.0,-2.0,-6.0,-1.0,-2.0,-1.0,-1.0,-3.0,1650479193514813.0
1681,-2.0,-1.0,-1.0,1.0,-1.0,-3.0,1.0,1.0,1650479193514813.0
1682,-3.0,-2.0,-2.0,-2.0,-2.0,1.0,1.0,-1.0,1650479193536372.0
1683,-1.0,0.0,4.0,1.0,0.0,-2.0,1.0,-1.0,1650479193536372.0
1684,-1.0,0.0,2.0,2.0,3.0,2.0,2.0,-1.0,1650479193537370.0
1685,1.0,-1.0,-3.0,-1.0,0.0,0.0,-1.0,0.0,1650479193537370.0
1686,0.0,-1.0,-3.0,-1.0,-1.0,-1.0,-1.0,0.0,1650479193551690.0
1687,-2.0,2.0,1.0,1.0,-1.0,-2.0,-4.0,0.0,1650479193551690.0
1688,0.0,1.0,-1.0,-3.0,-1.0,0.0,4.0,2.0,1650479193552527.0
1689,-1.0,-1.0,2.0,0.0,-3.0,0.0,0.0,-1.0,1650479193552527.0
1690,0.0,1.0,3.0,2.0,0.0,0.0,-1.0,1.0,1650479193574810.0
1691,-1.0,-1.0,-2.0,0.0,1.0,0.0,-3.0,1.0,1650479193574810.0
1692,2.0,0.0,1.0,1.0,0.0,2.0,-3.0,-1.0,1650479193574810.0
1693,-2.0,-4.0,-10.0,-6.0,-4.0,-1.0,-2.0,1.0,1650479193574810.0
1694,-1.0,0.0,-2.0,0.0,-2.0,0.0,-3.0,-2.0,1650479193588207.0
1695,1.0,1.0,0.0,2.0,0.0,1.0,4.0,1.0,1650479193588207.0
1696,-3.0,2.0,1.0,1.0,1.0,-2.0,-3.0,-1.0,1650479193603939.0
1697,-1.0,-1.0,-4.0,-3.0,0.0,0.0,2.0,-1.0,1650479193603939.0
1698,-1.0,-1.0,2.0,0.0,-1.0,-2.0,-3.0,-2.0,1650479193611080.0
1699,2.0,2.0,0.0,1.0,0.0,-1.0,-2.0,-1.0,1650479193611080.0
1700,-1.0,-3.0,-6.0,-5.0,0.0,0.0,0.0,-1.0,1650479193611967.0
1701,0.0,0.0,0.0,1.0,-1.0,-1.0,-1.0,-2.0,1650479193611967.0
1702,1.0,1.0,2.0,0.0,2.0,-1.0,-3.0,0.0,1650479193633954.0
1703,0.0,-1.0,0.0,-2.0,-1.0,-1.0,2.0,-1.0,1650479193633954.0
1704,0.0,-2.0,-1.0,0.0,-3.0,-3.0,-2.0,-1.0,1650479193634948.0
1705,-2.0,0.0,1.0,2.0,-1.0,-1.0,-4.0,-1.0,1650479193634948.0
1706,1.0,-1.0,-1.0,0.0,0.0,1.0,6.0,2.0,1650479193648018.0
1707,0.0,-1.0,0.0,-3.0,0.0,0.0,-1.0,-3.0,1650479193648018.0
1708,0.0,-1.0,-3.0,-1.0,0.0,2.0,2.0,0.0,1650479193655995.0
1709,1.0,1.0,1.0,-1.0,-2.0,-1.0,-1.0,-1.0,1650479193655995.0
1710,-2.0,0.0,0.0,-1.0,-3.0,-5.0,-1.0,-2.0,1650479193671996.0
1711,-1.0,-1.0,1.0,0.0,-4.0,-2.0,-1.0,-1.0,1650479193671996.0
1712,0.0,-1.0,0.0,0.0,1.0,1.0,0.0,-1.0,1650479193671996.0
1713,0.0,-2.0,-3.0,0.0,2.0,1.0,0.0,-2.0,1650479193671996.0
1714,-2.0,0.0,2.0,-2.0,-3.0,-2.0,0.0,-3.0,1650479193694724.0
1715,-2.0,-1.0,0.0,0.0,0.0,-1.0,-2.0,0.0,1650479193694724.0
1716,-1.0,-2.0,2.0,1.0,-2.0,-2.0,-5.0,0.0,1650479193694724.0
1717,-1.0,-1.0,-5.0,2.0,1.0,1.0,6.0,2.0,1650479193694724.0
1718,1.0,1.0,3.0,0.0,-2.0,1.0,-4.0,0.0,1650479193708186.0
1719,-1.0,-3.0,-1.0,-6.0,-2.0,-1.0,-2.0,-1.0,1650479193708186.0
1720,0.0,0.0,-2.0,-1.0,1.0,3.0,2.0,0.0,1650479193716212.0
1721,-1.0,-1.0,2.0,-1.0,0.0,2.0,2.0,1.0,1650479193716212.0
1722,-1.0,0.0,-8.0,6.0,0.0,0.0,-1.0,-1.0,1650479193732158.0
1723,-4.0,-1.0,4.0,0.0,-1.0,-1.0,-4.0,-5.0,1650479193732158.0
1724,0.0,0.0,-6.0,-9.0,-4.0,-4.0,-6.0,1.0,1650479193732158.0
1725,0.0,2.0,11.0,-1.0,1.0,1.0,2.0,-1.0,1650479193732158.0
1726,1.0,-2.0,-4.0,9.0,2.0,2.0,5.0,2.0,1650479193754773.0
1727,1.0,-4.0,1.0,-1.0,0.0,0.0,0.0,2.0,1650479193754773.0
1728,-3.0,-6.0,-11.0,-14.0,-3.0,-3.0,-1.0,-3.0,1650479193754773.0
1729,1.0,6.0,10.0,19.0,3.0,-1.0,-4.0,-1.0,1650479193754773.0
1730,-2.0,-8.0,-15.0,-29.0,-4.0,0.0,-2.0,-2.0,1650479193768096.0
1731,0.0,2.0,-1.0,1.0,-4.0,-3.0,0.0,0.0,1650479193768096.0
1732,0.0,6.0,14.0,7.0,-1.0,0.0,-2.0,-3.0,1650479193775994.0
1733,-2.0,-3.0,-7.0,-4.0,-3.0,-1.0,-4.0,-5.0,1650479193775994.0
1734,1.0,2.0,-13.0,7.0,4.0,1.0,-1.0,-1.0,1650479193790910.0
1735,-5.0,1.0,0.0,5.0,0.0,-1.0,-5.0,-6.0,1650479193790910.0
1736,-2.0,5.0,-8.0,-13.0,-7.0,-5.0,-1.0,-3.0,1650479193799311.0
1737,4.0,-5.0,11.0,8.0,6.0,3.0,6.0,1.0,1650479193799311.0
1738,-4.0,7.0,31.0,10.0,3.0,1.0,-4.0,-3.0,1650479193814777.0
1739,0.0,-22.0,-55.0,-25.0,-9.0,-2.0,4.0,8.0,1650479193814777.0
1740,4.0,21.0,29.0,19.0,0.0,-2.0,-3.0,1.0,1650479193814777.0
1741,-3.0,-2.0,-11.0,-4.0,2.0,1.0,0.0,1.0,1650479193814777.0
1742,3.0,-1.0,-16.0,-9.0,-5.0,-4.0,1.0,-1.0,1650479193828207.0
1743,0.0,5.0,15.0,5.0,6.0,4.0,1.0,-3.0,1650479193828207.0
1744,-3.0,-14.0,-20.0,-4.0,-4.0,-2.0,-6.0,-1.0,1650479193835583.0
1745,0.0,12.0,20.0,1.0,-1.0,0.0,6.0,2.0,1650479193835583.0
1746,-2.0,-5.0,-3.0,-4.0,-1.0,-3.0,-4.0,-1.0,1650479193851729.0
1747,1.0,-3.0,5.0,7.0,0.0,-2.0,-5.0,0.0,1650479193851729.0
1748,4.0,-14.0,-11.0,-2.0,1.0,2.0,4.0,4.0,1650479193852582.0
1749,-3.0,-2.0,20.0,-2.0,-2.0,-1.0,-7.0,1.0,1650479193852582.0
1750,-6.0,-8.0,-10.0,-4.0,-8.0,-5.0,-6.0,-10.0,1650479193874411.0
1751,11.0,13.0,8.0,10.0,9.0,7.0,12.0,15.0,1650479193874411.0
1752,-8.0,3.0,-9.0,-4.0,-1.0,-2.0,-4.0,-6.0,1650479193874411.0
1753,7.0,-15.0,-26.0,-17.0,-4.0,-4.0,3.0,1.0,1650479193874411.0
1754,5.0,17.0,29.0,13.0,4.0,1.0,3.0,1.0,1650479193896873.0
1755,-1.0,-2.0,0.0,1.0,2.0,2.0,-1.0,1.0,1650479193896873.0
1756,-7.0,-14.0,-25.0,-14.0,-6.0,-3.0,4.0,-1.0,1650479193896873.0
1757,1.0,10.0,13.0,8.0,2.0,0.0,-2.0,4.0,1650479193896873.0
1758,3.0,-1.0,7.0,3.0,2.0,1.0,2.0,2.0,1650479193911551.0
1759,-11.0,-2.0,5.0,2.0,1.0,-2.0,-3.0,-13.0,1650479193911551.0
1760,13.0,7.0,16.0,10.0,5.0,5.0,8.0,22.0,1650479193911839.0
1761,-5.0,-8.0,-27.0,-12.0,-7.0,-5.0,-10.0,-13.0,1650479193911839.0
1762,3.0,8.0,11.0,1.0,-1.0,0.0,-4.0,2.0,1650479193934154.0
1763,6.0,7.0,11.0,4.0,1.0,2.0,3.0,4.0,1650479193934154.0
1764,-1.0,1.0,6.0,3.0,1.0,0.0,-5.0,-9.0,1650479193935154.0
1765,-10.0,-15.0,-36.0,-19.0,-9.0,-4.0,3.0,1.0,1650479193935154.0
1766,-3.0,-6.0,-6.0,-1.0,-2.0,-3.0,-9.0,-5.0,1650479193957117.0
1767,0.0,0.0,-1.0,-2.0,-1.0,-3.0,-9.0,1.0,1650479193957117.0
1768,4.0,0.0,4.0,6.0,3.0,2.0,10.0,-2.0,1650479193957117.0
1769,3.0,13.0,20.0,6.0,2.0,4.0,4.0,3.0,1650479193957117.0
1770,-3.0,-3.0,-22.0,-7.0,0.0,1.0,2.0,1.0,1650479193971422.0
1771,-4.0,-10.0,-18.0,-10.0,-3.0,0.0,1.0,2.0,1650479193971422.0
1772,3.0,13.0,20.0,8.0,2.0,1.0,-6.0,0.0,1650479193971839.0
1773,-4.0,-8.0,-3.0,-1.0,-2.0,-3.0,-5.0,-5.0,1650479193971839.0
1774,0.0,9.0,9.0,4.0,1.0,-1.0,3.0,4.0,1650479193994773.0
1775,0.0,-9.0,-7.0,-4.0,-1.0,0.0,0.0,0.0,1650479193994773.0
1776,-4.0,-10.0,-14.0,-3.0,0.0,2.0,1.0,-3.0,1650479193994773.0
1777,-1.0,2.0,-2.0,0.0,0.0,-2.0,-4.0,2.0,1650479193994773.0
1778,-2.0,-4.0,6.0,-2.0,-1.0,1.0,8.0,1.0,1650479194017126.0
1779,1.0,1.0,-8.0,1.0,-4.0,-6.0,-7.0,-5.0,1650479194017126.0
1780,1.0,4.0,-9.0,1.0,3.0,2.0,8.0,3.0,1650479194017126.0
1781,0.0,-10.0,-19.0,-2.0,1.0,1.0,1.0,0.0,1650479194017126.0
1782,-2.0,12.0,39.0,1.0,0.0,-2.0,-7.0,-1.0,1650479194031026.0
1783,-5.0,-5.0,-3.0,-2.0,-5.0,-4.0,-7.0,-6.0,1650479194031026.0
1784,-1.0,-6.0,-3.0,-3.0,-1.0,3.0,3.0,0.0,1650479194031872.0
1785,2.0,8.0,10.0,6.0,1.0,-2.0,-3.0,0.0,1650479194031872.0
1786,0.0,-7.0,6.0,1.0,-2.0,-2.0,0.0,-4.0,1650479194054801.0
1787,-3.0,-22.0,-53.0,-15.0,-3.0,1.0,5.0,0.0,1650479194054801.0
1788,-6.0,-2.0,5.0,-6.0,-6.0,-6.0,-9.0,-3.0,1650479194055835.0
1789,4.0,5.0,-13.0,0.0,0.0,0.0,1.0,1.0,1650479194055835.0
1790,-7.0,-22.0,1.0,-9.0,-6.0,-2.0,-4.0,-3.0,1650479194077153.0
1791,6.0,15.0,25.0,7.0,4.0,1.0,-1.0,-2.0,1650479194077153.0
1792,2.0,1.0,0.0,6.0,2.0,-1.0,-2.0,0.0,1650479194078015.0
1793,-8.0,5.0,8.0,-10.0,-8.0,-1.0,4.0,-2.0,1650479194078015.0
1794,11.0,16.0,11.0,10.0,7.0,7.0,7.0,8.0,1650479194090006.0
1795,-7.0,-4.0,-26.0,-11.0,-8.0,-5.0,-4.0,-5.0,1650479194090006.0
1796,1.0,15.0,29.0,7.0,3.0,1.0,-4.0,0.0,1650479194098939.0
1797,2.0,-3.0,0.0,4.0,5.0,3.0,-1.0,0.0,1650479194098939.0
1798,0.0,4.0,5.0,1.0,0.0,1.0,6.0,5.0,1650479194114561.0
1799,1.0,12.0,33.0,6.0,3.0,1.0,6.0,1.0,1650479194114561.0
1800,-4.0,-12.0,-22.0,-5.0,1.0,-3.0,-11.0,-10.0,1650479194115428.0
1801,0.0,-2.0,-2.0,-2.0,-3.0,-3.0,-3.0,0.0,1650479194115428.0
1802,-1.0,-11.0,-26.0,-3.0,2.0,2.0,1.0,-1.0,1650479194137087.0
1803,0.0,5.0,18.0,5.0,1.0,0.0,5.0,2.0,1650479194137087.0
1804,-5.0,-14.0,-8.0,-2.0,-3.0,-1.0,3.0,0.0,1650479194137921.0
1805,1.0,-3.0,9.0,4.0,2.0,2.0,-1.0,-1.0,1650479194137921.0
1806,-1.0,6.0,0.0,-1.0,-5.0,-6.0,-6.0,-3.0,1650479194149856.0
1807,-6.0,-16.0,-32.0,-10.0,-4.0,-3.0,-1.0,-3.0,1650479194149856.0
1808,1.0,-8.0,6.0,4.0,4.0,4.0,4.0,1.0,1650479194158827.0
1809,1.0,6.0,12.0,3.0,0.0,1.0,1.0,1.0,1650479194158827.0
1810,5.0,14.0,9.0,6.0,3.0,5.0,2.0,3.0,1650479194174813.0
1811,-5.0,-15.0,10.0,1.0,0.0,-2.0,-4.0,-4.0,1650479194174813.0
1812,-2.0,6.0,-3.0,-6.0,-2.0,-2.0,1.0,-1.0,1650479194175846.0
1813,-2.0,-5.0,-12.0,-1.0,-2.0,-2.0,-2.0,-3.0,1650479194175846.0
1814,-4.0,-14.0,-13.0,-3.0,-3.0,-1.0,0.0,-3.0,1650479194196160.0
1815,2.0,10.0,8.0,2.0,1.0,0.0,-1.0,-1.0,1650479194196160.0
1816,2.0,12.0,18.0,1.0,-3.0,-3.0,-2.0,1.0,1650479194198154.0
1817,3.0,-3.0,-3.0,2.0,3.0,1.0,4.0,1.0,1650479194198154.0
1818,-10.0,-14.0,-8.0,-9.0,-7.0,-6.0,-14.0,-11.0,1650479194210133.0
1819,4.0,6.0,16.0,10.0,5.0,1.0,-1.0,1.0,1650479194210133.0
1820,0.0,-1.0,-2.0,-2.0,-3.0,-1.0,2.0,1.0,1650479194219139.0
1821,-5.0,-4.0,-4.0,-6.0,-5.0,-4.0,-2.0,-2.0,1650479194219139.0
1822,1.0,-6.0,-21.0,-3.0,0.0,1.0,5.0,3.0,1650479194234826.0
1823,-2.0,5.0,7.0,-3.0,-1.0,-4.0,-5.0,-1.0,1650479194234826.0
1824,-3.0,-5.0,-5.0,-3.0,-1.0,-1.0,0.0,-1.0,1650479194235857.0
1825,2.0,5.0,14.0,6.0,1.0,3.0,0.0,2.0,1650479194235857.0
1826,3.0,2.0,-10.0,2.0,3.0,3.0,0.0,3.0,1650479194256674.0
1827,-2.0,3.0,-5.0,-5.0,-2.0,2.0,9.0,2.0,1650479194256674.0
1828,0.0,-2.0,15.0,8.0,1.0,-1.0,0.0,1.0,1650479194258531.0
1829,-5.0,-5.0,-4.0,-5.0,-3.0,-2.0,-4.0,-2.0,1650479194258531.0
1830,-1.0,-4.0,-10.0,-1.0,-1.0,-2.0,-1.0,1.0,1650479194270859.0
1831,1.0,-3.0,3.0,0.0,2.0,0.0,-3.0,-1.0,1650479194270859.0
1832,-1.0,2.0,-9.0,-4.0,-3.0,-2.0,-1.0,2.0,1650479194279710.0
1833,0.0,-4.0,-14.0,-5.0,0.0,-3.0,0.0,-4.0,1650479194279710.0
1834,-1.0,-1.0,5.0,-2.0,0.0,3.0,4.0,0.0,1650479194294776.0
1835,-6.0,1.0,-2.0,-7.0,-3.0,-1.0,-4.0,2.0,1650479194294776.0
1836,5.0,0.0,2.0,2.0,-1.0,-1.0,-3.0,0.0,1650479194295779.0
1837,-2.0,-4.0,-3.0,2.0,0.0,-1.0,0.0,0.0,1650479194295779.0
1838,0.0,3.0,-1.0,0.0,0.0,-1.0,1.0,-1.0,1650479194316997.0
1839,3.0,7.0,14.0,13.0,1.0,0.0,-7.0,1.0,1650479194316997.0
1840,-3.0,0.0,5.0,1.0,-2.0,-1.0,1.0,-1.0,1650479194317994.0
1841,-2.0,-8.0,-23.0,-17.0,-1.0,-2.0,-3.0,-1.0,1650479194317994.0
1842,-1.0,0.0,-6.0,4.0,1.0,-1.0,2.0,-2.0,1650479194330127.0
1843,-2.0,-9.0,0.0,-5.0,-6.0,-2.0,2.0,-3.0,1650479194330127.0
1844,-3.0,-3.0,-5.0,5.0,1.0,-5.0,-13.0,-5.0,1650479194339122.0
1845,4.0,7.0,7.0,-1.0,3.0,2.0,12.0,4.0,1650479194339122.0
1846,1.0,3.0,4.0,2.0,-1.0,-4.0,-2.0,-2.0,1650479194361992.0
1847,2.0,3.0,-4.0,-4.0,-4.0,-1.0,7.0,0.0,1650479194361992.0
1848,0.0,-6.0,-17.0,-6.0,-1.0,1.0,1.0,0.0,1650479194362991.0
1849,-2.0,5.0,15.0,12.0,1.0,1.0,-2.0,-1.0,1650479194362991.0
1850,-4.0,-18.0,-45.0,-20.0,-3.0,-4.0,-12.0,-6.0,1650479194377140.0
1851,2.0,12.0,21.0,7.0,3.0,2.0,13.0,0.0,1650479194377140.0
1852,-1.0,-1.0,-6.0,-9.0,-4.0,0.0,5.0,-1.0,1650479194377987.0
1853,2.0,6.0,5.0,3.0,-1.0,-3.0,-6.0,0.0,1650479194377987.0
1854,-1.0,-6.0,16.0,3.0,-2.0,-1.0,0.0,-1.0,1650479194390792.0
1855,0.0,-3.0,-13.0,0.0,1.0,-4.0,-11.0,-4.0,1650479194390792.0
1856,-3.0,-3.0,-4.0,-3.0,-1.0,2.0,0.0,1.0,1650479194399281.0
1857,1.0,-3.0,3.0,0.0,-2.0,3.0,12.0,2.0,1650479194399281.0
1858,0.0,6.0,7.0,1.0,0.0,-1.0,-4.0,-1.0,1650479194414802.0
1859,0.0,-2.0,-7.0,-6.0,-2.0,-1.0,2.0,1.0,1650479194414802.0
1860,0.0,4.0,12.0,3.0,1.0,-2.0,-4.0,-6.0,1650479194415834.0
1861,-1.0,-8.0,-18.0,-3.0,-1.0,0.0,-7.0,-1.0,1650479194415834.0
1862,1.0,3.0,-3.0,0.0,-2.0,3.0,8.0,2.0,1650479194437029.0
1863,-2.0,-7.0,-4.0,-4.0,0.0,2.0,-1.0,-1.0,1650479194437029.0
1864,3.0,12.0,-4.0,0.0,-1.0,0.0,-1.0,1.0,1650479194438873.0
1865,-2.0,-1.0,19.0,5.0,1.0,-1.0,-5.0,0.0,1650479194438873.0
1866,-1.0,1.0,1.0,1.0,1.0,3.0,11.0,4.0,1650479194450048.0
1867,4.0,5.0,2.0,4.0,3.0,0.0,-3.0,3.0,1650479194450048.0
1868,-2.0,1.0,8.0,-1.0,0.0,-1.0,-9.0,-7.0,1650479194459143.0
1869,1.0,3.0,1.0,-1.0,-1.0,1.0,4.0,0.0,1650479194459143.0
1870,1.0,-1.0,-4.0,3.0,2.0,2.0,-1.0,-1.0,1650479194475142.0
1871,3.0,5.0,6.0,-1.0,-2.0,-3.0,-1.0,-1.0,1650479194475142.0
1872,-3.0,-13.0,-19.0,-5.0,-3.0,-3.0,-1.0,1.0,1650479194475834.0
1873,-2.0,-6.0,-10.0,-4.0,-1.0,-1.0,-4.0,-4.0,1650479194475834.0
1874,0.0,2.0,9.0,3.0,1.0,-1.0,-3.0,0.0,1650479194496873.0
1875,1.0,1.0,-3.0,-1.0,1.0,0.0,-3.0,-1.0,1650479194496873.0
1876,-4.0,-6.0,-7.0,-4.0,-2.0,-1.0,8.0,1.0,1650479194497881.0
1877,2.0,3.0,4.0,0.0,-1.0,-2.0,-3.0,0.0,1650479194497881.0
1878,-1.0,-3.0,-5.0,-5.0,-1.0,-1.0,1.0,1.0,1650479194510910.0
1879,-3.0,-9.0,-13.0,-3.0,-1.0,-2.0,-6.0,-3.0,1650479194510910.0
1880,0.0,11.0,25.0,6.0,4.0,4.0,6.0,3.0,1650479194518878.0
1881,-1.0,-1.0,-1.0,-1.0,0.0,-2.0,-2.0,0.0,1650479194518878.0
1882,-1.0,1.0,-3.0,-3.0,-2.0,1.0,1.0,-1.0,1650479194534099.0
1883,-2.0,0.0,3.0,1.0,1.0,-1.0,-2.0,-1.0,1650479194534099.0
1884,-1.0,-2.0,-3.0,3.0,-1.0,0.0,5.0,0.0,1650479194536142.0
1885,2.0,4.0,-5.0,-1.0,-4.0,-3.0,-1.0,-1.0,1650479194536142.0
1886,0.0,1.0,11.0,2.0,-1.0,-4.0,-9.0,-3.0,1650479194557088.0
1887,-3.0,-4.0,-5.0,-5.0,-5.0,-3.0,-2.0,-2.0,1650479194557088.0
1888,2.0,-5.0,-4.0,-1.0,-1.0,1.0,0.0,-1.0,1650479194563234.0
1889,-3.0,2.0,2.0,-1.0,1.0,0.0,-2.0,0.0,1650479194563234.0
1890,1.0,-4.0,-3.0,-1.0,-1.0,-2.0,-4.0,0.0,1650479194570760.0
1891,2.0,3.0,3.0,3.0,3.0,6.0,11.0,3.0,1650479194570760.0
1892,-1.0,8.0,21.0,3.0,-1.0,-2.0,-9.0,-5.0,1650479194579346.0
1893,-3.0,-7.0,-5.0,-2.0,-3.0,-3.0,-4.0,-4.0,1650479194579346.0
1894,-2.0,0.0,-1.0,-1.0,0.0,0.0,3.0,-1.0,1650479194594905.0
1895,2.0,2.0,8.0,2.0,1.0,1.0,7.0,3.0,1650479194594905.0
1896,-1.0,-5.0,-21.0,-3.0,-1.0,0.0,-3.0,-1.0,1650479194595756.0
1897,0.0,3.0,8.0,-2.0,-3.0,-2.0,-4.0,-1.0,1650479194595756.0
1898,-1.0,2.0,1.0,2.0,0.0,0.0,1.0,0.0,1650479194616675.0
1899,-1.0,-1.0,-2.0,0.0,-2.0,0.0,-3.0,-1.0,1650479194616675.0
1900,-2.0,-2.0,-6.0,-3.0,0.0,-1.0,3.0,-1.0,1650479194618510.0
1901,-2.0,-5.0,-2.0,-1.0,-1.0,-1.0,-2.0,-1.0,1650479194618510.0
1902,0.0,0.0,-6.0,0.0,1.0,1.0,-2.0,0.0,1650479194630632.0
1903,-2.0,-1.0,2.0,-3.0,-2.0,0.0,-3.0,-2.0,1650479194630632.0
1904,1.0,2.0,2.0,-1.0,-1.0,0.0,0.0,2.0,1650479194639448.0
1905,-2.0,-7.0,-5.0,-3.0,-2.0,0.0,0.0,0.0,1650479194639448.0
1906,-1.0,-1.0,1.0,0.0,-2.0,-1.0,-1.0,0.0,1650479194653816.0
1907,0.0,5.0,-2.0,-3.0,-2.0,-1.0,-3.0,-2.0,1650479194653816.0
1908,1.0,4.0,9.0,1.0,0.0,1.0,7.0,3.0,1650479194655807.0
1909,-2.0,-3.0,-8.0,0.0,1.0,0.0,3.0,-1.0,1650479194655807.0
1910,-1.0,-3.0,-8.0,-2.0,-1.0,-1.0,-2.0,0.0,1650479194677138.0
1911,-3.0,-5.0,-3.0,-2.0,-1.0,-3.0,-1.0,-2.0,1650479194677138.0
1912,-1.0,-4.0,-3.0,-1.0,-1.0,0.0,-8.0,-3.0,1650479194677982.0
1913,1.0,-1.0,-1.0,0.0,1.0,2.0,3.0,1.0,1650479194677982.0
1914,-2.0,-1.0,-1.0,-1.0,-2.0,-2.0,-2.0,-2.0,1650479194689970.0
1915,0.0,2.0,-1.0,0.0,-1.0,-3.0,-5.0,-1.0,1650479194689970.0
1916,-1.0,-3.0,-5.0,1.0,4.0,1.0,-1.0,0.0,1650479194698925.0
1917,1.0,3.0,4.0,1.0,0.0,1.0,3.0,1.0,1650479194698925.0
1918,0.0,1.0,2.0,1.0,-1.0,0.0,-1.0,-1.0,1650479194714359.0
1919,0.0,-2.0,2.0,1.0,-3.0,-3.0,-4.0,-2.0,1650479194714359.0
1920,1.0,-3.0,-3.0,0.0,-2.0,-1.0,-1.0,0.0,1650479194715357.0
1921,-2.0,0.0,0.0,-1.0,0.0,-1.0,-5.0,-1.0,1650479194715357.0
1922,-1.0,4.0,2.0,1.0,0.0,1.0,6.0,0.0,1650479194736800.0
1923,-2.0,0.0,-5.0,-1.0,0.0,1.0,2.0,0.0,1650479194736800.0
1924,0.0,-8.0,-15.0,-5.0,-2.0,-2.0,-2.0,-2.0,1650479194737798.0
1925,0.0,9.0,16.0,4.0,1.0,-2.0,-1.0,1.0,1650479194737798.0
1926,-1.0,-6.0,-3.0,-3.0,-1.0,-4.0,0.0,0.0,1650479194750979.0
1927,-2.0,-1.0,1.0,1.0,1.0,1.0,-1.0,0.0,1650479194750979.0
1928,-1.0,-1.0,3.0,-1.0,-2.0,0.0,1.0,0.0,1650479194759087.0
1929,1.0,0.0,-3.0,-1.0,0.0,-1.0,2.0,0.0,1650479194759087.0
1930,1.0,-1.0,-11.0,-2.0,-1.0,-1.0,-2.0,-1.0,1650479194774698.0
1931,-1.0,-3.0,11.0,3.0,1.0,0.0,1.0,0.0,1650479194774698.0
1932,-2.0,-3.0,-5.0,-2.0,0.0,-3.0,-2.0,-1.0,1650479194775698.0
1933,2.0,6.0,5.0,4.0,0.0,-1.0,2.0,-1.0,1650479194775698.0
1934,1.0,-2.0,-2.0,1.0,1.0,1.0,1.0,-1.0,1650479194796862.0
1935,0.0,-1.0,-10.0,-3.0,-1.0,1.0,0.0,0.0,1650479194796862.0
1936,-1.0,1.0,-6.0,0.0,1.0,-2.0,-1.0,-1.0,1650479194797860.0
1937,-3.0,-1.0,13.0,-3.0,-2.0,0.0,-5.0,-2.0,1650479194797860.0
1938,1.0,-1.0,-1.0,-2.0,-1.0,2.0,6.0,3.0,1650479194818996.0
1939,1.0,-1.0,-4.0,-1.0,0.0,-1.0,-1.0,-1.0,1650479194818996.0
1940,0.0,1.0,7.0,1.0,-2.0,-2.0,-1.0,0.0,1650479194821014.0
1941,-2.0,-5.0,-12.0,-1.0,0.0,0.0,-4.0,-2.0,1650479194821014.0
1942,0.0,-3.0,-3.0,0.0,0.0,0.0,0.0,0.0,1650479194834250.0
1943,1.0,6.0,10.0,0.0,-2.0,-2.0,-3.0,-1.0,1650479194834250.0
1944,-3.0,-8.0,-10.0,-1.0,-2.0,-1.0,0.0,-1.0,1650479194835283.0
1945,1.0,5.0,3.0,0.0,-1.0,-2.0,2.0,0.0,1650479194835283.0
1946,-1.0,2.0,8.0,2.0,-2.0,-2.0,-5.0,-2.0,1650479194857162.0
1947,-1.0,-3.0,-4.0,0.0,0.0,0.0,0.0,-1.0,1650479194857162.0
1948,0.0,1.0,4.0,-1.0,0.0,0.0,-3.0,0.0,1650479194858006.0
1949,0.0,-6.0,-8.0,-2.0,0.0,0.0,2.0,0.0,1650479194858006.0
1950,-2.0,-6.0,-5.0,-3.0,-1.0,0.0,-3.0,0.0,1650479194878987.0
1951,-1.0,7.0,10.0,2.0,1.0,1.0,0.0,-1.0,1650479194878987.0
1952,1.0,0.0,-3.0,0.0,-1.0,0.0,3.0,0.0,1650479194880982.0
1953,1.0,-2.0,-2.0,1.0,0.0,-2.0,-4.0,-1.0,1650479194880982.0
1954,-1.0,8.0,9.0,1.0,0.0,1.0,3.0,3.0,1650479194894166.0
1955,0.0,-3.0,-2.0,-1.0,0.0,-1.0,-5.0,-3.0,1650479194894166.0
1956,-2.0,-3.0,0.0,-1.0,0.0,1.0,4.0,1.0,1650479194895167.0
1957,1.0,0.0,-5.0,1.0,0.0,1.0,3.0,1.0,1650479194895167.0
1958,-1.0,0.0,-4.0,-1.0,0.0,-3.0,-5.0,-4.0,1650479194917146.0
1959,-2.0,-2.0,5.0,0.0,-3.0,-2.0,0.0,0.0,1650479194917146.0
1960,1.0,2.0,6.0,-1.0,0.0,3.0,1.0,-2.0,1650479194917996.0
1961,-1.0,-3.0,-7.0,0.0,0.0,0.0,-1.0,-2.0,1650479194917996.0
1962,0.0,-1.0,2.0,-1.0,-1.0,1.0,2.0,-1.0,1650479194939285.0
1963,-1.0,-3.0,-2.0,-1.0,-1.0,-3.0,-7.0,-3.0,1650479194939285.0
1964,-1.0,-3.0,-8.0,-2.0,-2.0,0.0,-1.0,0.0,1650479194941119.0
1965,-1.0,1.0,3.0,1.0,1.0,1.0,0.0,0.0,1650479194941119.0
1966,0.0,0.0,1.0,0.0,0.0,-1.0,-4.0,0.0,1650479194953847.0
1967,0.0,1.0,0.0,-2.0,-2.0,-1.0,-3.0,-1.0,1650479194953847.0
1968,-3.0,5.0,9.0,1.0,0.0,0.0,4.0,-1.0,1650479194960763.0
1969,-3.0,-2.0,-10.0,-3.0,0.0,0.0,0.0,-2.0,1650479194960763.0
1970,2.0,2.0,1.0,1.0,0.0,-3.0,-5.0,-3.0,1650479194977142.0
1971,-1.0,-2.0,-9.0,-2.0,-1.0,1.0,0.0,2.0,1650479194977142.0
1972,4.0,6.0,18.0,6.0,1.0,1.0,-3.0,0.0,1650479194978001.0
1973,-2.0,-3.0,-16.0,-7.0,-4.0,-5.0,-4.0,-1.0,1650479194978001.0
1974,-1.0,-4.0,-3.0,-2.0,-1.0,-2.0,-1.0,-1.0,1650479194999281.0
1975,0.0,-2.0,-6.0,0.0,2.0,0.0,-3.0,-1.0,1650479194999281.0
1976,-1.0,7.0,8.0,0.0,0.0,-1.0,-4.0,-1.0,1650479195000281.0
1977,-3.0,-8.0,-6.0,-2.0,-1.0,-1.0,1.0,-2.0,1650479195000281.0
1978,1.0,0.0,-4.0,-2.0,-3.0,-1.0,-1.0,-1.0,1650479195014151.0
1979,-2.0,-1.0,-3.0,-5.0,-2.0,-3.0,2.0,0.0,1650479195014151.0
1980,3.0,-1.0,0.0,6.0,2.0,1.0,9.0,5.0,1650479195020544.0
1981,1.0,5.0,16.0,0.0,-2.0,1.0,3.0,1.0,1650479195020544.0
1982,-5.0,-1.0,1.0,2.0,1.0,1.0,0.0,0.0,1650479195037162.0
1983,2.0,3.0,8.0,5.0,1.0,-1.0,-10.0,-2.0,1650479195037162.0
1984,1.0,2.0,-1.0,-5.0,-4.0,-4.0,4.0,3.0,1650479195039029.0
1985,-6.0,-8.0,-10.0,-3.0,0.0,2.0,1.0,-2.0,1650479195039029.0
1986,9.0,-2.0,1.0,4.0,-1.0,-1.0,4.0,4.0,1650479195059119.0
1987,-2.0,2.0,20.0,3.0,0.0,1.0,7.0,-1.0,1650479195059119.0
1988,-2.0,-7.0,-25.0,-5.0,-3.0,-5.0,-12.0,-5.0,1650479195060961.0
1989,-1.0,-3.0,-2.0,-1.0,0.0,2.0,-4.0,2.0,1650479195060961.0
1990,-4.0,2.0,3.0,-1.0,-3.0,-2.0,5.0,-4.0,1650479195074113.0
1991,0.0,-2.0,-6.0,-1.0,0.0,-1.0,3.0,0.0,1650479195074113.0
1992,-1.0,-2.0,3.0,0.0,2.0,0.0,-1.0,-2.0,1650479195080099.0
1993,1.0,3.0,6.0,1.0,-2.0,-1.0,1.0,0.0,1650479195080099.0
1994,-5.0,-2.0,2.0,0.0,2.0,-3.0,0.0,-1.0,1650479195096304.0
1995,-4.0,2.0,-14.0,0.0,-2.0,-1.0,-12.0,-3.0,1650479195096304.0
1996,5.0,-8.0,-12.0,-7.0,-3.0,3.0,15.0,0.0,1650479195098180.0
1997,4.0,3.0,12.0,9.0,4.0,3.0,12.0,3.0,1650479195098180.0
1998,6.0,5.0,11.0,4.0,0.0,1.0,-15.0,14.0,1650479195119392.0
1999,-5.0,-8.0,-19.0,-16.0,-3.0,-1.0,11.0,-6.0,1650479195119392.0
2000,-5.0,4.0,7.0,2.0,-2.0,-7.0,-16.0,-3.0,1650479195120252.0
