EMG_s0,EMG_s1,EMG_s2,EMG_s3,EMG_s4,EMG_s5,EMG_s6,EMG_s7,timestamp
-9.0,-22.0,-35.0,-14.0,-7.0,-7.0,3.0,3.0,1650846520192180.0
-41.0,-74.0,-17.0,30.0,-27.0,-29.0,-19.0,11.0,1650846520192180.0
7.0,24.0,12.0,-16.0,9.0,8.0,-2.0,-18.0,1650846520192180.0
20.0,31.0,2.0,1.0,12.0,14.0,6.0,-8.0,1650846520192180.0
-32.0,-47.0,-12.0,13.0,-16.0,-22.0,-13.0,11.0,1650846520193189.0
18.0,13.0,15.0,0.0,5.0,11.0,0.0,-10.0,1650846520193189.0
22.0,41.0,9.0,2.0,15.0,17.0,16.0,-3.0,1650846520198163.0
-23.0,-49.0,-31.0,-11.0,-20.0,-20.0,-13.0,8.0,1650846520198163.0
-3.0,6.0,21.0,12.0,1.0,-2.0,0.0,-4.0,1650846520201076.0
31.0,60.0,9.0,-32.0,8.0,23.0,21.0,-6.0,1650846520201076.0
-1.0,-9.0,-7.0,29.0,12.0,-3.0,-3.0,13.0,1650846520213058.0
-26.0,-42.0,-12.0,-15.0,-18.0,-15.0,2.0,4.0,1650846520213058.0
23.0,43.0,28.0,15.0,17.0,16.0,4.0,-12.0,1650846520218070.0
1.0,13.0,-6.0,-2.0,8.0,5.0,-2.0,-3.0,1650846520218070.0
-20.0,-41.0,-1.0,8.0,-15.0,-14.0,-8.0,8.0,1650846520234029.0
-2.0,3.0,3.0,-4.0,-4.0,-2.0,3.0,-4.0,1650846520234029.0
25.0,43.0,12.0,-4.0,11.0,15.0,10.0,-3.0,1650846520243005.0
-22.0,-36.0,-12.0,3.0,-7.0,-16.0,-11.0,2.0,1650846520243005.0
-8.0,-6.0,-9.0,-32.0,-17.0,-5.0,-2.0,1.0,1650846520247964.0
19.0,29.0,13.0,-2.0,17.0,15.0,14.0,1.0,1650846520247964.0
-12.0,-20.0,-14.0,-3.0,1.0,-5.0,-15.0,-6.0,1650846520263746.0
-8.0,-21.0,0.0,-1.0,-5.0,-10.0,4.0,8.0,1650846520263746.0
9.0,17.0,4.0,-11.0,-5.0,5.0,-4.0,-5.0,1650846520271730.0
5.0,11.0,-4.0,-4.0,3.0,6.0,10.0,7.0,1650846520271730.0
-45.0,-86.0,-19.0,18.0,-24.0,-35.0,-24.0,18.0,1650846520310736.0
17.0,51.0,24.0,6.0,7.0,14.0,15.0,-9.0,1650846520310736.0
32.0,44.0,11.0,-12.0,16.0,19.0,2.0,-12.0,1650846520311734.0
-34.0,-65.0,-26.0,12.0,-9.0,-24.0,-8.0,12.0,1650846520311734.0
-3.0,6.0,3.0,-10.0,-9.0,-4.0,-9.0,-6.0,1650846520312731.0
28.0,44.0,16.0,-5.0,14.0,20.0,12.0,-5.0,1650846520312731.0
-22.0,-43.0,-29.0,-13.0,-12.0,-9.0,-3.0,11.0,1650846520316750.0
-12.0,-14.0,15.0,47.0,-6.0,-14.0,-8.0,0.0,1650846520316750.0
31.0,55.0,23.0,4.0,22.0,22.0,9.0,-12.0,1650846520323710.0
-14.0,-27.0,-26.0,-16.0,-8.0,-12.0,-14.0,-3.0,1650846520323710.0
-25.0,-46.0,-6.0,10.0,-18.0,-18.0,-11.0,7.0,1650846520331707.0
17.0,27.0,9.0,-19.0,1.0,14.0,20.0,2.0,1650846520331707.0
9.0,17.0,-7.0,-6.0,12.0,9.0,0.0,-12.0,1650846520338662.0
-31.0,-62.0,-22.0,5.0,-19.0,-19.0,-7.0,14.0,1650846520338662.0
-1.0,12.0,15.0,9.0,-2.0,-3.0,-10.0,-11.0,1650846520354814.0
28.0,44.0,18.0,-4.0,14.0,20.0,9.0,-4.0,1650846520354814.0
-7.0,-13.0,-8.0,2.0,-6.0,-7.0,7.0,13.0,1650846520360798.0
-9.0,-30.0,-4.0,-4.0,-7.0,-11.0,-20.0,-5.0,1650846520360798.0
16.0,37.0,7.0,-14.0,5.0,11.0,17.0,3.0,1650846520375826.0
0.0,5.0,2.0,34.0,5.0,1.0,-3.0,0.0,1650846520375826.0
-12.0,-26.0,-11.0,-16.0,-7.0,-14.0,-13.0,0.0,1650846520383739.0
2.0,7.0,13.0,8.0,7.0,5.0,-2.0,-5.0,1650846520383739.0
3.0,6.0,-2.0,9.0,3.0,0.0,2.0,-2.0,1650846520391817.0
-13.0,-20.0,-15.0,-18.0,-9.0,-7.0,-7.0,-3.0,1650846520391817.0
11.0,22.0,9.0,-1.0,2.0,9.0,12.0,2.0,1650846520398660.0
3.0,13.0,0.0,-1.0,1.0,4.0,4.0,0.0,1650846520398660.0
-9.0,-20.0,-8.0,-3.0,-9.0,-8.0,-4.0,6.0,1650846520414775.0
0.0,3.0,-2.0,-16.0,-4.0,1.0,1.0,-1.0,1650846520414775.0
8.0,8.0,5.0,6.0,3.0,5.0,5.0,-4.0,1650846520420790.0
-3.0,-4.0,-6.0,-5.0,-5.0,-5.0,-9.0,3.0,1650846520420790.0
2.0,2.0,7.0,13.0,5.0,-2.0,1.0,3.0,1650846520435835.0
5.0,12.0,1.0,-12.0,-1.0,1.0,1.0,-7.0,1650846520435835.0
0.0,-2.0,-11.0,-5.0,-5.0,0.0,12.0,6.0,1650846520442824.0
-5.0,-11.0,6.0,27.0,4.0,-4.0,-6.0,2.0,1650846520442824.0
-1.0,4.0,0.0,-18.0,0.0,2.0,0.0,-1.0,1650846520451862.0
2.0,3.0,-8.0,-13.0,-7.0,-2.0,-3.0,2.0,1650846520451862.0
-9.0,-13.0,2.0,18.0,-1.0,-8.0,-10.0,-6.0,1650846520458611.0
-5.0,-9.0,-3.0,-7.0,-1.0,-1.0,2.0,-2.0,1650846520458611.0
-2.0,1.0,-10.0,-4.0,-4.0,-1.0,-1.0,-1.0,1650846520474817.0
-5.0,-4.0,-1.0,-5.0,4.0,-2.0,-6.0,-4.0,1650846520474817.0
-1.0,-7.0,-5.0,-12.0,-2.0,7.0,6.0,2.0,1650846520480806.0
3.0,4.0,0.0,-6.0,-2.0,-6.0,-1.0,0.0,1650846520480806.0
-9.0,-15.0,-13.0,-10.0,-14.0,-5.0,8.0,0.0,1650846520495816.0
-4.0,-11.0,14.0,41.0,17.0,4.0,-10.0,-5.0,1650846520495816.0
5.0,8.0,1.0,-4.0,3.0,3.0,8.0,2.0,1650846520503734.0
2.0,12.0,1.0,-7.0,0.0,4.0,-5.0,0.0,1650846520503734.0
-4.0,-11.0,-4.0,-6.0,-4.0,-3.0,-1.0,2.0,1650846520512721.0
3.0,9.0,0.0,-13.0,-3.0,-1.0,1.0,0.0,1650846520512721.0
1.0,2.0,1.0,-7.0,-4.0,1.0,-4.0,-1.0,1650846520518694.0
-4.0,-7.0,-1.0,15.0,5.0,1.0,7.0,4.0,1650846520518694.0
2.0,11.0,6.0,3.0,-1.0,3.0,-5.0,-3.0,1650846520534847.0
5.0,5.0,3.0,8.0,5.0,2.0,6.0,4.0,1650846520534847.0
-6.0,-7.0,-6.0,-13.0,-9.0,-9.0,-17.0,-8.0,1650846520540829.0
1.0,8.0,3.0,11.0,11.0,7.0,20.0,9.0,1650846520540829.0
5.0,-8.0,3.0,8.0,4.0,3.0,0.0,-5.0,1650846520555848.0
-2.0,4.0,-4.0,-7.0,-7.0,-1.0,0.0,1.0,1650846520555848.0
-8.0,-23.0,-10.0,-10.0,-11.0,-8.0,-13.0,-4.0,1650846520563771.0
3.0,8.0,9.0,21.0,1.0,-4.0,7.0,-1.0,1650846520563771.0
0.0,1.0,0.0,4.0,10.0,5.0,-4.0,-3.0,1650846520572758.0
-6.0,-14.0,-8.0,-11.0,-7.0,-7.0,-4.0,0.0,1650846520572758.0
2.0,10.0,-8.0,-18.0,-7.0,2.0,18.0,4.0,1650846520578735.0
4.0,1.0,-1.0,2.0,8.0,7.0,-5.0,2.0,1650846520578735.0
-7.0,-11.0,-2.0,-1.0,-8.0,-7.0,-4.0,-5.0,1650846520594839.0
0.0,-11.0,-11.0,-17.0,-4.0,-1.0,-7.0,-1.0,1650846520594839.0
1.0,10.0,2.0,2.0,1.0,0.0,0.0,-2.0,1650846520600818.0
-3.0,-7.0,2.0,-8.0,-7.0,-3.0,4.0,-2.0,1650846520600818.0
-6.0,-3.0,0.0,2.0,-3.0,-5.0,-7.0,-2.0,1650846520615955.0
4.0,11.0,0.0,4.0,-2.0,-1.0,-2.0,-4.0,1650846520615955.0
-1.0,2.0,9.0,15.0,10.0,2.0,-6.0,-3.0,1650846520622934.0
-3.0,-6.0,-8.0,-17.0,-13.0,-3.0,-1.0,0.0,1650846520622934.0
-1.0,0.0,0.0,4.0,1.0,-2.0,-12.0,-8.0,1650846520631873.0
-1.0,-4.0,2.0,-4.0,-1.0,6.0,8.0,5.0,1650846520631873.0
3.0,2.0,4.0,18.0,10.0,5.0,6.0,3.0,1650846520638696.0
-10.0,-12.0,-8.0,-32.0,-19.0,-12.0,-30.0,-13.0,1650846520638696.0
6.0,17.0,11.0,32.0,17.0,12.0,29.0,12.0,1650846520654855.0
-6.0,-9.0,-7.0,-6.0,-3.0,-5.0,-14.0,-5.0,1650846520654855.0
-2.0,-5.0,-1.0,-2.0,-4.0,-2.0,-13.0,-3.0,1650846520660896.0
10.0,16.0,2.0,-5.0,-4.0,4.0,26.0,7.0,1650846520660896.0
0.0,-7.0,-1.0,-2.0,4.0,1.0,-9.0,0.0,1650846520675855.0
-3.0,-1.0,-2.0,-13.0,-6.0,-5.0,1.0,1.0,1650846520675855.0
7.0,8.0,12.0,33.0,11.0,9.0,15.0,5.0,1650846520682838.0
-5.0,-11.0,-10.0,-12.0,-3.0,-5.0,-17.0,-6.0,1650846520682838.0
-1.0,-3.0,-4.0,-10.0,-8.0,-6.0,-2.0,4.0,1650846520691814.0
6.0,1.0,1.0,-7.0,-3.0,3.0,13.0,6.0,1650846520691814.0
2.0,12.0,11.0,19.0,16.0,10.0,3.0,-4.0,1650846520697729.0
-16.0,-27.0,-10.0,10.0,-4.0,-7.0,-2.0,-2.0,1650846520697729.0
-7.0,1.0,3.0,-9.0,-12.0,-8.0,-2.0,-1.0,1650846520714685.0
0.0,-3.0,-6.0,-3.0,5.0,2.0,5.0,-2.0,1650846520714685.0
-2.0,-8.0,-1.0,-18.0,-8.0,-6.0,1.0,4.0,1650846520720735.0
5.0,10.0,8.0,19.0,11.0,4.0,4.0,6.0,1650846520720735.0
-1.0,-1.0,-8.0,-7.0,-2.0,-3.0,-2.0,-5.0,1650846520735697.0
-1.0,-8.0,5.0,12.0,0.0,0.0,6.0,4.0,1650846520735697.0
-3.0,1.0,-4.0,-11.0,-5.0,-3.0,2.0,2.0,1650846520743606.0
5.0,3.0,-2.0,-11.0,-4.0,-2.0,-4.0,-1.0,1650846520743606.0
0.0,-5.0,0.0,5.0,6.0,0.0,-4.0,-2.0,1650846520765549.0
-1.0,2.0,0.0,0.0,-2.0,-1.0,0.0,-2.0,1650846520765549.0
1.0,-4.0,1.0,-10.0,-5.0,-3.0,-1.0,-4.0,1650846520773717.0
3.0,1.0,-3.0,-6.0,-4.0,-1.0,-7.0,-1.0,1650846520773717.0
-2.0,-6.0,-1.0,-6.0,-6.0,-3.0,-1.0,-2.0,1650846520789755.0
-1.0,2.0,-5.0,-11.0,3.0,2.0,-5.0,-3.0,1650846520789755.0
1.0,3.0,1.0,-3.0,3.0,1.0,1.0,1.0,1650846520790725.0
-2.0,2.0,-1.0,-2.0,0.0,3.0,0.0,-1.0,1650846520790725.0
1.0,-1.0,-1.0,13.0,4.0,2.0,4.0,4.0,1650846520811754.0
2.0,11.0,0.0,-6.0,-10.0,-8.0,-2.0,-5.0,1650846520811754.0
0.0,1.0,5.0,15.0,17.0,5.0,4.0,6.0,1650846520813749.0
-3.0,-4.0,-7.0,-17.0,-10.0,-7.0,-6.0,-10.0,1650846520813749.0
2.0,6.0,3.0,3.0,8.0,6.0,2.0,0.0,1650846520834701.0
3.0,7.0,1.0,3.0,-1.0,1.0,0.0,-2.0,1650846520834701.0
-4.0,-7.0,-14.0,-28.0,-13.0,-8.0,14.0,4.0,1650846520835717.0
1.0,0.0,18.0,62.0,15.0,6.0,-1.0,2.0,1650846520835717.0
4.0,5.0,2.0,-9.0,5.0,4.0,1.0,-3.0,1650846520848658.0
-8.0,-12.0,-9.0,7.0,-5.0,-5.0,-16.0,-3.0,1650846520848658.0
-1.0,2.0,-4.0,-7.0,-6.0,-4.0,-8.0,-3.0,1650846520856647.0
2.0,11.0,-2.0,-18.0,2.0,6.0,10.0,0.0,1650846520856647.0
-3.0,-5.0,-5.0,-6.0,-7.0,-4.0,-10.0,0.0,1650846520871837.0
0.0,-2.0,6.0,10.0,3.0,2.0,4.0,2.0,1650846520871837.0
0.0,-1.0,0.0,-2.0,-5.0,1.0,-3.0,-3.0,1650846520873826.0
1.0,0.0,-7.0,-8.0,-3.0,0.0,4.0,0.0,1650846520873826.0
-6.0,-7.0,-1.0,10.0,-1.0,-2.0,-3.0,-1.0,1650846520894755.0
2.0,2.0,-1.0,-10.0,-5.0,-1.0,1.0,2.0,1650846520894755.0
-2.0,-3.0,4.0,14.0,9.0,1.0,-3.0,-4.0,1650846520895767.0
-3.0,-3.0,-4.0,-8.0,-4.0,-1.0,-2.0,-2.0,1650846520895767.0
1.0,-2.0,3.0,5.0,-1.0,-3.0,3.0,2.0,1650846520916757.0
5.0,16.0,9.0,-6.0,2.0,4.0,8.0,-1.0,1650846520916757.0
-5.0,-10.0,-9.0,-6.0,-12.0,-4.0,-8.0,-2.0,1650846520918685.0
-10.0,-15.0,-2.0,6.0,0.0,-5.0,-4.0,1.0,1650846520918685.0
17.0,29.0,16.0,3.0,15.0,14.0,10.0,-5.0,1650846520931652.0
5.0,6.0,-5.0,-13.0,-1.0,3.0,-1.0,-4.0,1650846520931652.0
-23.0,-46.0,-26.0,9.0,-12.0,-18.0,-15.0,13.0,1650846520939775.0
-4.0,12.0,17.0,-1.0,-4.0,-1.0,2.0,-11.0,1650846520939775.0
14.0,23.0,10.0,-9.0,4.0,14.0,10.0,-4.0,1650846520940747.0
-9.0,-28.0,-25.0,1.0,-5.0,-15.0,-13.0,0.0,1650846520940747.0
-9.0,-17.0,13.0,10.0,1.0,5.0,4.0,-4.0,1650846520940747.0
14.0,32.0,14.0,-13.0,3.0,-1.0,-2.0,-2.0,1650846520940747.0
1.0,-9.0,-26.0,-11.0,-6.0,5.0,2.0,3.0,1650846520961717.0
-19.0,-33.0,1.0,9.0,-6.0,-9.0,-8.0,0.0,1650846520961717.0
23.0,39.0,15.0,6.0,13.0,12.0,11.0,-4.0,1650846520961717.0
6.0,-1.0,-10.0,3.0,5.0,2.0,-3.0,-3.0,1650846520961717.0
-19.0,-31.0,-9.0,7.0,-9.0,-14.0,-10.0,9.0,1650846520975679.0
3.0,8.0,13.0,0.0,0.0,5.0,6.0,-5.0,1650846520975679.0
13.0,34.0,11.0,-5.0,3.0,6.0,-1.0,-6.0,1650846520983675.0
-9.0,-21.0,-5.0,9.0,1.0,-2.0,-2.0,4.0,1650846520983675.0
-6.0,-15.0,-6.0,-14.0,-10.0,-6.0,-2.0,1.0,1650846520992606.0
27.0,36.0,17.0,21.0,17.0,12.0,7.0,5.0,1650846520992606.0
-9.0,20.0,43.0,2.0,0.0,-1.0,-6.0,-8.0,1650846521005571.0
-7.0,-5.0,-22.0,-8.0,-5.0,-10.0,-7.0,14.0,1650846521005571.0
-1.0,8.0,6.0,-21.0,-6.0,7.0,6.0,-16.0,1650846521014549.0
18.0,1.0,-10.0,3.0,4.0,1.0,-1.0,29.0,1650846521014549.0
-35.0,-37.0,-44.0,-31.0,-17.0,-5.0,-4.0,-22.0,1650846521020560.0
-10.0,-24.0,-48.0,-12.0,2.0,9.0,0.0,-8.0,1650846521020560.0
6.0,27.0,6.0,6.0,4.0,1.0,1.0,-2.0,1650846521037486.0
2.0,5.0,29.0,14.0,3.0,-2.0,0.0,-3.0,1650846521037486.0
10.0,-8.0,-34.0,-2.0,-3.0,-2.0,-1.0,17.0,1650846521043470.0
13.0,1.0,-7.0,-17.0,-1.0,4.0,4.0,6.0,1650846521043470.0
-31.0,-7.0,26.0,12.0,2.0,-4.0,-6.0,-27.0,1650846521051899.0
-10.0,-16.0,-22.0,-1.0,-4.0,-5.0,-2.0,0.0,1650846521051899.0
14.0,17.0,8.0,-1.0,3.0,3.0,1.0,4.0,1650846521065865.0
3.0,0.0,19.0,15.0,8.0,2.0,0.0,-5.0,1650846521065865.0
7.0,-3.0,1.0,6.0,-2.0,-6.0,-4.0,8.0,1650846521074852.0
-4.0,2.0,-1.0,10.0,4.0,3.0,2.0,-4.0,1650846521074852.0
5.0,-16.0,0.0,-7.0,-3.0,-2.0,-1.0,-5.0,1650846521080852.0
3.0,28.0,13.0,-1.0,-3.0,-3.0,-1.0,4.0,1650846521080852.0
1.0,-1.0,10.0,9.0,0.0,-6.0,-3.0,9.0,1650846521096951.0
-5.0,-1.0,3.0,-15.0,0.0,5.0,1.0,-7.0,1650846521096951.0
2.0,3.0,14.0,-1.0,0.0,-4.0,-5.0,-7.0,1650846521103002.0
-5.0,-19.0,-9.0,-1.0,-5.0,-2.0,0.0,-1.0,1650846521103002.0
-8.0,-22.0,-33.0,-12.0,0.0,-1.0,0.0,2.0,1650846521111912.0
23.0,42.0,-6.0,-10.0,-3.0,0.0,1.0,16.0,1650846521111912.0
-35.0,5.0,27.0,33.0,5.0,-3.0,-5.0,-31.0,1650846521125812.0
2.0,-9.0,12.0,-5.0,-4.0,-3.0,3.0,7.0,1650846521125812.0
25.0,38.0,20.0,11.0,5.0,5.0,1.0,9.0,1650846521134774.0
-40.0,-46.0,-41.0,-19.0,-5.0,-2.0,-3.0,-17.0,1650846521134774.0
18.0,12.0,10.0,8.0,5.0,3.0,2.0,8.0,1650846521140772.0
-7.0,11.0,9.0,0.0,-4.0,-1.0,1.0,1.0,1650846521140772.0
5.0,-22.0,-25.0,-2.0,-4.0,-2.0,-3.0,2.0,1650846521156768.0
5.0,3.0,23.0,3.0,-2.0,-1.0,2.0,2.0,1650846521156768.0
9.0,17.0,-17.0,7.0,3.0,0.0,0.0,8.0,1650846521162714.0
-10.0,-2.0,9.0,-3.0,1.0,1.0,4.0,1.0,1650846521162714.0
0.0,11.0,5.0,3.0,2.0,-2.0,-6.0,-1.0,1650846521171725.0
-11.0,-28.0,3.0,-5.0,-6.0,-2.0,-2.0,-21.0,1650846521171725.0
14.0,-9.0,5.0,-9.0,-1.0,0.0,0.0,15.0,1650846521185691.0
-9.0,-6.0,-21.0,1.0,0.0,-2.0,-1.0,-10.0,1650846521185691.0
-11.0,-4.0,7.0,5.0,1.0,0.0,3.0,-3.0,1650846521194600.0
4.0,-12.0,26.0,13.0,5.0,0.0,-1.0,6.0,1650846521194600.0
-2.0,15.0,-18.0,-1.0,-2.0,-2.0,1.0,2.0,1650846521200590.0
6.0,-5.0,5.0,3.0,5.0,2.0,-1.0,2.0,1650846521200590.0
8.0,-5.0,2.0,-5.0,-5.0,-4.0,-3.0,-2.0,1650846521239601.0
-13.0,-14.0,-14.0,-6.0,-1.0,0.0,-1.0,-6.0,1650846521239601.0
4.0,-2.0,7.0,1.0,0.0,0.0,-2.0,6.0,1650846521241549.0
6.0,11.0,-12.0,-3.0,-4.0,-3.0,-1.0,4.0,1650846521241549.0
-7.0,-1.0,11.0,-3.0,-1.0,-1.0,-2.0,-5.0,1650846521254558.0
19.0,1.0,-5.0,-1.0,0.0,1.0,-1.0,10.0,1650846521254558.0
-15.0,4.0,-2.0,2.0,-1.0,-2.0,1.0,-12.0,1650846521256510.0
13.0,11.0,3.0,-3.0,1.0,3.0,2.0,9.0,1650846521256510.0
-10.0,-19.0,-14.0,-12.0,-6.0,-3.0,-5.0,-11.0,1650846521269259.0
-1.0,3.0,-31.0,-9.0,-8.0,-7.0,-1.0,22.0,1650846521269259.0
9.0,-1.0,7.0,-5.0,1.0,0.0,-1.0,-5.0,1650846521269730.0
6.0,18.0,10.0,3.0,3.0,2.0,9.0,13.0,1650846521269730.0
9.0,-7.0,-12.0,-9.0,-3.0,-1.0,-6.0,-4.0,1650846521282699.0
-31.0,8.0,32.0,13.0,5.0,3.0,-2.0,-31.0,1650846521282699.0
4.0,-3.0,-21.0,-15.0,-7.0,-1.0,2.0,11.0,1650846521291673.0
0.0,-3.0,0.0,1.0,0.0,-2.0,0.0,-2.0,1650846521291673.0
1.0,1.0,-3.0,7.0,5.0,-1.0,7.0,15.0,1650846521306633.0
11.0,13.0,0.0,-2.0,-3.0,-1.0,0.0,0.0,1650846521306633.0
-14.0,-12.0,-3.0,1.0,-2.0,-1.0,2.0,-2.0,1650846521306633.0
2.0,-1.0,15.0,1.0,-2.0,-2.0,-1.0,-1.0,1650846521306633.0
-12.0,8.0,8.0,9.0,7.0,3.0,3.0,-10.0,1650846521328641.0
6.0,25.0,13.0,0.0,5.0,3.0,2.0,2.0,1650846521328641.0
5.0,-7.0,-1.0,-3.0,0.0,-1.0,0.0,6.0,1650846521329572.0
3.0,12.0,17.0,9.0,3.0,0.0,-2.0,-7.0,1650846521329572.0
3.0,-2.0,-6.0,-6.0,-2.0,1.0,1.0,6.0,1650846521343535.0
0.0,14.0,-6.0,0.0,-1.0,0.0,3.0,-2.0,1650846521343535.0
4.0,1.0,0.0,-2.0,-1.0,-3.0,0.0,4.0,1650846521351580.0
-2.0,-10.0,-10.0,-1.0,0.0,0.0,-3.0,-5.0,1650846521351580.0
2.0,11.0,5.0,8.0,5.0,4.0,1.0,5.0,1650846521366479.0
3.0,-13.0,-8.0,-5.0,-2.0,-3.0,-3.0,-4.0,1650846521366479.0
-1.0,-7.0,-3.0,-12.0,-3.0,3.0,1.0,2.0,1650846521367471.0
-3.0,-11.0,-2.0,3.0,0.0,-2.0,-4.0,-6.0,1650846521367471.0
-3.0,-18.0,-7.0,1.0,-6.0,-3.0,-6.0,10.0,1650846521388415.0
0.0,8.0,3.0,-11.0,-2.0,-1.0,0.0,2.0,1650846521388415.0
4.0,-6.0,-5.0,9.0,6.0,3.0,-1.0,-3.0,1650846521389412.0
2.0,7.0,5.0,-1.0,-1.0,1.0,2.0,3.0,1650846521389412.0
-3.0,8.0,-1.0,-4.0,-2.0,-2.0,3.0,2.0,1650846521397411.0
5.0,3.0,4.0,2.0,3.0,2.0,0.0,0.0,1650846521397411.0
1.0,17.0,4.0,4.0,-4.0,0.0,-3.0,-1.0,1650846521403402.0
-5.0,-40.0,-17.0,-3.0,-3.0,-1.0,-5.0,-1.0,1650846521403402.0
5.0,11.0,-5.0,-5.0,1.0,1.0,1.0,0.0,1650846521418672.0
1.0,-5.0,2.0,3.0,1.0,0.0,-1.0,1.0,1650846521418672.0
-6.0,-23.0,-21.0,-7.0,-6.0,-4.0,-2.0,4.0,1650846521425682.0
-1.0,13.0,3.0,-5.0,1.0,-1.0,-3.0,-5.0,1650846521425682.0
5.0,17.0,10.0,13.0,2.0,1.0,1.0,3.0,1650846521441612.0
-7.0,-11.0,-11.0,-1.0,-2.0,-1.0,-2.0,3.0,1650846521441612.0
-1.0,-9.0,4.0,-3.0,-4.0,-1.0,1.0,0.0,1650846521442610.0
0.0,19.0,-2.0,3.0,13.0,6.0,3.0,-3.0,1650846521442610.0
-3.0,-12.0,-2.0,-4.0,-5.0,-3.0,-4.0,-1.0,1650846521457569.0
0.0,-12.0,1.0,4.0,0.0,-4.0,-3.0,-2.0,1650846521457569.0
1.0,9.0,4.0,0.0,4.0,-1.0,3.0,1.0,1650846521463562.0
6.0,20.0,3.0,-1.0,-5.0,1.0,0.0,-2.0,1650846521463562.0
-4.0,-9.0,1.0,-2.0,-2.0,-1.0,-1.0,1.0,1650846521478513.0
7.0,5.0,4.0,3.0,1.0,0.0,-2.0,4.0,1650846521478513.0
-16.0,-3.0,-2.0,-1.0,-1.0,1.0,-2.0,-10.0,1650846521485495.0
-3.0,12.0,5.0,4.0,-1.0,-2.0,-1.0,-2.0,1650846521485495.0
-5.0,-25.0,-8.0,-2.0,-1.0,-1.0,0.0,1.0,1650846521501455.0
4.0,14.0,-2.0,0.0,-4.0,2.0,-1.0,1.0,1650846521501455.0
3.0,-3.0,7.0,2.0,4.0,1.0,-1.0,1.0,1650846521502449.0
-4.0,-9.0,-1.0,-3.0,-3.0,-1.0,-1.0,0.0,1650846521502449.0
2.0,3.0,-4.0,0.0,0.0,0.0,1.0,-2.0,1650846521517422.0
-6.0,-6.0,-3.0,-2.0,0.0,1.0,1.0,-2.0,1650846521517422.0
3.0,6.0,0.0,0.0,0.0,-2.0,-3.0,5.0,1650846521523393.0
-5.0,-15.0,-3.0,-3.0,-3.0,-2.0,2.0,2.0,1650846521523393.0
5.0,5.0,-1.0,-1.0,3.0,-1.0,0.0,1.0,1650846521538356.0
-5.0,-5.0,4.0,1.0,-2.0,-4.0,-2.0,-6.0,1650846521538356.0
1.0,2.0,-5.0,-3.0,-4.0,0.0,2.0,2.0,1650846521545334.0
1.0,1.0,-1.0,-8.0,-8.0,-4.0,-3.0,1.0,1650846521545334.0
-6.0,-7.0,-5.0,-1.0,0.0,-1.0,-1.0,-3.0,1650846521561291.0
2.0,3.0,0.0,0.0,4.0,1.0,0.0,0.0,1650846521561291.0
1.0,-1.0,5.0,3.0,1.0,1.0,-3.0,1.0,1650846521562289.0
-3.0,-7.0,-17.0,-6.0,-4.0,-3.0,-2.0,-4.0,1650846521562289.0
-1.0,0.0,12.0,2.0,1.0,-2.0,-4.0,3.0,1650846521577269.0
-2.0,14.0,-6.0,-1.0,-4.0,0.0,-1.0,-1.0,1650846521577269.0
3.0,-16.0,-2.0,4.0,2.0,0.0,0.0,0.0,1650846521583254.0
-3.0,-16.0,0.0,2.0,2.0,1.0,-1.0,-1.0,1650846521583254.0
7.0,23.0,-1.0,-6.0,-3.0,-3.0,1.0,0.0,1650846521598213.0
-2.0,-3.0,1.0,0.0,3.0,2.0,1.0,-4.0,1650846521598213.0
0.0,-1.0,2.0,-1.0,-3.0,0.0,1.0,0.0,1650846521606192.0
-4.0,-18.0,-1.0,-2.0,-2.0,-2.0,-2.0,-1.0,1650846521606192.0
5.0,16.0,6.0,3.0,-1.0,2.0,2.0,2.0,1650846521628743.0
-2.0,-10.0,-8.0,-8.0,-6.0,-3.0,-1.0,-1.0,1650846521628743.0
1.0,9.0,2.0,0.0,3.0,0.0,0.0,1.0,1650846521629741.0
-1.0,-5.0,1.0,1.0,-1.0,1.0,0.0,-1.0,1650846521629741.0
-2.0,0.0,3.0,-2.0,1.0,1.0,-1.0,-2.0,1650846521636749.0
-1.0,-4.0,-4.0,-1.0,-2.0,0.0,1.0,1.0,1650846521636749.0
-2.0,0.0,0.0,-5.0,-3.0,-2.0,-2.0,0.0,1650846521642734.0
5.0,3.0,-10.0,2.0,2.0,-1.0,1.0,0.0,1650846521642734.0
-3.0,3.0,4.0,-1.0,-2.0,-2.0,-1.0,-4.0,1650846521657694.0
-1.0,-6.0,-6.0,-7.0,0.0,0.0,1.0,2.0,1650846521657694.0
1.0,-4.0,5.0,3.0,2.0,-4.0,-3.0,-1.0,1650846521665673.0
-2.0,4.0,6.0,7.0,2.0,3.0,1.0,-3.0,1650846521665673.0
-1.0,7.0,-10.0,-7.0,-6.0,-2.0,0.0,0.0,1650846521681629.0
-2.0,-11.0,-1.0,1.0,-1.0,0.0,0.0,0.0,1650846521681629.0
0.0,6.0,1.0,0.0,0.0,-1.0,-2.0,0.0,1650846521681629.0
0.0,8.0,4.0,-2.0,1.0,0.0,1.0,3.0,1650846521681629.0
0.0,-11.0,-3.0,3.0,0.0,0.0,-1.0,-1.0,1650846521697586.0
-2.0,3.0,2.0,-1.0,0.0,-1.0,0.0,2.0,1650846521697586.0
0.0,3.0,1.0,2.0,0.0,0.0,0.0,-3.0,1650846521703543.0
-1.0,11.0,0.0,-3.0,-2.0,-3.0,-2.0,-2.0,1650846521703543.0
-2.0,-11.0,-4.0,3.0,0.0,2.0,0.0,-1.0,1650846521718569.0
-2.0,-6.0,-11.0,-7.0,-5.0,-1.0,3.0,0.0,1650846521718569.0
-1.0,-5.0,-2.0,1.0,1.0,1.0,-1.0,0.0,1650846521725485.0
4.0,7.0,13.0,2.0,-2.0,-1.0,-2.0,2.0,1650846521725485.0
-1.0,-3.0,-1.0,0.0,-2.0,-2.0,-2.0,-2.0,1650846521741612.0
2.0,5.0,0.0,0.0,2.0,2.0,0.0,-3.0,1650846521741612.0
-3.0,-4.0,1.0,0.0,-1.0,1.0,3.0,0.0,1650846521742661.0
-5.0,-3.0,-3.0,1.0,0.0,-3.0,-1.0,0.0,1650846521742661.0
2.0,-19.0,-6.0,-4.0,-3.0,-3.0,0.0,1.0,1650846521756843.0
0.0,-11.0,-5.0,-1.0,1.0,-4.0,-1.0,-1.0,1650846521756843.0
0.0,14.0,9.0,3.0,-1.0,-1.0,0.0,0.0,1650846521762848.0
-1.0,-12.0,-1.0,-2.0,3.0,1.0,1.0,0.0,1650846521762848.0
2.0,15.0,-4.0,-1.0,0.0,-1.0,-2.0,-3.0,1650846521777808.0
-2.0,-9.0,4.0,0.0,-1.0,0.0,0.0,-1.0,1650846521777808.0
-1.0,-1.0,-5.0,-3.0,-4.0,-4.0,-1.0,-2.0,1650846521785826.0
1.0,-8.0,-1.0,-1.0,0.0,2.0,0.0,-2.0,1650846521785826.0
-1.0,9.0,-4.0,-3.0,-2.0,1.0,-1.0,4.0,1650846521801789.0
-2.0,3.0,4.0,4.0,0.0,-4.0,-3.0,-3.0,1650846521801789.0
0.0,-2.0,-6.0,-4.0,0.0,1.0,1.0,-3.0,1650846521801789.0
-2.0,-3.0,0.0,2.0,2.0,1.0,-4.0,0.0,1650846521801789.0
-3.0,-2.0,4.0,0.0,0.0,0.0,1.0,-2.0,1650846521816677.0
2.0,-12.0,-1.0,3.0,2.0,-1.0,0.0,0.0,1650846521816677.0
-2.0,-3.0,-7.0,-4.0,0.0,0.0,-3.0,-1.0,1650846521823658.0
0.0,-13.0,-9.0,-4.0,-3.0,0.0,1.0,0.0,1650846521823658.0
-1.0,2.0,5.0,0.0,0.0,0.0,2.0,1.0,1650846521838618.0
-1.0,12.0,2.0,0.0,-2.0,0.0,-1.0,0.0,1650846521838618.0
-1.0,2.0,-1.0,1.0,-1.0,-1.0,1.0,0.0,1650846521845600.0
1.0,-5.0,-2.0,-2.0,-2.0,-1.0,-2.0,-2.0,1650846521845600.0
1.0,2.0,-2.0,1.0,0.0,0.0,-2.0,0.0,1650846521861557.0
-2.0,2.0,3.0,1.0,-1.0,0.0,0.0,3.0,1650846521861557.0
2.0,6.0,-4.0,-2.0,0.0,0.0,1.0,1.0,1650846521862558.0
-3.0,-2.0,-4.0,-5.0,-3.0,1.0,1.0,-3.0,1650846521862558.0
-1.0,5.0,13.0,5.0,1.0,-4.0,-3.0,-2.0,1650846521877542.0
1.0,2.0,-4.0,0.0,1.0,0.0,2.0,-1.0,1650846521877542.0
1.0,-5.0,-2.0,1.0,-2.0,-1.0,-2.0,0.0,1650846521883499.0
1.0,7.0,0.0,0.0,-1.0,0.0,3.0,1.0,1650846521883499.0
-2.0,-14.0,-3.0,2.0,0.0,-1.0,-2.0,1.0,1650846521898489.0
0.0,1.0,-1.0,-3.0,-3.0,-1.0,-1.0,-1.0,1650846521898489.0
-1.0,-8.0,-4.0,0.0,0.0,-1.0,-3.0,1.0,1650846521905440.0
-3.0,10.0,2.0,-2.0,-3.0,-1.0,-1.0,0.0,1650846521905440.0
1.0,-1.0,0.0,-2.0,1.0,-1.0,2.0,2.0,1650846521920401.0
0.0,18.0,0.0,3.0,-1.0,-1.0,-1.0,-3.0,1650846521920401.0
-1.0,-24.0,-6.0,-3.0,-2.0,-1.0,1.0,-1.0,1650846521937374.0
-2.0,2.0,-1.0,2.0,0.0,-3.0,-3.0,-1.0,1650846521937374.0
-1.0,-7.0,-4.0,-3.0,-1.0,2.0,-2.0,0.0,1650846521938352.0
-2.0,0.0,2.0,-1.0,-3.0,-3.0,-2.0,-1.0,1650846521938352.0
-2.0,-2.0,3.0,-1.0,1.0,3.0,0.0,-2.0,1650846521943338.0
4.0,14.0,4.0,2.0,2.0,0.0,0.0,-1.0,1650846521943338.0
-2.0,-1.0,0.0,3.0,-1.0,-5.0,1.0,0.0,1650846521958318.0
-1.0,-7.0,-6.0,2.0,0.0,-2.0,-1.0,3.0,1650846521958318.0
-1.0,1.0,3.0,-2.0,-3.0,-1.0,-1.0,-2.0,1650846521965279.0
-5.0,-8.0,1.0,4.0,3.0,2.0,-2.0,0.0,1650846521965279.0
0.0,-1.0,-4.0,0.0,2.0,2.0,0.0,-4.0,1650846521980259.0
2.0,-15.0,1.0,-1.0,-1.0,0.0,-1.0,1.0,1650846521980259.0
2.0,7.0,2.0,-2.0,3.0,-1.0,-1.0,0.0,1650846521988218.0
-1.0,-1.0,-2.0,-3.0,-4.0,-4.0,-2.0,1.0,1650846521988218.0
1.0,3.0,-1.0,0.0,0.0,1.0,1.0,-2.0,1650846521997193.0
1.0,3.0,-1.0,-3.0,-1.0,1.0,0.0,-1.0,1650846521997193.0
-2.0,4.0,-1.0,-5.0,-2.0,0.0,-1.0,1.0,1650846522003198.0
2.0,-3.0,5.0,14.0,3.0,-1.0,1.0,1.0,1650846522003198.0
-2.0,0.0,-8.0,-14.0,-5.0,1.0,-1.0,-3.0,1650846522018177.0
-2.0,1.0,1.0,1.0,-2.0,-1.0,-2.0,-3.0,1650846522018177.0
-5.0,-3.0,-8.0,-6.0,-10.0,-7.0,-1.0,3.0,1650846522026156.0
4.0,14.0,6.0,22.0,13.0,7.0,2.0,-3.0,1650846522026156.0
3.0,2.0,11.0,9.0,29.0,7.0,5.0,3.0,1650846522041098.0
-5.0,-7.0,-3.0,2.0,-2.0,-3.0,-2.0,-2.0,1650846522041098.0
1.0,3.0,0.0,-10.0,-7.0,-2.0,-2.0,-4.0,1650846522048579.0
5.0,7.0,4.0,15.0,17.0,4.0,2.0,0.0,1650846522048579.0
-6.0,-26.0,-12.0,-8.0,-16.0,-8.0,-5.0,2.0,1650846522057213.0
2.0,6.0,17.0,3.0,8.0,4.0,2.0,1.0,1650846522057213.0
3.0,7.0,2.0,-5.0,7.0,8.0,4.0,0.0,1650846522063235.0
-2.0,-11.0,-10.0,-11.0,-10.0,-5.0,-2.0,1.0,1650846522063235.0
-4.0,-6.0,-12.0,-5.0,-5.0,-5.0,-2.0,-3.0,1650846522078246.0
1.0,6.0,1.0,-7.0,-5.0,-4.0,1.0,1.0,1650846522078246.0
-2.0,-2.0,-1.0,11.0,1.0,0.0,1.0,0.0,1650846522086235.0
-1.0,-4.0,-3.0,-8.0,-8.0,0.0,-2.0,0.0,1650846522086235.0
1.0,6.0,2.0,-1.0,0.0,2.0,-1.0,-1.0,1650846522102321.0
-3.0,-4.0,-4.0,0.0,-4.0,-1.0,1.0,-1.0,1650846522102321.0
0.0,6.0,-1.0,-2.0,-1.0,-3.0,1.0,-1.0,1650846522108332.0
-2.0,-9.0,0.0,1.0,1.0,-1.0,0.0,0.0,1650846522108332.0
1.0,8.0,4.0,2.0,1.0,2.0,0.0,-1.0,1650846522124264.0
0.0,3.0,-2.0,6.0,-2.0,0.0,2.0,-1.0,1650846522124264.0
-5.0,2.0,10.0,7.0,11.0,3.0,0.0,1.0,1650846522124264.0
4.0,5.0,-6.0,-9.0,-4.0,-3.0,-3.0,0.0,1650846522124264.0
-5.0,-5.0,0.0,12.0,-4.0,-1.0,-1.0,-1.0,1650846522138290.0
-1.0,-6.0,-2.0,-5.0,7.0,2.0,-4.0,-1.0,1650846522138290.0
4.0,11.0,-3.0,1.0,1.0,1.0,1.0,-1.0,1650846522146232.0
-4.0,-7.0,-2.0,-17.0,-13.0,-5.0,0.0,1.0,1650846522146232.0
1.0,3.0,1.0,6.0,-1.0,3.0,2.0,0.0,1650846522161187.0
-2.0,0.0,-3.0,-6.0,-3.0,-4.0,0.0,0.0,1650846522161187.0
-4.0,-14.0,-2.0,2.0,-1.0,0.0,-1.0,-3.0,1650846522168144.0
-3.0,-2.0,-3.0,-10.0,-4.0,-2.0,-2.0,-1.0,1650846522168144.0
1.0,1.0,1.0,1.0,0.0,-4.0,0.0,1.0,1650846522184103.0
-1.0,0.0,-10.0,-2.0,-1.0,-2.0,1.0,0.0,1650846522184103.0
2.0,-2.0,11.0,6.0,0.0,0.0,-1.0,-2.0,1650846522184103.0
0.0,1.0,-5.0,-12.0,-5.0,1.0,1.0,0.0,1650846522184103.0
-2.0,3.0,9.0,19.0,9.0,1.0,-2.0,1.0,1650846522198128.0
4.0,13.0,1.0,-17.0,-8.0,-4.0,1.0,0.0,1650846522198128.0
0.0,-5.0,3.0,23.0,0.0,-1.0,0.0,2.0,1650846522206109.0
-1.0,-1.0,-10.0,-16.0,-5.0,-1.0,-1.0,-1.0,1650846522206109.0
-1.0,4.0,0.0,-25.0,-9.0,-3.0,-3.0,-2.0,1650846522220798.0
-4.0,-28.0,2.0,18.0,3.0,4.0,0.0,-1.0,1650846522220798.0
2.0,7.0,-11.0,-13.0,-1.0,-2.0,-3.0,0.0,1650846522227779.0
-8.0,-14.0,-3.0,-12.0,-13.0,-7.0,-4.0,-3.0,1650846522227779.0
1.0,8.0,0.0,-2.0,0.0,-2.0,2.0,-2.0,1650846522243709.0
-2.0,0.0,0.0,-2.0,1.0,2.0,0.0,-1.0,1650846522243709.0
-1.0,0.0,1.0,-1.0,-2.0,-1.0,2.0,-1.0,1650846522244714.0
-1.0,-2.0,3.0,10.0,7.0,3.0,1.0,-1.0,1650846522244714.0
-1.0,-9.0,-9.0,-11.0,-8.0,-4.0,1.0,0.0,1650846522259757.0
0.0,7.0,0.0,-1.0,-2.0,0.0,-3.0,-5.0,1650846522259757.0
-2.0,0.0,3.0,13.0,2.0,3.0,0.0,0.0,1650846522265811.0
1.0,21.0,9.0,0.0,0.0,-1.0,0.0,0.0,1650846522265811.0
-4.0,-25.0,-6.0,8.0,6.0,0.0,-3.0,0.0,1650846522280848.0
2.0,10.0,1.0,-16.0,-10.0,-2.0,-2.0,0.0,1650846522280848.0
-1.0,-3.0,2.0,23.0,4.0,-1.0,1.0,-3.0,1650846522288636.0
0.0,7.0,0.0,-9.0,-2.0,-2.0,1.0,-2.0,1650846522288636.0
-3.0,-2.0,0.0,-1.0,-3.0,-1.0,0.0,0.0,1650846522303846.0
2.0,10.0,3.0,2.0,10.0,3.0,1.0,0.0,1650846522303846.0
-3.0,-10.0,-2.0,-14.0,-9.0,-3.0,-4.0,1.0,1650846522304777.0
-4.0,-8.0,0.0,2.0,1.0,-2.0,-2.0,-2.0,1650846522304777.0
-1.0,3.0,-13.0,-8.0,-5.0,-3.0,-6.0,-3.0,1650846522317742.0
0.0,4.0,0.0,-22.0,-9.0,-1.0,0.0,0.0,1650846522317742.0
1.0,3.0,-7.0,9.0,13.0,3.0,1.0,1.0,1650846522325721.0
0.0,-8.0,0.0,3.0,-7.0,-2.0,-6.0,-1.0,1650846522325721.0
5.0,10.0,4.0,-1.0,5.0,4.0,6.0,0.0,1650846522340870.0
-6.0,-13.0,-7.0,5.0,4.0,-1.0,-3.0,0.0,1650846522340870.0
2.0,11.0,0.0,-14.0,-7.0,-3.0,1.0,-1.0,1650846522347784.0
1.0,4.0,4.0,14.0,4.0,1.0,-1.0,-3.0,1650846522347784.0
2.0,0.0,0.0,-5.0,-1.0,1.0,1.0,0.0,1650846522365767.0
0.0,-5.0,-1.0,8.0,0.0,0.0,-11.0,-2.0,1650846522365767.0
-1.0,-1.0,2.0,-8.0,-1.0,1.0,6.0,-2.0,1650846522365767.0
-2.0,6.0,3.0,16.0,7.0,3.0,17.0,2.0,1650846522365767.0
-2.0,-9.0,-4.0,-10.0,-11.0,-4.0,-1.0,-3.0,1650846522379700.0
-2.0,0.0,0.0,-4.0,2.0,-2.0,-7.0,-1.0,1650846522379700.0
3.0,3.0,-4.0,3.0,2.0,-1.0,17.0,13.0,1650846522385685.0
-6.0,-13.0,-8.0,-9.0,-9.0,-6.0,-26.0,-19.0,1650846522385685.0
7.0,8.0,10.0,9.0,5.0,6.0,12.0,8.0,1650846522400769.0
2.0,0.0,4.0,10.0,6.0,-3.0,-8.0,-1.0,1650846522400769.0
-2.0,3.0,-5.0,-9.0,-6.0,3.0,6.0,1.0,1650846522407776.0
0.0,-7.0,1.0,0.0,7.0,4.0,35.0,13.0,1650846522407776.0
-5.0,-7.0,-3.0,-13.0,-15.0,-8.0,-23.0,-15.0,1650846522423738.0
6.0,11.0,-5.0,-4.0,9.0,3.0,0.0,5.0,1650846522423738.0
-7.0,-10.0,-6.0,-14.0,-12.0,-13.0,-21.0,-1.0,1650846522424748.0
1.0,0.0,3.0,13.0,1.0,5.0,8.0,6.0,1650846522424748.0
-1.0,2.0,0.0,-11.0,-1.0,-3.0,-2.0,-3.0,1650846522438608.0
0.0,0.0,-4.0,-5.0,-3.0,3.0,13.0,9.0,1650846522438608.0
-6.0,-7.0,-3.0,-4.0,-3.0,-2.0,-13.0,-16.0,1650846522445753.0
1.0,-4.0,0.0,-14.0,-3.0,-5.0,-12.0,0.0,1650846522445753.0
-2.0,3.0,-4.0,-7.0,0.0,0.0,8.0,4.0,1650846522460712.0
1.0,-3.0,6.0,32.0,1.0,0.0,1.0,-1.0,1650846522460712.0
1.0,0.0,-1.0,0.0,4.0,0.0,-7.0,-4.0,1650846522468665.0
3.0,11.0,7.0,2.0,3.0,1.0,-13.0,0.0,1650846522468665.0
1.0,-11.0,-9.0,-2.0,1.0,6.0,25.0,9.0,1650846522483651.0
-10.0,-12.0,0.0,-3.0,-9.0,-11.0,-13.0,-12.0,1650846522483651.0
5.0,6.0,5.0,-8.0,1.0,7.0,2.0,3.0,1650846522484621.0
-9.0,-11.0,-9.0,-12.0,-7.0,-9.0,-13.0,-7.0,1650846522484621.0
0.0,6.0,7.0,31.0,10.0,-1.0,-9.0,-2.0,1650846522498583.0
-3.0,-2.0,6.0,-4.0,-4.0,0.0,11.0,0.0,1650846522498583.0
5.0,8.0,-3.0,-12.0,-6.0,-2.0,-1.0,2.0,1650846522505631.0
-3.0,0.0,-4.0,5.0,-14.0,-1.0,-2.0,0.0,1650846522505631.0
4.0,6.0,6.0,6.0,20.0,2.0,-5.0,1.0,1650846522521098.0
2.0,-3.0,-1.0,7.0,0.0,0.0,2.0,-2.0,1650846522521098.0
-2.0,-4.0,1.0,0.0,3.0,0.0,-6.0,-2.0,1650846522528044.0
2.0,2.0,3.0,9.0,2.0,-2.0,7.0,6.0,1650846522528044.0
3.0,2.0,1.0,13.0,-2.0,1.0,-7.0,2.0,1650846522543998.0
-14.0,-3.0,-1.0,2.0,0.0,-1.0,0.0,-13.0,1650846522543998.0
0.0,-7.0,-2.0,-3.0,-6.0,-6.0,3.0,5.0,1650846522544968.0
0.0,-4.0,-5.0,-6.0,1.0,-2.0,-5.0,-2.0,1650846522544968.0
-5.0,0.0,0.0,-5.0,-9.0,-2.0,-5.0,-3.0,1650846522557948.0
2.0,4.0,1.0,8.0,5.0,5.0,2.0,4.0,1650846522557948.0
0.0,-7.0,-1.0,-5.0,-12.0,-7.0,0.0,1.0,1650846522565949.0
5.0,4.0,6.0,13.0,9.0,3.0,4.0,0.0,1650846522565949.0
-8.0,-6.0,-4.0,-4.0,-8.0,-4.0,-6.0,2.0,1650846522580815.0
4.0,14.0,9.0,-7.0,5.0,7.0,2.0,3.0,1650846522580815.0
-3.0,-10.0,-14.0,-20.0,-1.0,3.0,2.0,-2.0,1650846522588741.0
-1.0,1.0,2.0,7.0,1.0,2.0,-5.0,0.0,1650846522588741.0
5.0,5.0,-1.0,-5.0,-3.0,5.0,27.0,11.0,1650846522603769.0
1.0,-8.0,-15.0,-26.0,-13.0,-7.0,-8.0,-3.0,1650846522603769.0
0.0,7.0,13.0,28.0,20.0,7.0,1.0,0.0,1650846522604701.0
-3.0,-15.0,-9.0,-13.0,-10.0,-6.0,-8.0,-3.0,1650846522604701.0
-1.0,8.0,-4.0,-4.0,3.0,3.0,3.0,2.0,1650846522618172.0
-7.0,-10.0,-8.0,-6.0,-6.0,-4.0,2.0,0.0,1650846522618172.0
5.0,4.0,8.0,18.0,1.0,3.0,-1.0,-2.0,1650846522626154.0
3.0,4.0,4.0,-7.0,2.0,1.0,0.0,0.0,1650846522626154.0
-3.0,-14.0,-6.0,1.0,-9.0,-4.0,-10.0,-12.0,1650846522640258.0
1.0,2.0,6.0,13.0,12.0,1.0,-1.0,1.0,1650846522640258.0
-2.0,1.0,-6.0,-17.0,-10.0,-6.0,12.0,5.0,1650846522648264.0
0.0,6.0,-6.0,1.0,-3.0,-5.0,-18.0,-8.0,1650846522648264.0
4.0,-3.0,-2.0,-8.0,2.0,1.0,1.0,1.0,1650846522679266.0
-2.0,-4.0,2.0,16.0,11.0,1.0,16.0,1.0,1650846522679266.0
-7.0,-8.0,-2.0,3.0,-6.0,-5.0,-8.0,-4.0,1650846522681231.0
1.0,0.0,5.0,16.0,11.0,7.0,6.0,3.0,1650846522681231.0
-6.0,0.0,-3.0,-9.0,-9.0,-8.0,-25.0,-11.0,1650846522702178.0
12.0,10.0,3.0,-1.0,6.0,5.0,23.0,12.0,1650846522702178.0
-14.0,-11.0,-4.0,-4.0,0.0,0.0,-4.0,3.0,1650846522703173.0
-4.0,-9.0,2.0,9.0,0.0,-1.0,1.0,-1.0,1650846522703173.0
1.0,3.0,6.0,9.0,0.0,2.0,-2.0,1.0,1650846522723185.0
1.0,-5.0,-2.0,-7.0,-7.0,-3.0,-9.0,-4.0,1650846522723185.0
6.0,9.0,-3.0,2.0,5.0,-2.0,2.0,-2.0,1650846522732096.0
2.0,1.0,-3.0,-32.0,-6.0,3.0,4.0,6.0,1650846522732096.0
3.0,4.0,2.0,3.0,8.0,0.0,16.0,5.0,1650846522755034.0
-11.0,-10.0,-6.0,-1.0,-13.0,-7.0,-17.0,-8.0,1650846522755034.0
3.0,2.0,0.0,-4.0,4.0,1.0,-3.0,-2.0,1650846522761046.0
2.0,0.0,-3.0,-6.0,-5.0,-2.0,3.0,3.0,1650846522761046.0
1.0,0.0,-3.0,-6.0,-10.0,-4.0,2.0,-1.0,1650846522777003.0
-1.0,1.0,1.0,-6.0,2.0,3.0,2.0,6.0,1650846522777003.0
2.0,2.0,-1.0,14.0,-2.0,-7.0,-8.0,-10.0,1650846522778990.0
-8.0,-19.0,2.0,11.0,11.0,5.0,2.0,-2.0,1650846522778990.0
-2.0,6.0,3.0,8.0,1.0,1.0,4.0,1.0,1650846522798943.0
4.0,7.0,1.0,-13.0,-9.0,-3.0,-11.0,-6.0,1650846522798943.0
-3.0,-7.0,2.0,2.0,4.0,2.0,0.0,3.0,1650846522805966.0
0.0,3.0,-5.0,-12.0,-3.0,2.0,18.0,7.0,1650846522805966.0
-5.0,-3.0,0.0,3.0,0.0,-1.0,-6.0,-8.0,1650846522820952.0
5.0,1.0,-2.0,-5.0,-7.0,0.0,-2.0,1.0,1650846522820952.0
0.0,12.0,1.0,-5.0,-1.0,1.0,2.0,1.0,1650846522829865.0
2.0,10.0,-1.0,6.0,-4.0,-3.0,-4.0,-2.0,1650846522829865.0
-4.0,-9.0,-6.0,-21.0,-2.0,1.0,-5.0,0.0,1650846522851810.0
3.0,4.0,1.0,12.0,4.0,-1.0,2.0,-1.0,1650846522851810.0
1.0,-8.0,1.0,2.0,-3.0,0.0,-2.0,0.0,1650846522853805.0
4.0,6.0,2.0,1.0,-2.0,-3.0,4.0,0.0,1650846522853805.0
-7.0,-5.0,-3.0,-1.0,-5.0,-5.0,-5.0,-2.0,1650846522874751.0
4.0,14.0,2.0,11.0,5.0,0.0,8.0,9.0,1650846522874751.0
-10.0,-33.0,-15.0,-18.0,-10.0,-8.0,-13.0,-10.0,1650846522877741.0
0.0,3.0,5.0,13.0,10.0,3.0,6.0,1.0,1650846522877741.0
5.0,10.0,3.0,-7.0,-5.0,-6.0,-8.0,1.0,1650846522896790.0
-2.0,0.0,-1.0,-1.0,-2.0,0.0,4.0,2.0,1650846522896790.0
-3.0,-7.0,-13.0,-15.0,-6.0,3.0,7.0,0.0,1650846522902775.0
1.0,6.0,10.0,14.0,7.0,3.0,-4.0,-3.0,1650846522902775.0
6.0,2.0,7.0,11.0,8.0,2.0,0.0,2.0,1650846522926737.0
-6.0,-3.0,-2.0,-7.0,-1.0,-5.0,-8.0,-6.0,1650846522926737.0
4.0,5.0,2.0,3.0,-2.0,0.0,6.0,6.0,1650846522928706.0
-1.0,-3.0,-10.0,-13.0,-4.0,-5.0,-6.0,-6.0,1650846522928706.0
-1.0,0.0,5.0,12.0,-1.0,0.0,0.0,1.0,1650846522949776.0
-5.0,-6.0,0.0,-7.0,-2.0,-2.0,-8.0,-5.0,1650846522949776.0
7.0,17.0,6.0,4.0,6.0,4.0,-1.0,0.0,1650846522950766.0
-11.0,-20.0,-6.0,9.0,-3.0,-4.0,-6.0,-6.0,1650846522950766.0
4.0,12.0,-1.0,-3.0,0.0,3.0,4.0,5.0,1650846522973136.0
0.0,-7.0,-7.0,-10.0,-9.0,-3.0,0.0,-1.0,1650846522973136.0
-9.0,-15.0,-5.0,3.0,0.0,0.0,2.0,2.0,1650846522974707.0
11.0,14.0,7.0,-1.0,4.0,1.0,-3.0,7.0,1650846522974707.0
-5.0,-4.0,-4.0,-12.0,-6.0,-2.0,15.0,-2.0,1650846522993705.0
-3.0,-9.0,-4.0,-3.0,5.0,1.0,4.0,1.0,1650846522993705.0
6.0,11.0,5.0,4.0,5.0,3.0,-1.0,2.0,1650846523000688.0
-4.0,0.0,-6.0,-23.0,-8.0,-4.0,-10.0,-9.0,1650846523000688.0
6.0,2.0,5.0,18.0,12.0,6.0,5.0,3.0,1650846523024277.0
-1.0,-3.0,-6.0,-2.0,-3.0,-4.0,-3.0,0.0,1650846523024277.0
-2.0,-2.0,5.0,11.0,0.0,-1.0,9.0,2.0,1650846523026236.0
0.0,6.0,-7.0,-18.0,-6.0,-3.0,2.0,6.0,1650846523026236.0
-5.0,-22.0,-2.0,13.0,2.0,0.0,-2.0,-3.0,1650846523047176.0
7.0,22.0,7.0,3.0,0.0,0.0,-5.0,-3.0,1650846523047176.0
-3.0,-2.0,-3.0,4.0,7.0,4.0,-4.0,-4.0,1650846523048146.0
3.0,-3.0,0.0,2.0,-9.0,-2.0,1.0,0.0,1650846523048146.0
-5.0,0.0,-1.0,-3.0,2.0,0.0,-7.0,-1.0,1650846523070087.0
-1.0,-6.0,1.0,4.0,0.0,3.0,0.0,1.0,1650846523070087.0
1.0,3.0,6.0,4.0,-1.0,0.0,4.0,-1.0,1650846523071085.0
2.0,5.0,-2.0,4.0,2.0,3.0,6.0,5.0,1650846523071085.0
3.0,6.0,-1.0,-11.0,-5.0,-4.0,-9.0,1.0,1650846523092029.0
-4.0,-3.0,-5.0,-1.0,2.0,-1.0,-2.0,-1.0,1650846523092029.0
6.0,12.0,3.0,-1.0,1.0,3.0,7.0,-1.0,1650846523098040.0
-3.0,-5.0,-3.0,7.0,1.0,-1.0,1.0,0.0,1650846523098040.0
6.0,10.0,8.0,9.0,6.0,1.0,0.0,0.0,1650846523113000.0
-2.0,-8.0,-4.0,-4.0,-6.0,1.0,2.0,2.0,1650846523113000.0
-3.0,-2.0,-2.0,-9.0,-10.0,-6.0,-8.0,-1.0,1650846523123613.0
0.0,-4.0,1.0,4.0,7.0,2.0,-6.0,-3.0,1650846523123613.0
0.0,-1.0,-5.0,-9.0,5.0,1.0,10.0,2.0,1650846523144671.0
3.0,0.0,5.0,18.0,6.0,2.0,-2.0,-4.0,1650846523144671.0
-4.0,4.0,2.0,6.0,6.0,-1.0,-4.0,-2.0,1650846523145654.0
2.0,9.0,11.0,11.0,3.0,5.0,-3.0,-2.0,1650846523145654.0
0.0,-5.0,-9.0,-16.0,-9.0,-5.0,-3.0,-1.0,1650846523166625.0
0.0,3.0,6.0,18.0,15.0,4.0,2.0,-3.0,1650846523166625.0
3.0,1.0,-5.0,-10.0,-4.0,-4.0,-6.0,-2.0,1650846523168593.0
-3.0,-5.0,-2.0,0.0,0.0,-1.0,-1.0,0.0,1650846523168593.0
-2.0,6.0,4.0,5.0,4.0,2.0,-2.0,2.0,1650846523189638.0
-5.0,-10.0,-3.0,-11.0,-6.0,-1.0,-1.0,-2.0,1650846523189638.0
3.0,21.0,4.0,3.0,0.0,-1.0,3.0,6.0,1650846523190638.0
1.0,-19.0,-7.0,2.0,0.0,1.0,5.0,5.0,1650846523190638.0
0.0,4.0,-2.0,-12.0,-5.0,-5.0,-3.0,-5.0,1650846523219560.0
5.0,0.0,-1.0,-2.0,-2.0,-1.0,-4.0,0.0,1650846523219560.0
0.0,2.0,0.0,-10.0,-3.0,-2.0,-6.0,-3.0,1650846523221557.0
2.0,4.0,0.0,12.0,10.0,4.0,9.0,2.0,1650846523221557.0
-1.0,1.0,-1.0,-8.0,-8.0,-3.0,3.0,1.0,1650846523241502.0
-3.0,-6.0,-7.0,-3.0,-4.0,-1.0,-8.0,-5.0,1650846523241502.0
2.0,-5.0,0.0,13.0,5.0,1.0,7.0,3.0,1650846523251475.0
-6.0,5.0,-3.0,-25.0,-14.0,-5.0,-2.0,-3.0,1650846523251475.0
-9.0,-17.0,-5.0,14.0,7.0,-2.0,-9.0,-8.0,1650846523251475.0
0.0,14.0,6.0,-4.0,0.0,-1.0,3.0,0.0,1650846523251475.0
2.0,-2.0,6.0,18.0,2.0,0.0,-1.0,1.0,1650846523252473.0
-2.0,1.0,-5.0,-13.0,-4.0,-3.0,-4.0,-3.0,1650846523252473.0
-4.0,-9.0,-1.0,-3.0,-8.0,0.0,-6.0,-2.0,1650846523257479.0
4.0,-3.0,-3.0,5.0,5.0,4.0,10.0,7.0,1650846523257479.0
-2.0,-1.0,0.0,-11.0,-1.0,0.0,1.0,-2.0,1650846523258457.0
1.0,10.0,3.0,-3.0,-6.0,-3.0,-5.0,1.0,1650846523258457.0
2.0,12.0,-3.0,-9.0,0.0,5.0,-1.0,-1.0,1650846523263443.0
4.0,-15.0,4.0,3.0,0.0,1.0,9.0,7.0,1650846523263443.0
-9.0,-13.0,-5.0,3.0,-2.0,-4.0,-13.0,-11.0,1650846523264440.0
0.0,6.0,2.0,5.0,1.0,-1.0,-1.0,-3.0,1650846523264440.0
2.0,0.0,-1.0,0.0,-1.0,0.0,7.0,4.0,1650846523271422.0
-6.0,-4.0,2.0,-6.0,-3.0,-4.0,-5.0,-4.0,1650846523271422.0
0.0,0.0,-3.0,-1.0,-2.0,3.0,2.0,2.0,1650846523272419.0
-4.0,-4.0,-2.0,-6.0,-2.0,-3.0,-2.0,-3.0,1650846523272419.0
1.0,2.0,2.0,2.0,-3.0,0.0,-3.0,-4.0,1650846523279421.0
-2.0,0.0,-2.0,-3.0,5.0,-1.0,2.0,2.0,1650846523279421.0
-1.0,2.0,3.0,12.0,6.0,2.0,-1.0,0.0,1650846523281416.0
0.0,-5.0,-2.0,2.0,1.0,0.0,2.0,0.0,1650846523281416.0
1.0,-6.0,-4.0,-13.0,-1.0,3.0,-4.0,2.0,1650846523286391.0
-3.0,3.0,-8.0,7.0,0.0,-1.0,-16.0,-7.0,1650846523286391.0
1.0,2.0,3.0,-2.0,0.0,-1.0,3.0,1.0,1650846523287400.0
-3.0,-5.0,-4.0,1.0,1.0,0.0,-1.0,-3.0,1650846523287400.0
-4.0,-5.0,5.0,11.0,0.0,-2.0,2.0,0.0,1650846523294389.0
-1.0,-2.0,2.0,5.0,-2.0,1.0,0.0,-1.0,1650846523294389.0
2.0,3.0,-8.0,-14.0,-4.0,-2.0,7.0,3.0,1650846523295357.0
-3.0,-5.0,5.0,16.0,4.0,0.0,-12.0,-1.0,1650846523295357.0
4.0,-1.0,-4.0,-9.0,-6.0,-3.0,9.0,4.0,1650846523301341.0
-2.0,1.0,5.0,15.0,6.0,2.0,-2.0,-4.0,1650846523301341.0
0.0,2.0,0.0,-8.0,-4.0,1.0,-3.0,-8.0,1650846523302339.0
3.0,10.0,5.0,9.0,8.0,2.0,7.0,2.0,1650846523302339.0
-1.0,0.0,-3.0,9.0,4.0,-4.0,-7.0,-4.0,1650846523308323.0
3.0,9.0,2.0,-16.0,-4.0,-2.0,9.0,-1.0,1650846523308323.0
-4.0,-13.0,1.0,9.0,4.0,-3.0,-7.0,2.0,1650846523309332.0
2.0,2.0,-3.0,-4.0,-3.0,2.0,8.0,0.0,1650846523309332.0
3.0,10.0,2.0,4.0,3.0,3.0,-6.0,-1.0,1650846523323310.0
1.0,-5.0,-8.0,-13.0,-4.0,1.0,3.0,3.0,1650846523323310.0
-2.0,-5.0,-1.0,-11.0,-8.0,-1.0,-1.0,-2.0,1650846523339307.0
-3.0,-3.0,-6.0,-18.0,-7.0,-1.0,-5.0,-4.0,1650846523339307.0
-1.0,-2.0,-1.0,7.0,8.0,-1.0,3.0,1.0,1650846523346251.0
-5.0,-5.0,-3.0,0.0,-11.0,-4.0,-12.0,-8.0,1650846523346251.0
3.0,3.0,0.0,-6.0,11.0,5.0,5.0,4.0,1650846523347219.0
-1.0,-7.0,-7.0,-26.0,-8.0,-3.0,-2.0,2.0,1650846523347219.0
-4.0,-5.0,2.0,7.0,1.0,-1.0,6.0,-1.0,1650846523361206.0
0.0,-1.0,0.0,-1.0,-3.0,0.0,2.0,7.0,1650846523361206.0
-2.0,-4.0,-6.0,-16.0,-5.0,-3.0,1.0,-2.0,1650846523368231.0
1.0,0.0,0.0,8.0,5.0,2.0,0.0,2.0,1650846523368231.0
-1.0,0.0,-6.0,-2.0,-4.0,-5.0,3.0,0.0,1650846523383151.0
0.0,2.0,5.0,3.0,2.0,-1.0,-2.0,1.0,1650846523383151.0
0.0,1.0,-4.0,-3.0,-3.0,-2.0,-5.0,-3.0,1650846523391166.0
-4.0,-3.0,2.0,1.0,-3.0,-1.0,8.0,1.0,1650846523391166.0
0.0,1.0,1.0,-5.0,0.0,2.0,-5.0,-2.0,1650846523406127.0
2.0,5.0,-4.0,-10.0,-4.0,0.0,-1.0,1.0,1650846523406127.0
0.0,-2.0,0.0,10.0,2.0,2.0,1.0,2.0,1650846523407058.0
-2.0,-5.0,0.0,-6.0,-9.0,-6.0,1.0,-3.0,1650846523407058.0
-1.0,1.0,3.0,0.0,7.0,6.0,-5.0,-2.0,1650846523420551.0
-1.0,-1.0,0.0,1.0,0.0,-3.0,0.0,-2.0,1650846523420551.0
-2.0,-4.0,-3.0,-8.0,-10.0,-3.0,-5.0,1.0,1650846523428528.0
2.0,5.0,0.0,-10.0,-1.0,1.0,-1.0,-1.0,1650846523428528.0
-4.0,-7.0,1.0,16.0,7.0,-2.0,-2.0,1.0,1650846523444852.0
-1.0,-4.0,-7.0,-3.0,-2.0,-3.0,1.0,1.0,1650846523444852.0
-1.0,-3.0,-2.0,-4.0,-8.0,-4.0,-7.0,-5.0,1650846523451852.0
-3.0,-1.0,-2.0,0.0,-1.0,-3.0,0.0,1.0,1650846523451852.0
-2.0,-5.0,-4.0,0.0,-7.0,-1.0,8.0,-1.0,1650846523466795.0
-2.0,0.0,1.0,-1.0,-2.0,-1.0,-3.0,-4.0,1650846523466795.0
1.0,0.0,-1.0,8.0,-1.0,0.0,1.0,-2.0,1650846523467792.0
0.0,-1.0,3.0,2.0,3.0,1.0,-5.0,-1.0,1650846523467792.0
-2.0,-4.0,0.0,-3.0,-2.0,-1.0,-4.0,0.0,1650846523480856.0
3.0,5.0,1.0,9.0,2.0,1.0,9.0,4.0,1650846523480856.0
-1.0,-4.0,-1.0,-5.0,-3.0,-3.0,-1.0,0.0,1650846523487852.0
-1.0,-2.0,-1.0,14.0,4.0,0.0,2.0,-1.0,1650846523487852.0
-2.0,-2.0,0.0,-22.0,-13.0,-5.0,-3.0,-2.0,1650846523502819.0
-2.0,3.0,2.0,3.0,14.0,4.0,-2.0,-2.0,1650846523502819.0
-1.0,0.0,1.0,1.0,-3.0,-3.0,1.0,5.0,1650846523511601.0
3.0,2.0,-3.0,2.0,1.0,2.0,0.0,1.0,1650846523511601.0
0.0,0.0,-3.0,-3.0,1.0,1.0,4.0,-1.0,1650846523526619.0
-1.0,-6.0,4.0,-3.0,-5.0,-2.0,-1.0,-2.0,1650846523526619.0
-1.0,1.0,1.0,3.0,1.0,1.0,1.0,-1.0,1650846523527556.0
0.0,0.0,-4.0,-5.0,1.0,-2.0,-2.0,-2.0,1650846523527556.0
2.0,0.0,-2.0,1.0,-3.0,-2.0,-2.0,0.0,1650846523540890.0
-1.0,-1.0,-1.0,-2.0,-2.0,-2.0,-4.0,-2.0,1650846523540890.0
1.0,4.0,0.0,2.0,5.0,3.0,7.0,1.0,1650846523547831.0
-2.0,-2.0,-6.0,-8.0,-6.0,-4.0,-4.0,-1.0,1650846523547831.0
-2.0,-2.0,0.0,5.0,2.0,-1.0,0.0,0.0,1650846523562794.0
-2.0,-4.0,-3.0,-2.0,-2.0,-1.0,0.0,-1.0,1650846523562794.0
-1.0,1.0,-1.0,-1.0,-2.0,-1.0,1.0,0.0,1650846523571813.0
0.0,-2.0,-1.0,7.0,1.0,1.0,0.0,0.0,1650846523571813.0
1.0,1.0,-1.0,-5.0,0.0,0.0,-1.0,-1.0,1650846523586700.0
2.0,2.0,-3.0,0.0,-1.0,1.0,-1.0,1.0,1650846523586700.0
1.0,-2.0,2.0,3.0,-1.0,-3.0,-1.0,-1.0,1650846523586700.0
0.0,-3.0,2.0,-2.0,2.0,0.0,0.0,-2.0,1650846523586700.0
2.0,4.0,7.0,17.0,3.0,0.0,-2.0,0.0,1650846523600690.0
0.0,-3.0,-4.0,-9.0,-2.0,-2.0,-1.0,1.0,1650846523600690.0
-1.0,-1.0,1.0,2.0,-2.0,1.0,0.0,0.0,1650846523608641.0
-1.0,1.0,1.0,0.0,-5.0,0.0,1.0,-1.0,1650846523608641.0
-2.0,2.0,1.0,-2.0,3.0,-1.0,0.0,-3.0,1650846523622778.0
-1.0,-3.0,-2.0,0.0,1.0,-2.0,2.0,3.0,1650846523622778.0
0.0,-1.0,-1.0,-1.0,-2.0,-3.0,-3.0,0.0,1650846523631769.0
2.0,0.0,2.0,6.0,-1.0,-1.0,4.0,2.0,1650846523631769.0
-4.0,-4.0,-2.0,6.0,-3.0,-2.0,-5.0,-3.0,1650846523645883.0
-2.0,-2.0,1.0,-11.0,-4.0,-2.0,0.0,-2.0,1650846523645883.0
2.0,5.0,6.0,5.0,8.0,3.0,-1.0,0.0,1650846523646896.0
-2.0,-2.0,-2.0,-5.0,-4.0,-1.0,-1.0,1.0,1650846523646896.0
0.0,-3.0,-2.0,-7.0,-4.0,-2.0,-1.0,2.0,1650846523660843.0
0.0,0.0,0.0,5.0,0.0,1.0,3.0,-1.0,1650846523660843.0
-1.0,-1.0,-4.0,-1.0,-4.0,-1.0,0.0,-1.0,1650846523667804.0
-3.0,-1.0,0.0,6.0,3.0,0.0,0.0,-1.0,1650846523667804.0
3.0,0.0,-2.0,0.0,-1.0,0.0,-3.0,-1.0,1650846523682785.0
-4.0,-4.0,-1.0,-9.0,-3.0,-4.0,-2.0,1.0,1650846523682785.0
-1.0,-3.0,-3.0,-4.0,-1.0,-4.0,1.0,-1.0,1650846523691799.0
-2.0,1.0,2.0,4.0,-2.0,1.0,-2.0,-2.0,1650846523691799.0
0.0,-2.0,1.0,3.0,1.0,4.0,4.0,2.0,1650846523705764.0
-2.0,0.0,1.0,-1.0,2.0,1.0,0.0,0.0,1650846523705764.0
-2.0,-3.0,0.0,5.0,0.0,-3.0,-2.0,-1.0,1650846523713701.0
-1.0,2.0,1.0,-2.0,0.0,0.0,2.0,-2.0,1650846523713701.0
-2.0,0.0,1.0,-6.0,-6.0,-2.0,-2.0,0.0,1650846523720656.0
1.0,-3.0,-2.0,5.0,1.0,1.0,-1.0,-2.0,1650846523720656.0
1.0,2.0,1.0,1.0,0.0,-1.0,0.0,0.0,1650846523727639.0
-1.0,-4.0,0.0,4.0,4.0,1.0,-1.0,-1.0,1650846523727639.0
-2.0,-4.0,-2.0,-6.0,-3.0,-3.0,0.0,0.0,1650846523743608.0
1.0,0.0,2.0,4.0,-1.0,-1.0,-1.0,-1.0,1650846523743608.0
2.0,1.0,1.0,2.0,3.0,3.0,1.0,3.0,1650846523751572.0
2.0,1.0,-1.0,0.0,-1.0,-1.0,-1.0,-1.0,1650846523751572.0
0.0,-3.0,-6.0,-1.0,1.0,1.0,0.0,-2.0,1650846523766563.0
1.0,2.0,3.0,3.0,1.0,1.0,2.0,-2.0,1650846523766563.0
-1.0,2.0,5.0,-2.0,-3.0,-1.0,-2.0,0.0,1650846523767543.0
0.0,-4.0,-10.0,3.0,2.0,-2.0,-4.0,-1.0,1650846523767543.0
1.0,4.0,5.0,-4.0,-1.0,2.0,3.0,1.0,1650846523780495.0
0.0,0.0,-3.0,-9.0,-1.0,-2.0,0.0,-1.0,1650846523780495.0
-2.0,-1.0,5.0,7.0,2.0,2.0,1.0,1.0,1650846523788478.0
-4.0,5.0,11.0,1.0,-2.0,-4.0,-1.0,1.0,1650846523788478.0
-1.0,-2.0,-12.0,-4.0,-1.0,0.0,-1.0,-1.0,1650846523803434.0
0.0,-1.0,-2.0,6.0,2.0,1.0,-1.0,0.0,1650846523803434.0
1.0,-6.0,-7.0,-1.0,0.0,1.0,1.0,0.0,1650846523811412.0
2.0,2.0,-3.0,-14.0,-7.0,-2.0,-2.0,-1.0,1650846523811412.0
2.0,4.0,10.0,24.0,11.0,1.0,1.0,1.0,1650846523825851.0
2.0,-4.0,-2.0,-10.0,-7.0,-1.0,-2.0,0.0,1650846523825851.0
-4.0,-1.0,0.0,9.0,3.0,-1.0,-3.0,-1.0,1650846523833812.0
1.0,0.0,-4.0,-4.0,-2.0,1.0,1.0,0.0,1650846523833812.0
-2.0,-6.0,-2.0,-4.0,-2.0,0.0,-1.0,1.0,1650846523840814.0
2.0,9.0,13.0,2.0,-3.0,-5.0,-2.0,-1.0,1650846523840814.0
0.0,-4.0,-15.0,-9.0,-3.0,-2.0,-1.0,-1.0,1650846523847781.0
1.0,3.0,11.0,6.0,0.0,1.0,-1.0,0.0,1650846523847781.0
-4.0,-14.0,-21.0,-8.0,-1.0,-2.0,-3.0,-2.0,1650846523862747.0
4.0,7.0,2.0,10.0,5.0,2.0,0.0,-1.0,1650846523862747.0
2.0,11.0,9.0,0.0,-4.0,-2.0,-2.0,2.0,1650846523871689.0
-3.0,-5.0,-15.0,-4.0,-1.0,-1.0,1.0,-1.0,1650846523871689.0
4.0,7.0,0.0,-3.0,2.0,1.0,1.0,2.0,1650846523885683.0
-5.0,0.0,13.0,-1.0,2.0,0.0,0.0,-2.0,1650846523885683.0
-1.0,-12.0,-12.0,-1.0,-2.0,-1.0,1.0,5.0,1650846523893695.0
4.0,3.0,8.0,3.0,1.0,2.0,1.0,1.0,1650846523893695.0
-3.0,5.0,0.0,-4.0,-1.0,-1.0,-5.0,-3.0,1650846523900676.0
-3.0,0.0,0.0,8.0,4.0,4.0,5.0,-7.0,1650846523900676.0
3.0,9.0,5.0,2.0,-1.0,-1.0,0.0,-1.0,1650846523908696.0
-4.0,-8.0,-3.0,-3.0,-1.0,0.0,-1.0,5.0,1650846523908696.0
3.0,2.0,3.0,0.0,-2.0,-2.0,2.0,7.0,1650846523932177.0
-11.0,-5.0,-3.0,-4.0,-3.0,-2.0,-3.0,-6.0,1650846523932177.0
-3.0,-1.0,-3.0,-9.0,0.0,0.0,-2.0,0.0,1650846523933141.0
1.0,2.0,-6.0,3.0,3.0,4.0,3.0,-2.0,1650846523933141.0
-1.0,3.0,13.0,6.0,-3.0,-3.0,-4.0,-2.0,1650846523945128.0
2.0,-1.0,-16.0,-4.0,-2.0,1.0,-2.0,4.0,1650846523945128.0
6.0,6.0,25.0,4.0,-1.0,1.0,2.0,0.0,1650846523954106.0
-4.0,-9.0,-24.0,-7.0,-4.0,-4.0,-5.0,-4.0,1650846523954106.0
-1.0,1.0,10.0,-2.0,-2.0,0.0,3.0,0.0,1650846523969080.0
5.0,-2.0,-8.0,-1.0,-2.0,-1.0,1.0,3.0,1650846523969080.0
-5.0,-8.0,-14.0,-7.0,-1.0,-2.0,-4.0,-4.0,1650846523970042.0
3.0,20.0,34.0,6.0,2.0,-1.0,0.0,1.0,1650846523970042.0
-4.0,-22.0,-46.0,-12.0,-4.0,-2.0,0.0,-3.0,1650846523983028.0
-2.0,2.0,1.0,0.0,-2.0,-3.0,-6.0,0.0,1650846523983028.0
1.0,-4.0,2.0,6.0,0.0,-2.0,0.0,1.0,1650846523991095.0
2.0,-1.0,2.0,-2.0,-3.0,-3.0,1.0,-1.0,1650846523991095.0
-2.0,-4.0,-6.0,-1.0,0.0,1.0,0.0,2.0,1650846524006083.0
-7.0,-3.0,-4.0,0.0,2.0,2.0,1.0,-5.0,1650846524006083.0
0.0,4.0,-6.0,-8.0,-5.0,-7.0,-3.0,-2.0,1650846524020987.0
2.0,-1.0,4.0,5.0,1.0,1.0,-1.0,1.0,1650846524020987.0
-3.0,4.0,7.0,-3.0,-1.0,-3.0,-1.0,-6.0,1650846524028987.0
1.0,-9.0,-1.0,0.0,1.0,0.0,-3.0,3.0,1650846524028987.0
-3.0,1.0,-3.0,-3.0,-2.0,2.0,0.0,-5.0,1650846524029971.0
-5.0,-4.0,7.0,4.0,1.0,-3.0,-2.0,4.0,1650846524029971.0
3.0,-2.0,0.0,1.0,1.0,-2.0,-1.0,3.0,1650846524042949.0
-15.0,-16.0,-10.0,-8.0,-6.0,-4.0,-3.0,-6.0,1650846524042949.0
-1.0,1.0,-5.0,-6.0,0.0,0.0,2.0,-1.0,1650846524050923.0
6.0,2.0,6.0,3.0,0.0,2.0,1.0,3.0,1650846524050923.0
-5.0,-10.0,-11.0,0.0,-4.0,-4.0,-1.0,2.0,1650846524065875.0
6.0,7.0,-2.0,0.0,3.0,-1.0,3.0,1.0,1650846524065875.0
2.0,3.0,4.0,2.0,1.0,3.0,0.0,-1.0,1650846524073871.0
-2.0,-13.0,-3.0,5.0,2.0,1.0,0.0,-2.0,1650846524073871.0
-4.0,-1.0,-12.0,-11.0,-7.0,-5.0,0.0,-5.0,1650846524088793.0
0.0,3.0,8.0,0.0,-1.0,-1.0,-3.0,2.0,1650846524088793.0
-1.0,0.0,-7.0,-4.0,0.0,0.0,0.0,-2.0,1650846524089791.0
1.0,4.0,-8.0,-2.0,3.0,2.0,0.0,-3.0,1650846524089791.0
2.0,5.0,22.0,8.0,4.0,2.0,-1.0,0.0,1650846524104751.0
4.0,1.0,-13.0,-2.0,-1.0,-1.0,-1.0,6.0,1650846524104751.0
-1.0,3.0,17.0,7.0,1.0,2.0,0.0,-1.0,1650846524110754.0
-7.0,-3.0,-13.0,-3.0,1.0,1.0,0.0,-6.0,1650846524110754.0
0.0,5.0,9.0,2.0,2.0,0.0,0.0,2.0,1650846524126199.0
3.0,-4.0,0.0,1.0,0.0,3.0,4.0,0.0,1650846524126199.0
0.0,3.0,6.0,0.0,-3.0,-3.0,-2.0,2.0,1650846524134217.0
-1.0,-2.0,-8.0,-3.0,-2.0,0.0,-2.0,-6.0,1650846524134217.0
0.0,-4.0,0.0,3.0,0.0,-1.0,-2.0,4.0,1650846524149165.0
2.0,4.0,3.0,1.0,3.0,0.0,2.0,2.0,1650846524149165.0
2.0,6.0,11.0,6.0,0.0,0.0,-3.0,-5.0,1650846524149165.0
-3.0,-2.0,-16.0,0.0,0.0,-1.0,1.0,2.0,1650846524149165.0
-1.0,-16.0,-9.0,-4.0,-4.0,2.0,-1.0,-11.0,1650846524163121.0
4.0,18.0,14.0,6.0,0.0,-3.0,0.0,12.0,1650846524163121.0
0.0,-19.0,-21.0,-9.0,-1.0,-2.0,-1.0,-5.0,1650846524171080.0
6.0,17.0,22.0,5.0,0.0,-1.0,1.0,0.0,1650846524171080.0
3.0,6.0,11.0,2.0,3.0,5.0,3.0,6.0,1650846524186068.0
-5.0,-17.0,-17.0,0.0,-4.0,-4.0,-3.0,-5.0,1650846524186068.0
-5.0,5.0,1.0,0.0,-1.0,1.0,3.0,2.0,1650846524194052.0
8.0,-9.0,-6.0,-8.0,-4.0,-4.0,-2.0,1.0,1650846524194052.0
-1.0,8.0,6.0,3.0,3.0,2.0,-1.0,-3.0,1650846524209043.0
1.0,-7.0,-1.0,-1.0,1.0,1.0,-2.0,-1.0,1650846524209043.0
5.0,4.0,1.0,1.0,-2.0,2.0,2.0,8.0,1650846524210044.0
-14.0,-8.0,-1.0,-2.0,-4.0,-1.0,-1.0,-7.0,1650846524210044.0
3.0,1.0,-1.0,0.0,-1.0,-1.0,-1.0,3.0,1650846524223048.0
4.0,3.0,1.0,-1.0,1.0,0.0,-3.0,4.0,1650846524223048.0
-14.0,-7.0,-8.0,-4.0,-2.0,-2.0,3.0,-15.0,1650846524230837.0
4.0,-16.0,5.0,6.0,1.0,0.0,2.0,10.0,1650846524230837.0
-8.0,0.0,2.0,-4.0,-4.0,-4.0,-5.0,-5.0,1650846524245797.0
5.0,13.0,10.0,6.0,1.0,4.0,0.0,0.0,1650846524245797.0
-3.0,-12.0,-36.0,-10.0,0.0,0.0,-1.0,3.0,1650846524253771.0
-1.0,-19.0,4.0,3.0,-3.0,-3.0,-4.0,-4.0,1650846524253771.0
-4.0,-2.0,-4.0,-3.0,-1.0,1.0,-1.0,0.0,1650846524268696.0
6.0,-6.0,-2.0,-3.0,-2.0,-1.0,3.0,0.0,1650846524268696.0
0.0,-1.0,1.0,-2.0,1.0,0.0,-3.0,-2.0,1650846524269693.0
-1.0,11.0,0.0,-3.0,-3.0,1.0,2.0,-3.0,1650846524269693.0
6.0,1.0,2.0,3.0,2.0,1.0,-1.0,0.0,1650846524282695.0
-6.0,-8.0,-8.0,-4.0,-5.0,2.0,0.0,0.0,1650846524282695.0
1.0,4.0,13.0,5.0,-1.0,-1.0,-4.0,-11.0,1650846524290704.0
-3.0,-5.0,-13.0,-4.0,0.0,-2.0,0.0,8.0,1650846524290704.0
0.0,17.0,33.0,7.0,1.0,1.0,2.0,-5.0,1650846524305598.0
-17.0,-3.0,-24.0,-6.0,-2.0,-4.0,0.0,-3.0,1650846524305598.0
7.0,1.0,8.0,4.0,3.0,2.0,2.0,9.0,1650846524314606.0
2.0,8.0,2.0,-1.0,-1.0,-2.0,-6.0,-12.0,1650846524314606.0
-2.0,2.0,-11.0,0.0,-2.0,-2.0,-1.0,-2.0,1650846524328566.0
2.0,-3.0,3.0,-2.0,0.0,1.0,-1.0,0.0,1650846524328566.0
-1.0,-1.0,5.0,5.0,2.0,-2.0,-2.0,2.0,1650846524329534.0
1.0,8.0,-2.0,-7.0,1.0,0.0,0.0,-2.0,1650846524329534.0
1.0,-5.0,6.0,4.0,-1.0,-3.0,-1.0,6.0,1650846524343523.0
-4.0,-1.0,-3.0,-4.0,-4.0,-4.0,-2.0,-5.0,1650846524343523.0
-3.0,-6.0,-8.0,-1.0,4.0,3.0,0.0,-1.0,1650846524350505.0
1.0,-2.0,2.0,-1.0,-2.0,1.0,1.0,1.0,1650846524350505.0
-3.0,0.0,-8.0,-2.0,-4.0,-3.0,2.0,-2.0,1650846524365438.0
1.0,-9.0,7.0,3.0,0.0,-1.0,-1.0,0.0,1650846524365438.0
3.0,17.0,3.0,-1.0,0.0,0.0,-1.0,0.0,1650846524381422.0
-3.0,-2.0,-3.0,0.0,1.0,-1.0,-2.0,2.0,1650846524381422.0
2.0,0.0,-1.0,1.0,1.0,1.0,0.0,1.0,1650846524389374.0
3.0,18.0,6.0,0.0,-1.0,1.0,1.0,-2.0,1650846524389374.0
-3.0,-20.0,-5.0,-3.0,-4.0,-4.0,0.0,6.0,1650846524389374.0
-5.0,-1.0,-4.0,-4.0,-4.0,-2.0,0.0,-2.0,1650846524389374.0
-4.0,-1.0,-6.0,5.0,0.0,-1.0,-2.0,-2.0,1650846524403364.0
4.0,5.0,3.0,8.0,6.0,1.0,1.0,1.0,1650846524403364.0
3.0,0.0,5.0,-2.0,-1.0,1.0,-2.0,0.0,1650846524410344.0
-2.0,0.0,-4.0,3.0,-1.0,-2.0,0.0,-1.0,1650846524410344.0
1.0,-2.0,-6.0,-3.0,-1.0,1.0,-1.0,-2.0,1650846524425345.0
0.0,-7.0,3.0,-2.0,-3.0,-2.0,1.0,-1.0,1650846524425345.0
0.0,1.0,-2.0,-3.0,2.0,0.0,1.0,2.0,1650846524434281.0
0.0,-1.0,3.0,10.0,1.0,-2.0,0.0,1.0,1650846524434281.0
-1.0,0.0,-1.0,-6.0,-4.0,-1.0,-2.0,1.0,1650846524449240.0
0.0,-2.0,-2.0,4.0,4.0,2.0,0.0,-1.0,1650846524449240.0
-1.0,-4.0,1.0,3.0,-4.0,0.0,0.0,-1.0,1650846524449240.0
-1.0,3.0,0.0,-2.0,3.0,2.0,0.0,2.0,1650846524449240.0
-1.0,-2.0,-4.0,-10.0,-2.0,-1.0,0.0,1.0,1650846524463196.0
0.0,-2.0,-3.0,0.0,-5.0,-3.0,-2.0,-1.0,1650846524463196.0
-3.0,-3.0,-3.0,-10.0,-6.0,-6.0,-2.0,-1.0,1650846524470184.0
0.0,0.0,0.0,1.0,2.0,3.0,-1.0,-1.0,1650846524470184.0
1.0,0.0,-6.0,5.0,3.0,1.0,1.0,0.0,1650846524486137.0
-3.0,-1.0,6.0,-7.0,-3.0,-2.0,-2.0,0.0,1650846524486137.0
0.0,1.0,0.0,3.0,2.0,0.0,0.0,3.0,1650846524494121.0
-1.0,4.0,-5.0,-2.0,-3.0,0.0,0.0,1.0,1650846524494121.0
1.0,0.0,4.0,1.0,0.0,-1.0,-3.0,-2.0,1650846524509092.0
0.0,-1.0,-6.0,1.0,-1.0,-2.0,-1.0,-2.0,1650846524509092.0
-5.0,-3.0,4.0,2.0,1.0,-1.0,-2.0,-1.0,1650846524510071.0
5.0,29.0,6.0,0.0,2.0,4.0,-1.0,2.0,1650846524510071.0
-5.0,-30.0,-11.0,-3.0,-5.0,-1.0,1.0,-1.0,1650846524523024.0
0.0,1.0,-3.0,-5.0,-6.0,-1.0,0.0,1.0,1650846524523024.0
-2.0,0.0,3.0,6.0,6.0,0.0,0.0,-1.0,1650846524530994.0
-3.0,-8.0,-5.0,-10.0,-6.0,-4.0,-3.0,-1.0,1650846524530994.0
-1.0,4.0,2.0,-1.0,3.0,-2.0,-2.0,0.0,1650846524545817.0
-1.0,1.0,0.0,-7.0,-1.0,1.0,0.0,-3.0,1650846524545817.0
3.0,-1.0,-5.0,-7.0,-2.0,-1.0,1.0,-1.0,1650846524553795.0
-3.0,-10.0,-9.0,4.0,-2.0,-2.0,0.0,1.0,1650846524553795.0
1.0,13.0,23.0,7.0,3.0,1.0,0.0,-1.0,1650846524568790.0
-3.0,-5.0,-2.0,-7.0,-1.0,-1.0,0.0,-3.0,1650846524568790.0
-1.0,1.0,-3.0,-1.0,-4.0,-4.0,-3.0,0.0,1650846524569753.0
0.0,-3.0,-3.0,-4.0,-1.0,-1.0,0.0,-1.0,1650846524569753.0
0.0,3.0,-1.0,-2.0,0.0,0.0,-3.0,0.0,1650846524582718.0
0.0,3.0,4.0,6.0,4.0,1.0,1.0,0.0,1650846524582718.0
-2.0,-7.0,-4.0,-3.0,-6.0,0.0,-2.0,-2.0,1650846524590736.0
3.0,0.0,11.0,4.0,-1.0,-1.0,1.0,1.0,1650846524590736.0
1.0,2.0,-9.0,-4.0,-1.0,1.0,0.0,-1.0,1650846524605657.0
-2.0,-2.0,5.0,1.0,0.0,0.0,-1.0,1.0,1650846524605657.0
1.0,1.0,-2.0,2.0,2.0,-4.0,1.0,1.0,1650846524613635.0
-2.0,-3.0,1.0,-2.0,1.0,-2.0,-2.0,-3.0,1650846524613635.0
-1.0,2.0,-7.0,-1.0,-1.0,-1.0,-2.0,-2.0,1650846524628634.0
-2.0,-3.0,1.0,2.0,-1.0,-1.0,0.0,-1.0,1650846524628634.0
1.0,2.0,1.0,-2.0,0.0,1.0,-1.0,3.0,1650846524636594.0
-2.0,-3.0,-2.0,0.0,-1.0,-1.0,1.0,0.0,1650846524636594.0
-1.0,-3.0,-6.0,-6.0,-3.0,2.0,-1.0,2.0,1650846524643556.0
2.0,6.0,2.0,1.0,0.0,-2.0,-2.0,0.0,1650846524643556.0
-1.0,0.0,-1.0,1.0,3.0,0.0,-1.0,0.0,1650846524650536.0
0.0,1.0,1.0,-1.0,-1.0,0.0,-2.0,1.0,1650846524650536.0
-3.0,1.0,2.0,2.0,-6.0,-2.0,1.0,-2.0,1650846524665590.0
-1.0,-5.0,-9.0,-3.0,-3.0,-1.0,-2.0,-1.0,1650846524665590.0
1.0,-1.0,3.0,0.0,-5.0,1.0,-1.0,-2.0,1650846524674571.0
2.0,-2.0,-5.0,-2.0,1.0,0.0,1.0,2.0,1650846524674571.0
0.0,2.0,2.0,-1.0,3.0,0.0,1.0,0.0,1650846524688494.0
0.0,-2.0,3.0,6.0,0.0,-2.0,-1.0,-3.0,1650846524688494.0
-4.0,-3.0,-9.0,-8.0,-4.0,-2.0,0.0,-1.0,1650846524689493.0
1.0,-2.0,-3.0,-3.0,-3.0,1.0,0.0,-1.0,1650846524689493.0
2.0,3.0,5.0,1.0,-2.0,1.0,-1.0,2.0,1650846524703475.0
0.0,0.0,0.0,-2.0,-1.0,-2.0,-2.0,3.0,1650846524703475.0
5.0,2.0,0.0,-1.0,0.0,0.0,2.0,-2.0,1650846524710477.0
-2.0,1.0,2.0,0.0,4.0,4.0,2.0,0.0,1650846524710477.0
0.0,-3.0,-2.0,0.0,-2.0,-2.0,-1.0,-1.0,1650846524725396.0
-1.0,-1.0,-2.0,2.0,1.0,-1.0,-2.0,0.0,1650846524725396.0
-1.0,1.0,1.0,-3.0,-2.0,-1.0,-2.0,-3.0,1650846524733395.0
0.0,-4.0,2.0,1.0,-1.0,-2.0,-4.0,-2.0,1650846524733395.0
0.0,-4.0,-4.0,-1.0,0.0,-1.0,-1.0,-1.0,1650846524748368.0
-1.0,3.0,3.0,3.0,0.0,0.0,1.0,0.0,1650846524748368.0
-2.0,-2.0,-8.0,-1.0,0.0,1.0,0.0,0.0,1650846524756325.0
-2.0,-1.0,6.0,0.0,1.0,-4.0,0.0,0.0,1650846524756325.0
0.0,2.0,-1.0,-2.0,3.0,1.0,1.0,-1.0,1650846524764322.0
-1.0,-1.0,-1.0,-3.0,-2.0,0.0,-2.0,-1.0,1650846524764322.0
0.0,-2.0,1.0,3.0,-2.0,1.0,0.0,0.0,1650846524770303.0
-1.0,-1.0,-2.0,-4.0,-3.0,-2.0,-2.0,-2.0,1650846524770303.0
-1.0,1.0,0.0,1.0,2.0,3.0,0.0,-1.0,1650846524785906.0
-3.0,-3.0,-10.0,-2.0,2.0,-1.0,0.0,0.0,1650846524785906.0
-3.0,-3.0,6.0,2.0,-1.0,-3.0,-1.0,-1.0,1650846524793819.0
0.0,1.0,-2.0,1.0,-1.0,0.0,1.0,-1.0,1650846524793819.0
0.0,1.0,-1.0,1.0,0.0,-1.0,0.0,1.0,1650846524807848.0
-1.0,-1.0,-3.0,3.0,2.0,1.0,1.0,0.0,1650846524807848.0
1.0,0.0,3.0,3.0,0.0,2.0,-3.0,-2.0,1650846524816776.0
1.0,0.0,0.0,-2.0,-4.0,0.0,-1.0,1.0,1650846524816776.0
-2.0,-6.0,-4.0,-3.0,-2.0,-4.0,-1.0,0.0,1650846524823743.0
2.0,1.0,1.0,2.0,-1.0,0.0,1.0,0.0,1650846524823743.0
0.0,2.0,0.0,-2.0,-1.0,-1.0,0.0,1.0,1650846524830746.0
-1.0,-1.0,-4.0,1.0,-1.0,-3.0,-2.0,0.0,1650846524830746.0
-1.0,3.0,2.0,-1.0,0.0,-1.0,-1.0,-2.0,1650846524845819.0
-1.0,-4.0,1.0,1.0,3.0,1.0,-1.0,0.0,1650846524845819.0
-1.0,-1.0,-6.0,-2.0,0.0,-1.0,1.0,1.0,1650846524853777.0
-2.0,-1.0,7.0,0.0,-3.0,0.0,-1.0,1.0,1650846524853777.0
-1.0,-4.0,-6.0,1.0,-1.0,-3.0,0.0,-2.0,1650846524867768.0
-2.0,-1.0,1.0,-1.0,-1.0,2.0,-1.0,-1.0,1650846524867768.0
-2.0,0.0,-1.0,2.0,1.0,-2.0,-1.0,0.0,1650846524876783.0
-2.0,-1.0,-1.0,1.0,2.0,2.0,2.0,-1.0,1650846524876783.0
3.0,1.0,-2.0,-2.0,-3.0,-2.0,0.0,4.0,1650846524882728.0
2.0,-1.0,1.0,-1.0,0.0,0.0,0.0,0.0,1650846524882728.0
-3.0,-1.0,-2.0,0.0,-1.0,-2.0,-2.0,-2.0,1650846524890746.0
-2.0,1.0,0.0,1.0,0.0,2.0,-2.0,-3.0,1650846524890746.0
0.0,0.0,-1.0,-3.0,-2.0,0.0,-1.0,0.0,1650846524905639.0
-1.0,-4.0,-4.0,-1.0,-3.0,-2.0,-1.0,0.0,1650846524905639.0
1.0,1.0,5.0,2.0,2.0,1.0,0.0,0.0,1650846524913655.0
-2.0,2.0,-3.0,-2.0,2.0,-2.0,-1.0,0.0,1650846524913655.0
-2.0,-2.0,-4.0,0.0,0.0,1.0,0.0,0.0,1650846524928577.0
1.0,2.0,3.0,1.0,0.0,-2.0,1.0,-1.0,1650846524928577.0
2.0,-2.0,3.0,1.0,-2.0,3.0,0.0,0.0,1650846524936576.0
0.0,-2.0,-8.0,-1.0,-3.0,-2.0,0.0,-2.0,1650846524936576.0
0.0,1.0,10.0,3.0,3.0,0.0,0.0,-1.0,1650846524951537.0
1.0,1.0,-3.0,-3.0,-1.0,-1.0,0.0,-1.0,1650846524951537.0
-1.0,0.0,0.0,1.0,-2.0,1.0,-1.0,1.0,1650846524952525.0
-1.0,-5.0,-2.0,-1.0,0.0,1.0,1.0,0.0,1650846524952525.0
-3.0,-5.0,-5.0,-1.0,-4.0,-3.0,1.0,0.0,1650846524965483.0
0.0,1.0,-1.0,-4.0,1.0,2.0,0.0,0.0,1650846524965483.0
0.0,-3.0,-1.0,2.0,0.0,-2.0,1.0,-2.0,1650846524973494.0
0.0,-1.0,0.0,-2.0,-1.0,0.0,-2.0,-1.0,1650846524973494.0
2.0,3.0,-1.0,0.0,0.0,3.0,-1.0,-1.0,1650846524988437.0
-2.0,2.0,3.0,2.0,-2.0,-2.0,-2.0,-2.0,1650846524988437.0
-1.0,-5.0,-5.0,-4.0,-2.0,-4.0,0.0,0.0,1650846524996435.0
1.0,1.0,0.0,1.0,-1.0,0.0,0.0,1.0,1650846524996435.0
0.0,0.0,2.0,0.0,0.0,1.0,0.0,-2.0,1650846525011395.0
-1.0,-3.0,-3.0,0.0,1.0,-2.0,-2.0,-1.0,1650846525011395.0
-2.0,3.0,3.0,-1.0,2.0,3.0,2.0,0.0,1650846525012387.0
2.0,-2.0,-2.0,-1.0,-1.0,0.0,1.0,-4.0,1650846525012387.0
-1.0,-2.0,2.0,0.0,-1.0,-3.0,-3.0,-1.0,1650846525025385.0
0.0,0.0,-1.0,-1.0,-2.0,1.0,0.0,0.0,1650846525025385.0
2.0,1.0,-4.0,-2.0,1.0,0.0,2.0,0.0,1650846525034329.0
-2.0,-2.0,4.0,0.0,-2.0,-1.0,-3.0,-1.0,1650846525034329.0
-2.0,1.0,-1.0,0.0,-1.0,-1.0,0.0,0.0,1650846525048421.0
0.0,0.0,-2.0,-4.0,0.0,0.0,0.0,2.0,1650846525048421.0
-1.0,0.0,0.0,-2.0,-3.0,-3.0,-1.0,1.0,1650846525056399.0
-2.0,-8.0,-5.0,0.0,-1.0,-1.0,-2.0,-1.0,1650846525056399.0
-1.0,2.0,2.0,1.0,2.0,1.0,0.0,-1.0,1650846525071387.0
1.0,-1.0,-1.0,0.0,-3.0,0.0,0.0,0.0,1650846525071387.0
-2.0,-3.0,-5.0,-3.0,-2.0,0.0,-1.0,-2.0,1650846525072357.0
2.0,2.0,3.0,-1.0,2.0,-1.0,1.0,3.0,1650846525072357.0
0.0,-1.0,-1.0,0.0,0.0,-3.0,-1.0,-2.0,1650846525085328.0
-2.0,-3.0,-3.0,-1.0,-2.0,-1.0,0.0,-1.0,1650846525085328.0
-3.0,-4.0,-1.0,1.0,0.0,1.0,-2.0,0.0,1650846525094342.0
-2.0,3.0,-9.0,-5.0,0.0,0.0,-2.0,0.0,1650846525094342.0
-2.0,-2.0,-1.0,-2.0,-1.0,0.0,2.0,-1.0,1650846525108327.0
-1.0,-3.0,0.0,-1.0,-1.0,-1.0,-3.0,-2.0,1650846525108327.0
0.0,0.0,-1.0,-2.0,-3.0,1.0,-1.0,0.0,1650846525116266.0
0.0,-1.0,-2.0,-1.0,0.0,-1.0,1.0,-1.0,1650846525116266.0
0.0,1.0,-4.0,-2.0,0.0,1.0,0.0,1.0,1650846525131198.0
-1.0,1.0,4.0,3.0,-3.0,0.0,-1.0,0.0,1650846525131198.0
0.0,1.0,1.0,0.0,0.0,-1.0,-1.0,-2.0,1650846525132196.0
-3.0,0.0,1.0,0.0,0.0,0.0,-1.0,2.0,1650846525132196.0
0.0,-3.0,-3.0,-2.0,-1.0,0.0,1.0,0.0,1650846525146159.0
1.0,3.0,4.0,0.0,0.0,2.0,0.0,-3.0,1650846525146159.0
-2.0,-1.0,-1.0,0.0,-4.0,-2.0,0.0,1.0,1650846525154137.0
0.0,-1.0,0.0,2.0,-1.0,-2.0,0.0,0.0,1650846525154137.0
0.0,-1.0,-3.0,-2.0,-2.0,-1.0,-1.0,-1.0,1650846525168128.0
0.0,2.0,5.0,0.0,3.0,0.0,0.0,0.0,1650846525168128.0
-1.0,2.0,-4.0,0.0,0.0,-4.0,-1.0,-1.0,1650846525176146.0
-3.0,-5.0,-1.0,-3.0,-4.0,1.0,3.0,-1.0,1650846525176146.0
0.0,1.0,0.0,-3.0,-2.0,0.0,-3.0,0.0,1650846525191038.0
-2.0,-3.0,-2.0,-2.0,0.0,-4.0,-2.0,1.0,1650846525191038.0
1.0,1.0,3.0,0.0,-1.0,-1.0,0.0,-1.0,1650846525192049.0
0.0,4.0,1.0,0.0,1.0,-1.0,0.0,-1.0,1650846525192049.0
-1.0,-2.0,1.0,1.0,1.0,2.0,-1.0,-1.0,1650846525206020.0
0.0,-4.0,-7.0,-3.0,-3.0,-1.0,-1.0,0.0,1650846525206020.0
0.0,-1.0,-3.0,-1.0,1.0,1.0,0.0,-3.0,1650846525214128.0
0.0,4.0,4.0,2.0,1.0,0.0,0.0,1.0,1650846525214128.0
0.0,-2.0,1.0,-1.0,-1.0,-4.0,-1.0,2.0,1650846525228130.0
0.0,-1.0,0.0,-1.0,-2.0,-1.0,1.0,-1.0,1650846525228130.0
-1.0,0.0,1.0,-1.0,0.0,-2.0,0.0,1.0,1650846525236040.0
-2.0,-1.0,-2.0,2.0,-1.0,1.0,-1.0,-1.0,1650846525236040.0
-2.0,-2.0,-5.0,-3.0,-2.0,-1.0,-2.0,-2.0,1650846525251028.0
-1.0,2.0,3.0,2.0,0.0,1.0,1.0,-1.0,1650846525251028.0
0.0,-1.0,-3.0,0.0,0.0,1.0,-1.0,1.0,1650846525251999.0
0.0,-1.0,0.0,-1.0,0.0,-2.0,0.0,-1.0,1650846525251999.0
-1.0,-2.0,0.0,-2.0,0.0,2.0,0.0,-1.0,1650846525274936.0
-1.0,1.0,-6.0,-3.0,-2.0,0.0,-1.0,1.0,1650846525274936.0
-1.0,-1.0,1.0,3.0,0.0,1.0,-1.0,2.0,1650846525274936.0
0.0,-3.0,-4.0,-3.0,-4.0,0.0,0.0,0.0,1650846525274936.0
-1.0,0.0,11.0,3.0,-2.0,1.0,0.0,-1.0,1650846525287901.0
-3.0,-1.0,-3.0,-2.0,0.0,0.0,-2.0,0.0,1650846525287901.0
-1.0,-2.0,-3.0,-2.0,-2.0,-1.0,0.0,-1.0,1650846525295952.0
1.0,0.0,0.0,0.0,0.0,1.0,1.0,-3.0,1650846525295952.0
2.0,-1.0,-5.0,-1.0,1.0,-3.0,1.0,1.0,1650846525311842.0
-2.0,-2.0,0.0,1.0,0.0,-4.0,0.0,0.0,1650846525311842.0
0.0,1.0,4.0,-1.0,-1.0,-2.0,-2.0,-1.0,1650846525311842.0
-2.0,1.0,1.0,-1.0,-1.0,3.0,1.0,1.0,1650846525311842.0
-2.0,-3.0,-7.0,-1.0,0.0,-1.0,-1.0,-1.0,1650846525325868.0
0.0,4.0,6.0,2.0,2.0,-1.0,-2.0,-1.0,1650846525325868.0
3.0,-3.0,-1.0,0.0,-1.0,-2.0,-2.0,-1.0,1650846525333842.0
-1.0,-6.0,0.0,-2.0,0.0,-4.0,0.0,0.0,1650846525333842.0
-3.0,1.0,0.0,-2.0,-2.0,1.0,2.0,-1.0,1650846525347769.0
0.0,-1.0,0.0,-1.0,0.0,0.0,0.0,-1.0,1650846525347769.0
-1.0,-1.0,0.0,3.0,-2.0,0.0,1.0,-2.0,1650846525356718.0
-1.0,-2.0,-1.0,4.0,3.0,-1.0,-2.0,-3.0,1650846525356718.0
1.0,3.0,0.0,4.0,0.0,0.0,0.0,-1.0,1650846525371705.0
-2.0,-2.0,-5.0,-3.0,-3.0,1.0,1.0,0.0,1650846525371705.0
-2.0,2.0,4.0,2.0,3.0,0.0,1.0,0.0,1650846525371705.0
1.0,2.0,2.0,2.0,0.0,0.0,-2.0,0.0,1650846525371705.0
0.0,-1.0,-1.0,-1.0,1.0,-1.0,1.0,1.0,1650846525386756.0
-3.0,-3.0,-4.0,-1.0,-2.0,-1.0,-2.0,-3.0,1650846525386756.0
-1.0,-1.0,-1.0,1.0,-2.0,-1.0,2.0,-1.0,1650846525393804.0
1.0,4.0,1.0,-1.0,-1.0,1.0,-2.0,1.0,1650846525393804.0
0.0,-1.0,-1.0,-3.0,0.0,-1.0,1.0,0.0,1650846525408705.0
2.0,1.0,2.0,5.0,1.0,0.0,-1.0,-1.0,1650846525408705.0
-1.0,-3.0,5.0,-3.0,1.0,-2.0,-3.0,-1.0,1650846525416703.0
-2.0,-1.0,-2.0,0.0,-1.0,-4.0,0.0,-1.0,1650846525416703.0
-1.0,-3.0,0.0,-5.0,-3.0,1.0,-1.0,0.0,1650846525431637.0
1.0,0.0,2.0,5.0,3.0,2.0,1.0,0.0,1650846525431637.0
2.0,1.0,5.0,20.0,7.0,1.0,0.0,-1.0,1650846525431637.0
0.0,-2.0,-3.0,-11.0,-5.0,-2.0,-2.0,0.0,1650846525431637.0
0.0,1.0,-4.0,-4.0,-4.0,1.0,0.0,-3.0,1650846525445786.0
-1.0,-1.0,-2.0,-3.0,0.0,1.0,0.0,0.0,1650846525445786.0
-1.0,-1.0,-1.0,-18.0,-6.0,-2.0,-1.0,-2.0,1650846525453727.0
-2.0,-3.0,1.0,-3.0,2.0,-1.0,1.0,-1.0,1650846525453727.0
0.0,3.0,1.0,23.0,7.0,-1.0,1.0,-1.0,1650846525467819.0
-1.0,0.0,-3.0,-9.0,-4.0,-2.0,-5.0,-1.0,1650846525467819.0
-1.0,-2.0,-5.0,-3.0,-2.0,-3.0,1.0,2.0,1650846525476833.0
-3.0,-2.0,-1.0,-4.0,-3.0,0.0,-3.0,-2.0,1650846525476833.0
3.0,5.0,1.0,-4.0,2.0,0.0,0.0,1.0,1650846525491741.0
-7.0,-13.0,-9.0,-3.0,-4.0,-4.0,-2.0,-2.0,1650846525491741.0
1.0,0.0,-1.0,-3.0,-4.0,-2.0,1.0,-1.0,1650846525492725.0
4.0,4.0,4.0,20.0,12.0,3.0,1.0,0.0,1650846525492725.0
1.0,-1.0,0.0,-4.0,-4.0,-1.0,-2.0,2.0,1650846525505690.0
-1.0,-3.0,1.0,8.0,0.0,0.0,2.0,-1.0,1650846525505690.0
-1.0,2.0,-9.0,-19.0,-5.0,-1.0,1.0,2.0,1650846525513697.0
-2.0,-3.0,0.0,-4.0,-4.0,-1.0,-2.0,-1.0,1650846525513697.0
-4.0,-4.0,-6.0,-9.0,-9.0,-6.0,-2.0,0.0,1650846525528606.0
5.0,7.0,6.0,-5.0,7.0,3.0,2.0,-2.0,1650846525528606.0
-1.0,1.0,-4.0,-9.0,2.0,-1.0,0.0,0.0,1650846525536586.0
-1.0,-6.0,-5.0,1.0,-4.0,-2.0,-2.0,-3.0,1650846525536586.0
-2.0,-4.0,-4.0,-12.0,-5.0,-2.0,-2.0,0.0,1650846525551695.0
0.0,2.0,-7.0,-23.0,-11.0,-3.0,0.0,3.0,1650846525551695.0
5.0,10.0,7.0,18.0,15.0,7.0,2.0,2.0,1650846525551695.0
-5.0,-11.0,-3.0,-2.0,3.0,-1.0,-3.0,-2.0,1650846525551695.0
-2.0,-2.0,-6.0,-17.0,-12.0,-1.0,-1.0,0.0,1650846525565657.0
3.0,-1.0,-1.0,2.0,0.0,-2.0,-3.0,-3.0,1650846525565657.0
-3.0,-1.0,1.0,0.0,-7.0,-2.0,-2.0,-3.0,1650846525574606.0
4.0,8.0,1.0,-8.0,-1.0,3.0,2.0,-1.0,1650846525574606.0
-2.0,-3.0,1.0,11.0,7.0,1.0,0.0,-4.0,1650846525588590.0
-1.0,-2.0,-1.0,0.0,-6.0,0.0,-2.0,1.0,1650846525588590.0
-3.0,-1.0,-1.0,3.0,4.0,-1.0,-1.0,-2.0,1650846525596574.0
-1.0,3.0,5.0,6.0,-2.0,-1.0,1.0,-2.0,1650846525596574.0
0.0,1.0,-1.0,-7.0,-3.0,0.0,3.0,1.0,1650846525611574.0
0.0,1.0,6.0,18.0,5.0,0.0,2.0,1.0,1650846525611574.0
2.0,1.0,-2.0,-11.0,-10.0,-1.0,1.0,0.0,1650846525612543.0
-3.0,-1.0,-3.0,0.0,2.0,0.0,-1.0,3.0,1650846525612543.0
4.0,3.0,4.0,7.0,7.0,0.0,-2.0,1.0,1650846525625470.0
-1.0,2.0,-3.0,6.0,-9.0,-4.0,1.0,-2.0,1650846525625470.0
0.0,-1.0,7.0,17.0,14.0,3.0,3.0,-2.0,1650846525633477.0
0.0,0.0,-6.0,-16.0,3.0,3.0,0.0,1.0,1650846525633477.0
2.0,4.0,9.0,13.0,2.0,0.0,-1.0,-1.0,1650846525647648.0
-2.0,-2.0,-7.0,-8.0,4.0,1.0,-1.0,-3.0,1650846525647648.0
-6.0,-7.0,-9.0,-6.0,-11.0,-6.0,-4.0,-1.0,1650846525656615.0
3.0,6.0,11.0,17.0,1.0,-1.0,0.0,-2.0,1650846525656615.0
-6.0,-14.0,-9.0,-15.0,-7.0,-5.0,-5.0,0.0,1650846525671563.0
2.0,4.0,8.0,10.0,8.0,4.0,3.0,0.0,1650846525671563.0
-1.0,-3.0,0.0,0.0,-3.0,-4.0,-9.0,-2.0,1650846525672583.0
-1.0,-2.0,-5.0,-8.0,-5.0,-4.0,2.0,-1.0,1650846525672583.0
9.0,17.0,8.0,13.0,7.0,3.0,6.0,-1.0,1650846525685525.0
-2.0,-7.0,-4.0,-6.0,-5.0,-4.0,-4.0,2.0,1650846525685525.0
3.0,2.0,1.0,0.0,1.0,1.0,-2.0,1.0,1650846525693572.0
-1.0,1.0,1.0,-1.0,-5.0,1.0,-3.0,-1.0,1650846525693572.0
1.0,8.0,8.0,13.0,10.0,6.0,15.0,3.0,1650846525708485.0
1.0,-5.0,-7.0,-14.0,-9.0,-5.0,-7.0,-3.0,1650846525708485.0
2.0,-1.0,0.0,-1.0,4.0,2.0,6.0,3.0,1650846525716472.0
2.0,8.0,0.0,0.0,-4.0,-5.0,-8.0,-1.0,1650846525716472.0
-9.0,-17.0,-4.0,-3.0,2.0,3.0,-3.0,-1.0,1650846525730433.0
0.0,3.0,-1.0,-2.0,2.0,1.0,5.0,3.0,1650846525730433.0
0.0,-5.0,-11.0,-19.0,-14.0,-2.0,5.0,3.0,1650846525738412.0
1.0,-3.0,13.0,37.0,12.0,0.0,-1.0,-1.0,1650846525738412.0
2.0,3.0,0.0,-3.0,3.0,-1.0,-20.0,-3.0,1650846525745434.0
-4.0,-6.0,7.0,19.0,5.0,1.0,11.0,0.0,1650846525745434.0
3.0,2.0,-5.0,-10.0,-6.0,4.0,31.0,3.0,1650846525754363.0
-8.0,-20.0,-7.0,-5.0,-5.0,-4.0,-9.0,-4.0,1650846525754363.0
-1.0,-3.0,-3.0,-4.0,-7.0,-5.0,-11.0,-5.0,1650846525768304.0
5.0,9.0,3.0,1.0,7.0,6.0,-10.0,0.0,1650846525768304.0
-1.0,-2.0,3.0,9.0,3.0,1.0,1.0,-2.0,1650846525776350.0
-4.0,-1.0,-3.0,-4.0,-5.0,-7.0,-19.0,-6.0,1650846525776350.0
7.0,8.0,-2.0,-2.0,4.0,10.0,6.0,5.0,1650846525790369.0
-10.0,-8.0,-8.0,-6.0,-6.0,-5.0,19.0,1.0,1650846525790369.0
3.0,-3.0,5.0,12.0,7.0,7.0,-3.0,-4.0,1650846525798466.0
2.0,3.0,-2.0,-15.0,-6.0,-1.0,11.0,2.0,1650846525798466.0
3.0,7.0,3.0,3.0,-4.0,-14.0,-19.0,-4.0,1650846525805450.0
-6.0,-12.0,-11.0,-16.0,-10.0,1.0,-13.0,-2.0,1650846525805450.0
0.0,3.0,-4.0,-9.0,-3.0,1.0,7.0,3.0,1650846525813840.0
8.0,7.0,-1.0,-2.0,0.0,4.0,-8.0,6.0,1650846525813840.0
-11.0,-12.0,-5.0,-11.0,-6.0,-4.0,5.0,-4.0,1650846525828640.0
-1.0,3.0,1.0,3.0,-6.0,-9.0,-5.0,-13.0,1650846525828640.0
0.0,-1.0,8.0,11.0,4.0,-3.0,-19.0,-6.0,1650846525836648.0
-4.0,-7.0,-9.0,-9.0,-5.0,2.0,17.0,5.0,1650846525836648.0
-4.0,2.0,4.0,-4.0,-9.0,-5.0,-9.0,-4.0,1650846525850583.0
11.0,12.0,10.0,14.0,14.0,5.0,9.0,8.0,1650846525850583.0
-13.0,-22.0,-22.0,-16.0,-13.0,-11.0,-4.0,1.0,1650846525858575.0
5.0,3.0,1.0,2.0,2.0,3.0,5.0,3.0,1650846525858575.0
0.0,-1.0,-2.0,10.0,4.0,1.0,3.0,-2.0,1650846525874529.0
4.0,10.0,4.0,6.0,6.0,0.0,-7.0,1.0,1650846525874529.0
-3.0,2.0,3.0,-3.0,-3.0,-2.0,-1.0,2.0,1650846525875519.0
-3.0,-5.0,0.0,12.0,3.0,-6.0,-3.0,-4.0,1650846525875519.0
-5.0,-19.0,-10.0,-5.0,-6.0,-1.0,-4.0,3.0,1650846525888482.0
5.0,10.0,-15.0,-22.0,-17.0,-8.0,-8.0,-4.0,1650846525888482.0
-4.0,0.0,12.0,13.0,9.0,1.0,-3.0,-5.0,1650846525896460.0
0.0,0.0,1.0,-6.0,0.0,3.0,0.0,-1.0,1650846525896460.0
2.0,-1.0,5.0,13.0,11.0,3.0,3.0,0.0,1650846525910491.0
-2.0,-6.0,0.0,-12.0,-4.0,1.0,1.0,3.0,1650846525910491.0
4.0,7.0,2.0,7.0,4.0,1.0,-3.0,-2.0,1650846525918429.0
-3.0,2.0,3.0,6.0,2.0,-1.0,5.0,-1.0,1650846525918429.0
-1.0,1.0,3.0,11.0,2.0,-3.0,0.0,3.0,1650846525935378.0
-1.0,-5.0,6.0,4.0,1.0,3.0,8.0,1.0,1650846525935378.0
1.0,1.0,6.0,10.0,4.0,0.0,-17.0,-3.0,1650846525940370.0
-2.0,4.0,2.0,-6.0,-2.0,-6.0,6.0,0.0,1650846525940370.0
5.0,4.0,0.0,10.0,6.0,7.0,11.0,4.0,1650846525948321.0
-17.0,-16.0,-3.0,2.0,1.0,-10.0,-26.0,-17.0,1650846525948321.0
-3.0,-11.0,-5.0,-8.0,-6.0,-1.0,4.0,5.0,1650846525957297.0
5.0,5.0,-1.0,2.0,1.0,0.0,-1.0,-1.0,1650846525957297.0
-7.0,-10.0,-9.0,-21.0,-14.0,-10.0,-4.0,-5.0,1650846525970291.0
6.0,10.0,5.0,9.0,11.0,8.0,5.0,6.0,1650846525970291.0
3.0,6.0,-1.0,-3.0,-1.0,10.0,5.0,1.0,1650846525979328.0
-5.0,-7.0,-6.0,2.0,-1.0,-8.0,-10.0,0.0,1650846525979328.0
13.0,17.0,7.0,-1.0,0.0,6.0,27.0,4.0,1650846526009252.0
-6.0,-4.0,0.0,0.0,-1.0,-3.0,-13.0,-3.0,1650846526009252.0
-4.0,-10.0,-11.0,-12.0,-4.0,-2.0,5.0,0.0,1650846526011245.0
0.0,8.0,0.0,-14.0,-6.0,4.0,6.0,4.0,1650846526011245.0
2.0,4.0,-3.0,-7.0,8.0,4.0,-8.0,0.0,1650846526032347.0
-5.0,-9.0,-3.0,-15.0,-19.0,-7.0,-19.0,-5.0,1650846526032347.0
-10.0,-10.0,-1.0,13.0,16.0,10.0,24.0,4.0,1650846526033318.0
-2.0,-15.0,-21.0,-28.0,-18.0,-7.0,4.0,5.0,1650846526033318.0
1.0,-6.0,-5.0,-7.0,-1.0,-5.0,-10.0,-8.0,1650846526055286.0
-2.0,-5.0,-1.0,1.0,-7.0,-4.0,1.0,-9.0,1650846526055286.0
-1.0,1.0,-11.0,-24.0,0.0,-4.0,-19.0,-6.0,1650846526056261.0
-9.0,0.0,11.0,20.0,4.0,2.0,-4.0,-5.0,1650846526056261.0
-6.0,-38.0,-23.0,-11.0,-9.0,-11.0,1.0,-1.0,1650846526075215.0
2.0,1.0,-8.0,-2.0,1.0,5.0,-2.0,1.0,1650846526075215.0
3.0,11.0,8.0,13.0,1.0,-8.0,-5.0,-3.0,1650846526086176.0
-9.0,12.0,2.0,1.0,8.0,7.0,-11.0,-10.0,1650846526086176.0
3.0,15.0,1.0,-8.0,-9.0,-4.0,9.0,7.0,1650846526107119.0
0.0,-15.0,-5.0,-3.0,-6.0,-7.0,-4.0,1.0,1650846526107119.0
-3.0,-4.0,0.0,4.0,-4.0,-8.0,-15.0,-9.0,1650846526108117.0
10.0,8.0,6.0,16.0,9.0,7.0,4.0,3.0,1650846526108117.0
-1.0,-2.0,9.0,11.0,-2.0,6.0,21.0,9.0,1650846526129119.0
5.0,10.0,4.0,15.0,12.0,5.0,8.0,8.0,1650846526129119.0
3.0,1.0,-2.0,-17.0,-4.0,-5.0,-9.0,-3.0,1650846526131060.0
1.0,9.0,9.0,17.0,16.0,6.0,-1.0,-3.0,1650846526131060.0
-1.0,-17.0,-10.0,-6.0,-10.0,0.0,0.0,5.0,1650846526152027.0
1.0,30.0,11.0,-2.0,7.0,7.0,21.0,12.0,1650846526152027.0
6.0,18.0,-4.0,10.0,-9.0,-4.0,-17.0,-7.0,1650846526153994.0
-5.0,-27.0,-8.0,-31.0,-21.0,-9.0,12.0,5.0,1650846526153994.0
4.0,7.0,7.0,22.0,30.0,7.0,-16.0,-11.0,1650846526181986.0
-3.0,-12.0,1.0,-2.0,2.0,-3.0,13.0,5.0,1650846526181986.0
-2.0,3.0,6.0,5.0,1.0,5.0,9.0,5.0,1650846526183942.0
-8.0,-15.0,-22.0,-19.0,-13.0,-8.0,-27.0,-13.0,1650846526183942.0
-5.0,-14.0,-2.0,-33.0,-23.0,-7.0,7.0,4.0,1650846526204043.0
1.0,-3.0,6.0,35.0,28.0,7.0,-8.0,-6.0,1650846526204043.0
-1.0,0.0,-2.0,-12.0,-5.0,2.0,21.0,12.0,1650846526206010.0
3.0,6.0,11.0,20.0,8.0,-4.0,-9.0,-5.0,1650846526206010.0
-2.0,15.0,-7.0,-16.0,-7.0,-3.0,-19.0,1.0,1650846526227021.0
7.0,3.0,20.0,39.0,14.0,4.0,10.0,-1.0,1650846526227021.0
-2.0,-4.0,-13.0,-18.0,-11.0,-6.0,0.0,3.0,1650846526228949.0
7.0,6.0,12.0,1.0,1.0,4.0,0.0,3.0,1650846526228949.0
-10.0,-5.0,-2.0,7.0,1.0,-2.0,-9.0,-11.0,1650846526248976.0
-3.0,-4.0,-14.0,-28.0,-12.0,-3.0,3.0,5.0,1650846526248976.0
5.0,3.0,5.0,21.0,6.0,2.0,-7.0,-1.0,1650846526255985.0
-11.0,-22.0,-4.0,-5.0,6.0,3.0,6.0,-6.0,1650846526255985.0
5.0,14.0,-4.0,-3.0,-4.0,-7.0,-9.0,4.0,1650846526270917.0
-7.0,-26.0,-14.0,-35.0,-18.0,-4.0,8.0,-2.0,1650846526270917.0
3.0,4.0,18.0,41.0,26.0,6.0,4.0,5.0,1650846526280848.0
-1.0,3.0,-12.0,-25.0,-13.0,-6.0,-10.0,-9.0,1650846526280848.0
4.0,12.0,10.0,19.0,9.0,1.0,-13.0,1.0,1650846526301761.0
1.0,6.0,-11.0,-10.0,-4.0,3.0,8.0,1.0,1650846526301761.0
12.0,12.0,1.0,0.0,-1.0,-2.0,-10.0,-2.0,1650846526303736.0
1.0,2.0,-4.0,-12.0,-10.0,-4.0,0.0,7.0,1650846526303736.0
-7.0,-1.0,9.0,26.0,18.0,8.0,1.0,-4.0,1650846526324227.0
5.0,15.0,-1.0,-10.0,-10.0,-5.0,-4.0,-4.0,1650846526324227.0
1.0,-4.0,-1.0,-23.0,-8.0,1.0,22.0,6.0,1650846526326235.0
10.0,5.0,-4.0,14.0,14.0,7.0,30.0,19.0,1650846526326235.0
-4.0,1.0,1.0,0.0,-5.0,-5.0,10.0,-10.0,1650846526346209.0
4.0,4.0,7.0,6.0,3.0,3.0,-2.0,3.0,1650846526346209.0
-11.0,-13.0,-4.0,-14.0,-9.0,-8.0,-10.0,-6.0,1650846526353171.0
5.0,9.0,10.0,11.0,9.0,3.0,1.0,5.0,1650846526353171.0
-6.0,-8.0,-10.0,-23.0,-12.0,-2.0,0.0,2.0,1650846526377446.0
-2.0,-3.0,1.0,0.0,-2.0,-4.0,-2.0,-6.0,1650846526377446.0
2.0,-2.0,4.0,12.0,12.0,4.0,16.0,4.0,1650846526378445.0
-1.0,1.0,-4.0,-5.0,-13.0,-4.0,-8.0,-7.0,1650846526378445.0
-2.0,-2.0,2.0,0.0,5.0,-3.0,-14.0,-4.0,1650846526400387.0
5.0,3.0,-4.0,-14.0,-3.0,0.0,7.0,8.0,1650846526400387.0
-8.0,5.0,-1.0,3.0,-9.0,-4.0,-12.0,-11.0,1650846526402381.0
-1.0,-14.0,16.0,31.0,15.0,2.0,-4.0,-2.0,1650846526402381.0
-4.0,3.0,-1.0,-7.0,-7.0,-1.0,7.0,-2.0,1650846526422358.0
-3.0,5.0,6.0,0.0,7.0,2.0,-5.0,-3.0,1650846526422358.0
20.0,-4.0,-14.0,-15.0,-4.0,1.0,10.0,9.0,1650846526423357.0
-17.0,16.0,10.0,-2.0,-12.0,-4.0,4.0,0.0,1650846526423357.0
11.0,8.0,2.0,-9.0,9.0,8.0,14.0,3.0,1650846526444305.0
-10.0,-20.0,-8.0,-1.0,-9.0,-8.0,-21.0,-19.0,1650846526444305.0
-3.0,2.0,5.0,3.0,-1.0,1.0,-16.0,-2.0,1650846526450310.0
5.0,1.0,-3.0,-3.0,-4.0,-5.0,9.0,2.0,1650846526450310.0
2.0,-7.0,0.0,5.0,3.0,5.0,1.0,2.0,1650846526474247.0
-2.0,-4.0,-3.0,-9.0,0.0,-1.0,2.0,1.0,1650846526474247.0
-2.0,3.0,5.0,15.0,8.0,1.0,-3.0,-4.0,1650846526476216.0
0.0,-9.0,-13.0,-15.0,-9.0,-4.0,-1.0,3.0,1650846526476216.0
2.0,8.0,14.0,23.0,15.0,2.0,3.0,2.0,1650846526498155.0
0.0,-7.0,-5.0,5.0,-3.0,-2.0,-2.0,5.0,1650846526498155.0
-1.0,4.0,6.0,12.0,6.0,2.0,-15.0,-6.0,1650846526499153.0
1.0,-9.0,-10.0,-8.0,-3.0,0.0,12.0,5.0,1650846526499153.0
-10.0,-7.0,-5.0,-6.0,-8.0,-10.0,-9.0,-8.0,1650846526519099.0
7.0,19.0,1.0,3.0,5.0,1.0,-7.0,1.0,1650846526519099.0
-6.0,-4.0,-12.0,-37.0,-15.0,-4.0,-1.0,-13.0,1650846526521095.0
3.0,22.0,33.0,96.0,36.0,9.0,-21.0,-3.0,1650846526521095.0
-7.0,-28.0,-1.0,-20.0,-4.0,3.0,35.0,3.0,1650846526541068.0
-3.0,-2.0,-10.0,10.0,-9.0,-15.0,-26.0,-4.0,1650846526541068.0
-7.0,-3.0,-2.0,-8.0,0.0,-1.0,3.0,-6.0,1650846526548676.0
9.0,5.0,-4.0,-16.0,-3.0,2.0,-7.0,-1.0,1650846526548676.0
7.0,4.0,3.0,8.0,-1.0,1.0,5.0,5.0,1650846526563602.0
-9.0,-5.0,4.0,7.0,2.0,-5.0,-14.0,-15.0,1650846526563602.0
4.0,-3.0,1.0,4.0,0.0,2.0,4.0,3.0,1650846526571785.0
-2.0,-1.0,-5.0,-18.0,-3.0,0.0,-2.0,-3.0,1650846526571785.0
-2.0,1.0,3.0,15.0,1.0,2.0,-9.0,0.0,1650846526594787.0
0.0,-5.0,-3.0,-17.0,-3.0,4.0,15.0,6.0,1650846526594787.0
-2.0,2.0,-6.0,-14.0,-6.0,0.0,-4.0,2.0,1650846526595784.0
2.0,-5.0,6.0,33.0,18.0,5.0,0.0,0.0,1650846526595784.0
-5.0,-5.0,-8.0,-14.0,-15.0,-8.0,-16.0,-7.0,1650846526616756.0
7.0,6.0,11.0,14.0,8.0,7.0,13.0,4.0,1650846526616756.0
0.0,3.0,-9.0,-16.0,-4.0,3.0,-9.0,3.0,1650846526618723.0
5.0,-7.0,6.0,2.0,11.0,5.0,5.0,0.0,1650846526618723.0
-1.0,3.0,-12.0,-18.0,-11.0,-8.0,5.0,2.0,1650846526639777.0
-1.0,-5.0,7.0,13.0,1.0,4.0,2.0,2.0,1650846526639777.0
-1.0,-1.0,5.0,24.0,7.0,0.0,-7.0,-7.0,1650846526645733.0
-2.0,1.0,-20.0,-54.0,-27.0,-13.0,9.0,1.0,1650846526645733.0
3.0,2.0,10.0,27.0,13.0,13.0,-30.0,-7.0,1650846526660754.0
8.0,20.0,11.0,-8.0,2.0,-2.0,55.0,24.0,1650846526660754.0
1.0,-11.0,-14.0,-11.0,-6.0,-6.0,-7.0,7.0,1650846526669667.0
-9.0,2.0,-9.0,-20.0,-12.0,-5.0,-14.0,-14.0,1650846526669667.0
1.0,3.0,2.0,0.0,-1.0,-3.0,-3.0,0.0,1650846526691793.0
2.0,5.0,-1.0,-1.0,1.0,2.0,-3.0,-2.0,1650846526691793.0
-5.0,-6.0,6.0,13.0,2.0,-2.0,2.0,0.0,1650846526693789.0
1.0,0.0,2.0,-3.0,-1.0,5.0,2.0,2.0,1650846526693789.0
1.0,-7.0,-4.0,4.0,-1.0,0.0,6.0,4.0,1650846526714738.0
-6.0,-4.0,-11.0,-17.0,-7.0,-1.0,-14.0,-5.0,1650846526714738.0
2.0,9.0,9.0,18.0,3.0,-3.0,12.0,0.0,1650846526715735.0
1.0,-8.0,-11.0,-15.0,-10.0,-1.0,1.0,1.0,1650846526715735.0
1.0,6.0,15.0,13.0,14.0,8.0,2.0,1.0,1650846526735703.0
-13.0,-18.0,-21.0,-20.0,-12.0,-7.0,-26.0,-12.0,1650846526735703.0
13.0,20.0,17.0,38.0,21.0,5.0,31.0,10.0,1650846526744660.0
-4.0,-7.0,-3.0,-6.0,-7.0,0.0,0.0,5.0,1650846526744660.0
-1.0,-3.0,-1.0,-8.0,-1.0,-1.0,5.0,3.0,1650846526766621.0
-3.0,-3.0,0.0,2.0,1.0,-3.0,-11.0,-3.0,1650846526766621.0
-9.0,-3.0,4.0,7.0,0.0,1.0,-37.0,-17.0,1650846526768589.0
-1.0,-10.0,1.0,8.0,6.0,9.0,50.0,18.0,1650846526768589.0
8.0,8.0,-6.0,-9.0,-10.0,-7.0,-18.0,-7.0,1650846526789668.0
-7.0,-8.0,-1.0,-5.0,1.0,3.0,3.0,-1.0,1650846526789668.0
-3.0,-9.0,-8.0,-13.0,-11.0,-5.0,1.0,-1.0,1650846526790638.0
-3.0,2.0,-2.0,-5.0,-1.0,-3.0,-9.0,-8.0,1650846526790638.0
-2.0,-6.0,1.0,2.0,-2.0,3.0,2.0,-1.0,1650846526812565.0
8.0,8.0,1.0,8.0,8.0,2.0,3.0,6.0,1650846526812565.0
-8.0,-9.0,-2.0,6.0,-6.0,-4.0,3.0,1.0,1650846526813573.0
-1.0,-2.0,-4.0,-6.0,-4.0,-2.0,-20.0,-12.0,1650846526813573.0
1.0,10.0,-3.0,-21.0,-6.0,0.0,7.0,2.0,1650846526833818.0
2.0,5.0,6.0,10.0,0.0,1.0,9.0,3.0,1650846526833818.0
7.0,5.0,-1.0,-17.0,-2.0,2.0,9.0,4.0,1650846526841831.0
1.0,3.0,6.0,15.0,6.0,0.0,-2.0,2.0,1650846526841831.0
-6.0,-5.0,-6.0,-5.0,-6.0,-6.0,-3.0,-4.0,1650846526864847.0
0.0,0.0,3.0,4.0,-1.0,0.0,-1.0,-2.0,1650846526864847.0
-1.0,-2.0,-3.0,-13.0,-2.0,2.0,-2.0,-1.0,1650846526865844.0
1.0,6.0,-4.0,-7.0,-2.0,-5.0,-6.0,-5.0,1650846526865844.0
1.0,0.0,0.0,5.0,4.0,0.0,2.0,2.0,1650846526887831.0
1.0,-3.0,3.0,7.0,0.0,4.0,3.0,-1.0,1650846526887831.0
-3.0,-4.0,-6.0,-4.0,-1.0,-4.0,-1.0,-3.0,1650846526888827.0
0.0,-2.0,-4.0,0.0,0.0,-1.0,-3.0,-2.0,1650846526888827.0
-1.0,-4.0,5.0,12.0,5.0,0.0,4.0,1.0,1650846526909773.0
2.0,6.0,-3.0,-5.0,-3.0,-5.0,-4.0,-4.0,1650846526909773.0
-1.0,-4.0,2.0,-7.0,-5.0,-2.0,-3.0,0.0,1650846526910769.0
-1.0,-4.0,-5.0,-2.0,-1.0,-5.0,-4.0,-6.0,1650846526910769.0
0.0,5.0,-4.0,1.0,4.0,15.0,6.0,-1.0,1650846526916753.0
-4.0,-5.0,4.0,4.0,1.0,-1.0,-2.0,2.0,1650846526916753.0
-2.0,-5.0,-1.0,0.0,-3.0,-6.0,-5.0,-3.0,1650846526924739.0
2.0,0.0,1.0,1.0,1.0,-3.0,1.0,1.0,1650846526924739.0
1.0,0.0,-2.0,3.0,2.0,-5.0,-2.0,3.0,1650846526925730.0
1.0,-2.0,-3.0,-3.0,-3.0,3.0,0.0,0.0,1650846526925730.0
-1.0,-8.0,-10.0,-7.0,0.0,5.0,7.0,-1.0,1650846526925730.0
1.0,9.0,22.0,2.0,0.0,2.0,-2.0,-3.0,1650846526925730.0
2.0,13.0,-5.0,6.0,-1.0,-4.0,0.0,-1.0,1650846526931743.0
-9.0,-36.0,-25.0,-9.0,-1.0,-2.0,-3.0,-2.0,1650846526931743.0
5.0,18.0,18.0,-1.0,0.0,-1.0,-2.0,2.0,1650846526931743.0
-3.0,-9.0,-12.0,-1.0,-3.0,-2.0,1.0,2.0,1650846526931743.0
-1.0,-3.0,0.0,-8.0,-4.0,-4.0,1.0,2.0,1650846526939691.0
1.0,6.0,-32.0,9.0,6.0,3.0,0.0,0.0,1650846526939691.0
-10.0,-27.0,-17.0,-17.0,-8.0,-1.0,7.0,1.0,1650846526940689.0
-10.0,-8.0,-11.0,-13.0,-4.0,-5.0,-9.0,-4.0,1650846526940689.0
-2.0,-5.0,2.0,-4.0,-4.0,-9.0,1.0,1.0,1650846526946700.0
9.0,9.0,2.0,5.0,4.0,-10.0,-7.0,2.0,1650846526946700.0
4.0,6.0,4.0,8.0,11.0,43.0,25.0,9.0,1650846526946700.0
-4.0,-14.0,-25.0,-14.0,-10.0,-12.0,-11.0,-5.0,1650846526946700.0
-7.0,2.0,-2.0,3.0,-1.0,-4.0,3.0,-5.0,1650846526953654.0
0.0,-4.0,7.0,-3.0,-1.0,5.0,3.0,-9.0,1650846526953654.0
6.0,12.0,13.0,2.0,-4.0,-15.0,-8.0,5.0,1650846526954652.0
1.0,-2.0,9.0,1.0,3.0,3.0,-5.0,-7.0,1650846526954652.0
2.0,5.0,-5.0,2.0,2.0,5.0,2.0,2.0,1650846526961633.0
7.0,7.0,24.0,4.0,0.0,4.0,1.0,8.0,1650846526961633.0
-4.0,1.0,-15.0,2.0,2.0,-3.0,-9.0,-7.0,1650846526963628.0
6.0,3.0,16.0,7.0,4.0,5.0,7.0,7.0,1650846526963628.0
-2.0,-2.0,4.0,1.0,-2.0,-10.0,-8.0,-2.0,1650846526968635.0
0.0,4.0,12.0,3.0,-1.0,3.0,4.0,-1.0,1650846526968635.0
-1.0,3.0,1.0,1.0,0.0,-7.0,-5.0,0.0,1650846526969612.0
-2.0,-9.0,-20.0,-8.0,1.0,-1.0,0.0,3.0,1650846526969612.0
-4.0,-14.0,-19.0,-11.0,-4.0,5.0,2.0,-1.0,1650846526976594.0
-5.0,2.0,30.0,7.0,-1.0,0.0,-3.0,-5.0,1650846526976594.0
-3.0,-11.0,-46.0,-15.0,-2.0,-5.0,-5.0,-3.0,1650846526977590.0
2.0,7.0,5.0,4.0,0.0,-2.0,-1.0,-1.0,1650846526977590.0
3.0,7.0,14.0,10.0,5.0,4.0,0.0,-1.0,1650846526983602.0
0.0,-4.0,-8.0,-11.0,-8.0,-2.0,2.0,2.0,1650846526983602.0
-4.0,-7.0,6.0,3.0,-3.0,-8.0,-7.0,-3.0,1650846526984571.0
0.0,7.0,-3.0,4.0,4.0,8.0,4.0,2.0,1650846526984571.0
2.0,-2.0,10.0,2.0,-3.0,-4.0,-1.0,-2.0,1650846526991574.0
-4.0,-3.0,0.0,-6.0,-2.0,-6.0,-3.0,-1.0,1650846526991574.0
1.0,6.0,17.0,10.0,6.0,1.0,-2.0,1.0,1650846526992551.0
-1.0,2.0,3.0,-1.0,-3.0,-3.0,-1.0,-2.0,1650846526992551.0
-1.0,1.0,2.0,3.0,2.0,3.0,0.0,0.0,1650846526999559.0
-1.0,-2.0,-5.0,1.0,-1.0,-2.0,-2.0,2.0,1650846526999559.0
2.0,1.0,10.0,4.0,1.0,1.0,0.0,-1.0,1650846527001526.0
-2.0,1.0,-4.0,-2.0,0.0,1.0,1.0,1.0,1650846527001526.0
-1.0,-2.0,0.0,0.0,-3.0,-2.0,-4.0,0.0,1650846527006512.0
-1.0,5.0,2.0,2.0,-2.0,-2.0,0.0,-1.0,1650846527006512.0
-3.0,-3.0,0.0,-2.0,-2.0,-1.0,-1.0,0.0,1650846527007509.0
0.0,-1.0,3.0,0.0,-2.0,1.0,0.0,2.0,1650846527007509.0
0.0,2.0,1.0,2.0,2.0,1.0,1.0,0.0,1650846527013522.0
-3.0,-5.0,-15.0,-8.0,-1.0,1.0,0.0,-1.0,1650846527013522.0
1.0,5.0,9.0,4.0,-2.0,-2.0,0.0,-1.0,1650846527022493.0
-2.0,0.0,-1.0,1.0,-1.0,-2.0,-1.0,-2.0,1650846527022493.0
2.0,8.0,6.0,0.0,0.0,1.0,2.0,0.0,1650846527037454.0
-2.0,-4.0,6.0,-1.0,1.0,-1.0,0.0,-3.0,1650846527037454.0
-2.0,1.0,7.0,2.0,1.0,-3.0,-4.0,-2.0,1650846527038451.0
-2.0,0.0,-15.0,-5.0,-3.0,1.0,1.0,0.0,1650846527038451.0
0.0,-6.0,5.0,-2.0,-2.0,-1.0,-3.0,-1.0,1650846527050418.0
2.0,3.0,-7.0,1.0,1.0,-1.0,1.0,-2.0,1650846527050418.0
-1.0,-9.0,-3.0,-6.0,-5.0,-1.0,2.0,0.0,1650846527059395.0
3.0,9.0,14.0,4.0,0.0,1.0,-3.0,1.0,1650846527059395.0
0.0,-3.0,-13.0,5.0,2.0,0.0,-1.0,-1.0,1650846527073385.0
-1.0,1.0,3.0,0.0,1.0,0.0,-4.0,1.0,1650846527073385.0
1.0,0.0,-5.0,-4.0,0.0,-1.0,1.0,-3.0,1650846527082334.0
0.0,-1.0,4.0,1.0,-2.0,1.0,2.0,0.0,1650846527082334.0
-2.0,-4.0,-8.0,-6.0,-2.0,-2.0,-3.0,-1.0,1650846527097332.0
1.0,2.0,-2.0,0.0,-1.0,1.0,-1.0,0.0,1650846527097332.0
-3.0,0.0,-1.0,1.0,2.0,0.0,-1.0,1.0,1650846527098290.0
2.0,-2.0,2.0,-1.0,1.0,0.0,1.0,2.0,1650846527098290.0
-3.0,-3.0,-1.0,-2.0,-2.0,-2.0,2.0,0.0,1650846527110260.0
2.0,3.0,5.0,-3.0,0.0,0.0,0.0,2.0,1650846527110260.0
-2.0,-1.0,-10.0,0.0,0.0,-1.0,-1.0,-3.0,1650846527119261.0
-2.0,-5.0,4.0,3.0,2.0,-2.0,-1.0,1.0,1650846527119261.0
0.0,-2.0,-2.0,-2.0,0.0,1.0,1.0,-1.0,1650846527132819.0
-2.0,-6.0,-20.0,-5.0,-1.0,-1.0,0.0,-2.0,1650846527132819.0
2.0,2.0,20.0,6.0,-1.0,0.0,0.0,1.0,1650846527141839.0
-2.0,0.0,-8.0,3.0,-1.0,-1.0,-1.0,-2.0,1650846527141839.0
-1.0,-5.0,-10.0,-10.0,-3.0,1.0,-2.0,0.0,1650846527156781.0
-1.0,1.0,2.0,1.0,-2.0,0.0,-2.0,-2.0,1650846527156781.0
-1.0,-4.0,-6.0,4.0,0.0,-1.0,0.0,-1.0,1650846527158750.0
-1.0,2.0,-1.0,-7.0,0.0,0.0,0.0,-3.0,1650846527158750.0
-1.0,-2.0,0.0,-1.0,-1.0,-1.0,-1.0,2.0,1650846527170744.0
2.0,1.0,0.0,2.0,2.0,2.0,1.0,1.0,1650846527170744.0
-1.0,-2.0,-2.0,0.0,-1.0,-2.0,-1.0,-1.0,1650846527179707.0
1.0,2.0,8.0,2.0,0.0,2.0,-1.0,-1.0,1650846527179707.0
0.0,1.0,-3.0,0.0,-1.0,-1.0,-1.0,2.0,1650846527193671.0
-3.0,-2.0,0.0,-1.0,1.0,0.0,-1.0,-1.0,1650846527193671.0
0.0,3.0,-1.0,-2.0,-1.0,-1.0,-3.0,-1.0,1650846527201782.0
-1.0,-2.0,-1.0,4.0,0.0,0.0,0.0,-1.0,1650846527201782.0
1.0,-2.0,1.0,0.0,0.0,2.0,2.0,-2.0,1650846527216864.0
0.0,3.0,3.0,1.0,-2.0,1.0,-1.0,-2.0,1650846527216864.0
-1.0,0.0,-3.0,-2.0,-1.0,2.0,0.0,0.0,1650846527218831.0
0.0,-3.0,-9.0,-3.0,-2.0,-5.0,-1.0,-1.0,1650846527218831.0
0.0,0.0,6.0,2.0,-1.0,0.0,-2.0,0.0,1650846527230866.0
1.0,2.0,2.0,2.0,2.0,-1.0,0.0,-1.0,1650846527230866.0
-3.0,-2.0,-6.0,-5.0,-4.0,-3.0,-3.0,-1.0,1650846527239775.0
-1.0,-5.0,-1.0,-2.0,-1.0,0.0,1.0,1.0,1650846527239775.0
0.0,4.0,4.0,3.0,1.0,1.0,0.0,-2.0,1650846527252768.0
-3.0,-4.0,0.0,-1.0,-2.0,-3.0,0.0,-1.0,1650846527252768.0
-1.0,0.0,-3.0,-3.0,-4.0,-3.0,-1.0,-3.0,1650846527261722.0
2.0,1.0,3.0,-2.0,-2.0,0.0,1.0,-1.0,1650846527261722.0
0.0,-2.0,-5.0,-4.0,-1.0,-3.0,-1.0,1.0,1650846527276706.0
0.0,2.0,-1.0,5.0,2.0,1.0,1.0,-3.0,1650846527276706.0
-2.0,-6.0,3.0,1.0,1.0,1.0,-1.0,-2.0,1650846527278672.0
-2.0,-2.0,-12.0,-1.0,0.0,0.0,0.0,0.0,1650846527278672.0
-2.0,-1.0,-1.0,0.0,-3.0,1.0,1.0,1.0,1650846527290638.0
1.0,-1.0,-5.0,-13.0,-8.0,3.0,-2.0,1.0,1650846527290638.0
0.0,-4.0,1.0,17.0,0.0,1.0,-1.0,1.0,1650846527299615.0
-1.0,1.0,0.0,-9.0,-6.0,-2.0,0.0,-2.0,1650846527299615.0
-3.0,-4.0,-2.0,-1.0,0.0,2.0,0.0,0.0,1650846527313644.0
-1.0,4.0,3.0,-3.0,-1.0,-1.0,0.0,0.0,1650846527313644.0
-2.0,-3.0,-4.0,-10.0,-3.0,-4.0,-2.0,1.0,1650846527322553.0
-1.0,-1.0,6.0,6.0,0.0,1.0,-2.0,2.0,1650846527322553.0
1.0,0.0,-2.0,3.0,3.0,0.0,-1.0,-3.0,1650846527336666.0
-2.0,-2.0,4.0,-4.0,-3.0,-3.0,0.0,-1.0,1650846527336666.0
-2.0,0.0,-2.0,-4.0,0.0,-3.0,-1.0,0.0,1650846527338662.0
-1.0,-3.0,3.0,4.0,5.0,2.0,0.0,1.0,1650846527338662.0
0.0,1.0,7.0,-4.0,-2.0,2.0,2.0,-2.0,1650846527350809.0
0.0,-2.0,1.0,10.0,4.0,0.0,-3.0,-1.0,1650846527350809.0
0.0,1.0,-2.0,0.0,0.0,0.0,1.0,1.0,1650846527359717.0
1.0,2.0,2.0,-1.0,0.0,0.0,0.0,0.0,1650846527359717.0
-3.0,-1.0,-1.0,2.0,-2.0,-2.0,-3.0,-1.0,1650846527372711.0
0.0,-2.0,-2.0,2.0,-2.0,-2.0,2.0,-1.0,1650846527372711.0
1.0,0.0,-4.0,-1.0,1.0,4.0,-2.0,-1.0,1650846527382675.0
-1.0,2.0,1.0,0.0,-1.0,-1.0,-2.0,-3.0,1650846527382675.0
-2.0,0.0,1.0,-2.0,-2.0,-3.0,-1.0,-1.0,1650846527396687.0
-3.0,-5.0,-8.0,-1.0,0.0,-2.0,1.0,-3.0,1650846527396687.0
-2.0,1.0,4.0,-3.0,-1.0,0.0,1.0,2.0,1650846527398615.0
0.0,-4.0,-2.0,0.0,-2.0,-3.0,-3.0,-2.0,1650846527398615.0
0.0,1.0,-7.0,-2.0,0.0,-1.0,2.0,-2.0,1650846527410603.0
-2.0,4.0,10.0,3.0,1.0,1.0,0.0,-1.0,1650846527410603.0
-1.0,0.0,-4.0,-3.0,-1.0,-3.0,0.0,2.0,1650846527419558.0
-2.0,-4.0,-2.0,2.0,0.0,1.0,-2.0,2.0,1650846527419558.0
0.0,-2.0,4.0,1.0,0.0,-1.0,1.0,-1.0,1650846527432783.0
-2.0,-6.0,-12.0,-6.0,0.0,-1.0,-2.0,0.0,1650846527432783.0
-2.0,2.0,11.0,0.0,0.0,0.0,-3.0,-3.0,1650846527441732.0
0.0,2.0,1.0,-1.0,2.0,-1.0,1.0,0.0,1650846527441732.0
1.0,-1.0,-5.0,-2.0,-2.0,-1.0,0.0,2.0,1650846527456719.0
0.0,0.0,-2.0,1.0,0.0,0.0,-1.0,2.0,1650846527456719.0
-1.0,-4.0,2.0,0.0,-2.0,0.0,-1.0,-2.0,1650846527458707.0
0.0,-2.0,-5.0,-2.0,1.0,1.0,0.0,-1.0,1650846527458707.0
-2.0,1.0,-1.0,-1.0,-3.0,-2.0,-2.0,-3.0,1650846527470682.0
1.0,-1.0,3.0,3.0,1.0,0.0,0.0,3.0,1650846527470682.0
0.0,2.0,-5.0,-3.0,0.0,-1.0,-1.0,0.0,1650846527479631.0
-1.0,0.0,0.0,-1.0,-4.0,0.0,2.0,-2.0,1650846527479631.0
-2.0,-4.0,-2.0,-2.0,0.0,0.0,-1.0,-1.0,1650846527493596.0
0.0,5.0,6.0,5.0,-2.0,0.0,-2.0,0.0,1650846527493596.0
2.0,2.0,-3.0,-4.0,0.0,1.0,0.0,-1.0,1650846527502569.0
-1.0,0.0,1.0,2.0,0.0,-2.0,-2.0,-1.0,1650846527502569.0
-1.0,-3.0,-8.0,-1.0,3.0,1.0,1.0,-1.0,1650846527516653.0
0.0,1.0,7.0,-2.0,-1.0,-2.0,-2.0,-2.0,1650846527516653.0
0.0,-1.0,0.0,1.0,2.0,2.0,1.0,0.0,1650846527518648.0
0.0,-2.0,-3.0,1.0,-1.0,-4.0,-2.0,0.0,1650846527518648.0
0.0,2.0,3.0,-1.0,-1.0,-1.0,-1.0,2.0,1650846527530680.0
1.0,-2.0,-3.0,-1.0,-3.0,-3.0,0.0,0.0,1650846527530680.0
-1.0,1.0,3.0,2.0,3.0,0.0,0.0,-1.0,1650846527539591.0
-1.0,-1.0,-2.0,-1.0,0.0,1.0,2.0,0.0,1650846527539591.0
3.0,2.0,3.0,0.0,-1.0,0.0,2.0,0.0,1650846527553555.0
-5.0,-5.0,-8.0,-3.0,-2.0,-2.0,-1.0,-3.0,1650846527553555.0
-1.0,2.0,1.0,0.0,-3.0,-3.0,-1.0,-1.0,1650846527562531.0
1.0,-1.0,0.0,1.0,-2.0,-2.0,2.0,-2.0,1650846527562531.0
0.0,0.0,1.0,3.0,2.0,-2.0,-3.0,1.0,1650846527576522.0
1.0,-3.0,-3.0,-2.0,-1.0,-1.0,0.0,2.0,1650846527576522.0
0.0,3.0,1.0,-1.0,-3.0,1.0,2.0,-2.0,1650846527583502.0
-3.0,-6.0,-5.0,0.0,-1.0,-1.0,0.0,-1.0,1650846527583502.0
-1.0,2.0,3.0,1.0,0.0,-2.0,-3.0,0.0,1650846527590455.0
1.0,-1.0,-3.0,0.0,-1.0,2.0,-1.0,1.0,1650846527590455.0
-1.0,1.0,1.0,-1.0,0.0,0.0,1.0,-1.0,1650846527599433.0
0.0,2.0,4.0,-1.0,-1.0,-1.0,-3.0,0.0,1650846527599433.0
-2.0,0.0,-5.0,-1.0,-2.0,-1.0,1.0,-1.0,1650846527613462.0
2.0,1.0,-3.0,0.0,1.0,2.0,-1.0,1.0,1650846527613462.0
-3.0,-2.0,2.0,-3.0,-1.0,-2.0,-1.0,0.0,1650846527622370.0
-1.0,-1.0,0.0,-2.0,-1.0,0.0,0.0,2.0,1650846527622370.0
0.0,-2.0,0.0,0.0,-2.0,1.0,0.0,-1.0,1650846527636332.0
-1.0,-1.0,0.0,-1.0,2.0,0.0,2.0,0.0,1650846527636332.0
-2.0,-4.0,-7.0,-1.0,-2.0,-2.0,1.0,-1.0,1650846527643314.0
-1.0,4.0,1.0,1.0,0.0,2.0,1.0,0.0,1650846527643314.0
-1.0,-2.0,-3.0,-1.0,-2.0,-1.0,-1.0,-2.0,1650846527650295.0
-2.0,-2.0,2.0,3.0,1.0,-1.0,0.0,-2.0,1650846527650295.0
-3.0,-6.0,-6.0,-4.0,-4.0,-2.0,-3.0,0.0,1650846527659271.0
1.0,2.0,1.0,-1.0,1.0,0.0,-1.0,-2.0,1650846527659271.0
-1.0,-1.0,0.0,0.0,1.0,2.0,0.0,0.0,1650846527673262.0
-2.0,-2.0,-2.0,-1.0,-3.0,0.0,0.0,0.0,1650846527673262.0
2.0,0.0,-3.0,0.0,-3.0,-2.0,-2.0,-1.0,1650846527682210.0
-3.0,-3.0,-1.0,-2.0,1.0,1.0,-2.0,0.0,1650846527682210.0
0.0,-4.0,0.0,-4.0,-1.0,-3.0,-1.0,0.0,1650846527696178.0
-1.0,2.0,1.0,0.0,3.0,-2.0,-2.0,-1.0,1650846527696178.0
1.0,2.0,-1.0,2.0,-3.0,0.0,2.0,1.0,1650846527703210.0
-3.0,-2.0,3.0,1.0,-1.0,1.0,-2.0,2.0,1650846527703210.0
-2.0,-2.0,-2.0,-2.0,1.0,-1.0,-1.0,-2.0,1650846527711133.0
-1.0,-1.0,0.0,-1.0,0.0,0.0,-2.0,-2.0,1650846527711133.0
1.0,0.0,-3.0,1.0,1.0,-2.0,-4.0,1.0,1650846527719287.0
0.0,0.0,-3.0,0.0,-3.0,-1.0,-1.0,-4.0,1650846527719287.0
-1.0,2.0,1.0,3.0,0.0,0.0,0.0,-2.0,1650846527733258.0
0.0,0.0,2.0,1.0,-3.0,0.0,1.0,0.0,1650846527733258.0
-2.0,-4.0,-6.0,1.0,-1.0,2.0,-1.0,0.0,1650846527742168.0
-1.0,2.0,2.0,-2.0,0.0,-1.0,0.0,0.0,1650846527742168.0
-1.0,-1.0,-1.0,-1.0,-3.0,0.0,-2.0,-1.0,1650846527755837.0
0.0,-4.0,-9.0,-2.0,-1.0,-1.0,2.0,-2.0,1650846527755837.0
1.0,2.0,4.0,-2.0,1.0,-1.0,0.0,0.0,1650846527762803.0
-1.0,0.0,4.0,0.0,3.0,1.0,-1.0,-1.0,1650846527762803.0
-1.0,-2.0,-3.0,-3.0,1.0,0.0,0.0,1.0,1650846527779812.0
0.0,-1.0,0.0,-2.0,-3.0,-2.0,-1.0,2.0,1650846527779812.0
3.0,1.0,-6.0,2.0,3.0,-1.0,-1.0,-1.0,1650846527780767.0
0.0,4.0,13.0,5.0,1.0,-2.0,-2.0,-3.0,1650846527780767.0
0.0,-4.0,-6.0,-5.0,-4.0,-2.0,1.0,-1.0,1650846527792739.0
-1.0,0.0,2.0,-1.0,3.0,1.0,-2.0,-2.0,1650846527792739.0
-2.0,0.0,-1.0,-2.0,-2.0,1.0,0.0,0.0,1650846527801686.0
-2.0,-4.0,-5.0,-3.0,-2.0,-2.0,-1.0,-1.0,1650846527801686.0
0.0,1.0,1.0,5.0,-1.0,2.0,-2.0,0.0,1650846527816713.0
1.0,3.0,-1.0,-2.0,0.0,1.0,-1.0,-2.0,1650846527816713.0
-1.0,-4.0,-1.0,0.0,0.0,-2.0,0.0,-2.0,1650846527822630.0
-1.0,-1.0,-4.0,-2.0,-1.0,-1.0,-1.0,2.0,1650846527822630.0
1.0,2.0,1.0,0.0,1.0,1.0,1.0,0.0,1650846527839732.0
0.0,2.0,6.0,1.0,-3.0,-2.0,-2.0,-2.0,1650846527839732.0
-3.0,-2.0,3.0,-1.0,0.0,-2.0,-2.0,-1.0,1650846527840720.0
1.0,0.0,-4.0,2.0,1.0,3.0,1.0,-2.0,1650846527840720.0
0.0,0.0,0.0,-1.0,-1.0,0.0,-1.0,1.0,1650846527852698.0
-2.0,-2.0,-6.0,-2.0,-2.0,-1.0,0.0,-1.0,1650846527852698.0
1.0,3.0,3.0,0.0,3.0,1.0,-2.0,-1.0,1650846527862654.0
-1.0,-3.0,-2.0,-4.0,-3.0,-2.0,-2.0,0.0,1650846527862654.0
0.0,-2.0,0.0,0.0,-3.0,0.0,1.0,0.0,1650846527876604.0
0.0,-1.0,2.0,3.0,1.0,1.0,0.0,-1.0,1650846527876604.0
1.0,-1.0,1.0,-3.0,-3.0,0.0,2.0,0.0,1650846527883613.0
-1.0,0.0,-3.0,-1.0,-2.0,-1.0,-3.0,1.0,1650846527883613.0
-2.0,0.0,-3.0,1.0,0.0,-2.0,-1.0,0.0,1650846527899610.0
-3.0,2.0,4.0,2.0,-1.0,-1.0,-1.0,0.0,1650846527899610.0
-2.0,0.0,-3.0,1.0,-1.0,-4.0,-2.0,-2.0,1650846527901562.0
-5.0,-5.0,-5.0,-2.0,-2.0,-4.0,-2.0,-1.0,1650846527901562.0
-2.0,0.0,1.0,0.0,2.0,-3.0,-1.0,1.0,1650846527913573.0
0.0,-1.0,-4.0,-3.0,0.0,-1.0,2.0,1.0,1650846527913573.0
0.0,-3.0,-1.0,1.0,-3.0,1.0,2.0,3.0,1650846527922511.0
1.0,2.0,2.0,-1.0,0.0,2.0,0.0,2.0,1650846527922511.0
-1.0,1.0,0.0,-1.0,0.0,0.0,0.0,-2.0,1650846527936443.0
1.0,0.0,-1.0,-2.0,-3.0,-3.0,0.0,3.0,1650846527936443.0
-1.0,-3.0,-2.0,-3.0,-1.0,0.0,-1.0,0.0,1650846527943454.0
2.0,2.0,-2.0,5.0,-1.0,1.0,2.0,-2.0,1650846527943454.0
0.0,1.0,1.0,-2.0,0.0,1.0,0.0,-1.0,1650846527959410.0
-2.0,-3.0,-1.0,2.0,2.0,-2.0,-1.0,0.0,1650846527959410.0
-2.0,0.0,2.0,-3.0,-1.0,-2.0,-1.0,0.0,1650846527961378.0
2.0,-1.0,0.0,-2.0,0.0,0.0,2.0,-3.0,1650846527961378.0
-2.0,-2.0,-2.0,-1.0,-2.0,-1.0,-2.0,-1.0,1650846527973373.0
1.0,-1.0,1.0,2.0,0.0,2.0,1.0,-1.0,1650846527973373.0
1.0,0.0,-1.0,-1.0,-1.0,-2.0,-1.0,0.0,1650846527982357.0
-1.0,8.0,3.0,6.0,-2.0,-2.0,-2.0,-1.0,1650846527982357.0
-3.0,-7.0,0.0,0.0,1.0,0.0,1.0,0.0,1650846527996319.0
1.0,-1.0,-1.0,-2.0,0.0,-1.0,-2.0,-2.0,1650846527996319.0
-1.0,-2.0,-3.0,-2.0,1.0,4.0,-1.0,-1.0,1650846528003264.0
-1.0,-3.0,-3.0,-2.0,1.0,3.0,-1.0,2.0,1650846528003264.0
0.0,1.0,1.0,0.0,-3.0,-1.0,-1.0,1.0,1650846528019222.0
-2.0,-1.0,-5.0,-1.0,-2.0,-1.0,-2.0,-1.0,1650846528019222.0
-1.0,-2.0,1.0,3.0,-2.0,-2.0,-1.0,-2.0,1650846528021238.0
-1.0,-5.0,-3.0,-2.0,-2.0,0.0,3.0,-1.0,1650846528021238.0
1.0,4.0,0.0,0.0,0.0,0.0,-2.0,-2.0,1650846528033227.0
-1.0,-1.0,-1.0,-4.0,-4.0,-3.0,0.0,-1.0,1650846528033227.0
-3.0,-2.0,0.0,0.0,1.0,0.0,1.0,-1.0,1650846528042162.0
0.0,1.0,0.0,0.0,2.0,0.0,-3.0,0.0,1650846528042162.0
0.0,1.0,0.0,-1.0,0.0,-1.0,0.0,0.0,1650846528056226.0
0.0,-1.0,1.0,1.0,-2.0,-3.0,0.0,3.0,1650846528056226.0
-2.0,-2.0,-4.0,1.0,1.0,0.0,-2.0,1.0,1650846528063168.0
-1.0,-4.0,1.0,0.0,-1.0,0.0,3.0,-2.0,1650846528063168.0
0.0,-1.0,-6.0,-4.0,-2.0,-2.0,0.0,-2.0,1650846528079138.0
0.0,-2.0,0.0,4.0,2.0,1.0,-1.0,0.0,1650846528079138.0
2.0,2.0,0.0,-1.0,-3.0,0.0,1.0,-2.0,1650846528081121.0
-1.0,-1.0,-2.0,0.0,2.0,-1.0,0.0,0.0,1650846528081121.0
-2.0,-4.0,3.0,0.0,-2.0,-2.0,-3.0,0.0,1650846528093116.0
-3.0,1.0,-3.0,-4.0,-2.0,-2.0,0.0,-3.0,1650846528093116.0
1.0,-1.0,-6.0,-4.0,-2.0,-2.0,0.0,0.0,1650846528102065.0
0.0,5.0,11.0,2.0,-1.0,-2.0,0.0,1.0,1650846528102065.0
-1.0,-3.0,-6.0,-1.0,-1.0,0.0,-2.0,-2.0,1650846528116096.0
-2.0,2.0,2.0,0.0,0.0,3.0,-1.0,-2.0,1650846528116096.0
-1.0,-1.0,-1.0,2.0,1.0,-2.0,-5.0,-1.0,1650846528123038.0
-1.0,-2.0,-7.0,-3.0,-5.0,0.0,-3.0,-3.0,1650846528123038.0
0.0,2.0,3.0,1.0,-1.0,-2.0,0.0,0.0,1650846528138993.0
-1.0,-1.0,-2.0,0.0,-2.0,-1.0,-1.0,-2.0,1650846528138993.0
-1.0,-1.0,1.0,-1.0,-1.0,0.0,2.0,1.0,1650846528140961.0
-1.0,2.0,0.0,1.0,0.0,-2.0,-1.0,-2.0,1650846528140961.0
0.0,-1.0,-2.0,-2.0,-2.0,-2.0,1.0,1.0,1650846528152927.0
0.0,-6.0,-7.0,-2.0,-3.0,1.0,-1.0,-2.0,1650846528152927.0
0.0,9.0,15.0,4.0,1.0,-1.0,-1.0,0.0,1650846528161918.0
-2.0,-5.0,-14.0,-4.0,0.0,1.0,0.0,0.0,1650846528161918.0
-1.0,-1.0,6.0,2.0,3.0,2.0,-1.0,0.0,1650846528184854.0
1.0,-2.0,-1.0,-3.0,-2.0,-3.0,1.0,0.0,1650846528184854.0
0.0,1.0,1.0,-3.0,1.0,0.0,1.0,-1.0,1650846528185850.0
-1.0,-2.0,-4.0,-2.0,-1.0,-3.0,-1.0,0.0,1650846528185850.0
0.0,-3.0,0.0,2.0,2.0,-1.0,-2.0,1.0,1650846528199813.0
-2.0,3.0,-2.0,0.0,2.0,0.0,-1.0,0.0,1650846528199813.0
-1.0,-4.0,-3.0,-1.0,-1.0,1.0,-1.0,0.0,1650846528205824.0
3.0,-2.0,1.0,1.0,1.0,-1.0,0.0,-3.0,1650846528205824.0
0.0,1.0,-1.0,-2.0,0.0,-1.0,-1.0,0.0,1650846528212778.0
1.0,-1.0,5.0,3.0,-2.0,-1.0,-1.0,0.0,1650846528212778.0
-2.0,1.0,-3.0,2.0,-1.0,-1.0,-1.0,-1.0,1650846528221773.0
0.0,-2.0,4.0,-4.0,-4.0,-3.0,2.0,2.0,1650846528221773.0
3.0,4.0,-3.0,-1.0,0.0,0.0,0.0,0.0,1650846528236741.0
0.0,0.0,1.0,2.0,3.0,-4.0,1.0,0.0,1650846528236741.0
-3.0,-2.0,-1.0,-1.0,-2.0,2.0,-3.0,4.0,1650846528242697.0
0.0,2.0,-2.0,-2.0,3.0,2.0,-1.0,-1.0,1650846528242697.0
0.0,0.0,0.0,-2.0,-3.0,-3.0,1.0,0.0,1650846528259679.0
-2.0,-2.0,-1.0,-4.0,-2.0,-2.0,-3.0,0.0,1650846528259679.0
1.0,-2.0,-9.0,-4.0,1.0,-3.0,1.0,-1.0,1650846528265666.0
1.0,1.0,8.0,3.0,-1.0,-1.0,0.0,-1.0,1650846528265666.0
-1.0,-2.0,1.0,0.0,-2.0,-1.0,-3.0,-1.0,1650846528272617.0
-1.0,2.0,-3.0,-2.0,-1.0,1.0,0.0,0.0,1650846528272617.0
-2.0,1.0,3.0,-4.0,-1.0,-1.0,-1.0,-2.0,1650846528282593.0
2.0,0.0,-3.0,1.0,-1.0,-2.0,-1.0,2.0,1650846528282593.0
-1.0,-3.0,-3.0,2.0,2.0,0.0,-2.0,-1.0,1650846528296581.0
3.0,0.0,2.0,-1.0,-3.0,2.0,0.0,1.0,1650846528296581.0
2.0,-1.0,-2.0,-1.0,-1.0,1.0,4.0,0.0,1650846528303535.0
-1.0,-2.0,-3.0,-2.0,-4.0,-1.0,-2.0,2.0,1650846528303535.0
1.0,0.0,3.0,-3.0,-1.0,2.0,0.0,1.0,1650846528319491.0
-3.0,2.0,2.0,3.0,2.0,-3.0,-1.0,-2.0,1650846528319491.0
-2.0,-5.0,0.0,1.0,-2.0,-1.0,-3.0,-1.0,1650846528321487.0
-1.0,1.0,2.0,0.0,-1.0,-1.0,0.0,0.0,1650846528321487.0
0.0,0.0,-3.0,-2.0,-3.0,-1.0,1.0,-3.0,1650846528333536.0
-1.0,-2.0,-1.0,-1.0,0.0,1.0,1.0,0.0,1650846528333536.0
0.0,-3.0,-6.0,-2.0,0.0,-1.0,1.0,0.0,1650846528342548.0
0.0,2.0,7.0,2.0,-1.0,0.0,0.0,-1.0,1650846528342548.0
-1.0,1.0,-3.0,1.0,-3.0,-2.0,-2.0,-1.0,1650846528356496.0
-3.0,-4.0,-4.0,-3.0,2.0,0.0,-1.0,-1.0,1650846528356496.0
2.0,2.0,0.0,1.0,0.0,-1.0,-2.0,0.0,1650846528363460.0
2.0,-1.0,-4.0,-3.0,1.0,1.0,2.0,1.0,1650846528363460.0
-3.0,-4.0,-4.0,1.0,0.0,1.0,-1.0,2.0,1650846528379417.0
0.0,1.0,2.0,0.0,-3.0,2.0,0.0,-2.0,1650846528379417.0
4.0,0.0,2.0,0.0,-2.0,-1.0,-1.0,-1.0,1650846528381437.0
-2.0,-2.0,-4.0,-1.0,-1.0,0.0,-2.0,0.0,1650846528381437.0
-4.0,1.0,5.0,0.0,1.0,-4.0,-2.0,-1.0,1650846528393412.0
1.0,-2.0,-2.0,4.0,0.0,-1.0,2.0,-1.0,1650846528393412.0
-1.0,0.0,0.0,-4.0,1.0,-2.0,-1.0,0.0,1650846528402354.0
-2.0,-4.0,-1.0,0.0,-2.0,0.0,-2.0,-3.0,1650846528402354.0
1.0,2.0,0.0,0.0,-2.0,-1.0,0.0,1.0,1650846528416356.0
-1.0,-2.0,-3.0,-1.0,0.0,-1.0,-1.0,0.0,1650846528416356.0
-4.0,-1.0,0.0,3.0,-1.0,-1.0,-1.0,-1.0,1650846528423298.0
0.0,3.0,2.0,0.0,2.0,1.0,-1.0,0.0,1650846528423298.0
0.0,1.0,-6.0,-2.0,-1.0,3.0,-3.0,-2.0,1650846528439295.0
-2.0,-3.0,3.0,-1.0,-1.0,2.0,-2.0,1.0,1650846528439295.0
-1.0,-1.0,3.0,0.0,-2.0,1.0,1.0,0.0,1650846528441270.0
1.0,0.0,-1.0,0.0,2.0,1.0,1.0,-2.0,1650846528441270.0
0.0,-1.0,1.0,3.0,2.0,-2.0,1.0,1.0,1650846528453257.0
1.0,0.0,-2.0,-4.0,-1.0,-3.0,-2.0,3.0,1650846528453257.0
-1.0,-3.0,-1.0,-4.0,-1.0,1.0,-1.0,-3.0,1650846528469214.0
-1.0,2.0,1.0,1.0,0.0,0.0,0.0,-3.0,1650846528469214.0
-5.0,-7.0,-4.0,0.0,-2.0,0.0,2.0,-3.0,1650846528476185.0
1.0,0.0,-1.0,-5.0,-1.0,-1.0,-1.0,-1.0,1650846528476185.0
2.0,3.0,1.0,3.0,-1.0,1.0,2.0,-2.0,1650846528485132.0
-3.0,-7.0,-7.0,-4.0,-5.0,-2.0,-5.0,0.0,1650846528485132.0
-1.0,-3.0,0.0,-1.0,1.0,0.0,-1.0,1.0,1650846528499134.0
-1.0,4.0,5.0,6.0,2.0,0.0,1.0,-1.0,1650846528499134.0
-1.0,-2.0,-5.0,-1.0,-2.0,1.0,-1.0,-2.0,1650846528501091.0
-1.0,-3.0,-8.0,-1.0,2.0,-2.0,0.0,-1.0,1650846528501091.0
0.0,3.0,4.0,-2.0,0.0,1.0,0.0,-1.0,1650846528513065.0
-1.0,0.0,-2.0,-1.0,-2.0,-2.0,1.0,-1.0,1650846528513065.0
-1.0,-4.0,1.0,6.0,1.0,-3.0,-2.0,0.0,1650846528522033.0
-1.0,-1.0,-1.0,1.0,0.0,0.0,-1.0,1.0,1650846528522033.0
3.0,3.0,-3.0,-8.0,-2.0,-2.0,-1.0,-1.0,1650846528537021.0
-2.0,-2.0,3.0,4.0,1.0,-2.0,1.0,-1.0,1650846528537021.0
-4.0,0.0,1.0,1.0,-2.0,0.0,-2.0,0.0,1650846528542977.0
-1.0,1.0,1.0,-4.0,-1.0,0.0,0.0,1.0,1650846528542977.0
0.0,-4.0,-4.0,1.0,-4.0,-2.0,0.0,-1.0,1650846528558963.0
-1.0,2.0,-5.0,-16.0,-10.0,-3.0,-2.0,-1.0,1650846528558963.0
-1.0,0.0,4.0,23.0,8.0,0.0,-1.0,-3.0,1650846528573895.0
-3.0,-2.0,-2.0,-7.0,-5.0,0.0,1.0,-1.0,1650846528573895.0
0.0,2.0,0.0,3.0,-2.0,-1.0,3.0,2.0,1650846528574914.0
2.0,5.0,2.0,1.0,5.0,2.0,-1.0,-1.0,1650846528574914.0
-1.0,2.0,-2.0,-4.0,-2.0,-1.0,-1.0,-1.0,1650846528581875.0
0.0,0.0,-3.0,-2.0,-3.0,-2.0,-2.0,-1.0,1650846528581875.0
-2.0,-1.0,0.0,1.0,3.0,3.0,0.0,0.0,1650846528596844.0
-1.0,-4.0,-2.0,2.0,-3.0,1.0,-1.0,-2.0,1650846528596844.0
0.0,-2.0,-6.0,-8.0,-4.0,-2.0,-2.0,2.0,1650846528602848.0
0.0,-3.0,3.0,4.0,-2.0,-2.0,0.0,-1.0,1650846528602848.0
0.0,3.0,-4.0,-11.0,-4.0,-1.0,2.0,0.0,1650846528618775.0
2.0,1.0,1.0,2.0,9.0,2.0,-1.0,2.0,1650846528618775.0
-8.0,-15.0,-7.0,-9.0,-5.0,-2.0,-5.0,-2.0,1650846528625756.0
0.0,0.0,-3.0,-14.0,-9.0,-4.0,0.0,-4.0,1650846528625756.0
1.0,6.0,15.0,34.0,12.0,3.0,1.0,0.0,1650846528633595.0
-4.0,-6.0,-7.0,-4.0,-3.0,-1.0,-2.0,-1.0,1650846528633595.0
9.0,17.0,-2.0,-3.0,2.0,1.0,3.0,3.0,1650846528641794.0
-8.0,-19.0,-3.0,9.0,4.0,1.0,-1.0,2.0,1650846528641794.0
1.0,3.0,-2.0,1.0,-4.0,-1.0,-2.0,-2.0,1650846528656809.0
-6.0,-10.0,-8.0,-9.0,-1.0,-4.0,-2.0,-2.0,1650846528656809.0
0.0,2.0,5.0,6.0,1.0,1.0,1.0,-2.0,1650846528662758.0
1.0,4.0,4.0,5.0,3.0,-2.0,-1.0,2.0,1650846528662758.0
-2.0,-4.0,-4.0,-8.0,10.0,4.0,-1.0,-2.0,1650846528678742.0
1.0,2.0,6.0,8.0,1.0,2.0,0.0,2.0,1650846528678742.0
-2.0,-3.0,1.0,-10.0,-4.0,-2.0,-2.0,0.0,1650846528685734.0
2.0,2.0,-2.0,-1.0,-1.0,2.0,3.0,-2.0,1650846528685734.0
2.0,2.0,-1.0,-7.0,-5.0,-1.0,-2.0,-2.0,1650846528701695.0
-3.0,-6.0,2.0,3.0,-1.0,-2.0,-3.0,-2.0,1650846528701695.0
-1.0,0.0,-2.0,-4.0,-2.0,-2.0,1.0,1.0,1650846528703648.0
1.0,4.0,4.0,3.0,7.0,2.0,-1.0,-1.0,1650846528703648.0
-3.0,-2.0,-5.0,-10.0,-8.0,-2.0,0.0,0.0,1650846528716652.0
-2.0,0.0,-3.0,4.0,0.0,-1.0,-2.0,0.0,1650846528716652.0
4.0,2.0,14.0,22.0,12.0,5.0,4.0,1.0,1650846528723594.0
-3.0,0.0,-7.0,-10.0,-11.0,-5.0,-5.0,-1.0,1650846528723594.0
2.0,-3.0,1.0,-2.0,1.0,0.0,2.0,-1.0,1650846528738584.0
1.0,-3.0,-10.0,-17.0,-12.0,-4.0,-2.0,-2.0,1650846528738584.0
1.0,1.0,4.0,10.0,4.0,-1.0,-4.0,-1.0,1650846528745563.0
0.0,0.0,-2.0,-5.0,-2.0,1.0,3.0,-2.0,1650846528745563.0
-2.0,-4.0,-1.0,-4.0,-2.0,-2.0,-2.0,-2.0,1650846528762490.0
2.0,2.0,1.0,3.0,2.0,1.0,1.0,0.0,1650846528762490.0
3.0,1.0,-4.0,-8.0,-1.0,-1.0,0.0,2.0,1650846528763489.0
2.0,3.0,3.0,-1.0,0.0,0.0,2.0,0.0,1650846528763489.0
-2.0,-2.0,-2.0,-2.0,-1.0,-1.0,-3.0,-2.0,1650846528776473.0
1.0,4.0,3.0,7.0,3.0,3.0,2.0,0.0,1650846528776473.0
-1.0,-2.0,-7.0,-11.0,-7.0,-1.0,-2.0,-3.0,1650846528783473.0
3.0,4.0,7.0,16.0,12.0,1.0,1.0,0.0,1650846528783473.0
-2.0,-3.0,-1.0,-2.0,-5.0,-4.0,0.0,1.0,1650846528799295.0
3.0,3.0,0.0,-3.0,-1.0,1.0,1.0,0.0,1650846528799295.0
-4.0,-5.0,-1.0,-1.0,-3.0,1.0,0.0,-3.0,1650846528805777.0
1.0,0.0,-3.0,-14.0,-1.0,0.0,0.0,-1.0,1650846528805777.0
2.0,7.0,9.0,31.0,17.0,6.0,2.0,1.0,1650846528821740.0
0.0,3.0,-2.0,-7.0,-8.0,-9.0,-3.0,0.0,1650846528821740.0
-3.0,-3.0,-3.0,1.0,-3.0,-1.0,0.0,-1.0,1650846528823695.0
-8.0,-12.0,-8.0,-19.0,-14.0,-9.0,-8.0,-4.0,1650846528823695.0
3.0,0.0,-6.0,-8.0,-8.0,-1.0,3.0,2.0,1650846528836223.0
1.0,1.0,3.0,-2.0,-2.0,1.0,4.0,-1.0,1650846528836223.0
0.0,3.0,-1.0,5.0,4.0,0.0,-7.0,1.0,1650846528843192.0
0.0,3.0,4.0,2.0,1.0,4.0,15.0,2.0,1650846528843192.0
-2.0,-2.0,1.0,1.0,1.0,0.0,-2.0,0.0,1650846528859262.0
0.0,-2.0,1.0,0.0,-3.0,1.0,1.0,1.0,1650846528859262.0
0.0,2.0,-1.0,-11.0,0.0,0.0,-1.0,1.0,1650846528865295.0
1.0,1.0,2.0,6.0,6.0,2.0,-9.0,0.0,1650846528865295.0
-3.0,-7.0,-2.0,-6.0,-5.0,-1.0,-1.0,-3.0,1650846528882250.0
-1.0,-1.0,1.0,7.0,2.0,-1.0,-2.0,2.0,1650846528882250.0
0.0,1.0,1.0,2.0,4.0,1.0,0.0,-2.0,1650846528883206.0
1.0,1.0,-1.0,1.0,-2.0,0.0,-1.0,1.0,1650846528883206.0
-2.0,-2.0,2.0,3.0,2.0,3.0,5.0,4.0,1650846528896144.0
-3.0,-1.0,-4.0,-2.0,-4.0,-3.0,-9.0,-6.0,1650846528896144.0
-1.0,-7.0,1.0,-1.0,0.0,-4.0,-8.0,0.0,1650846528903125.0
1.0,4.0,-2.0,7.0,7.0,4.0,16.0,5.0,1650846528903125.0
-2.0,-1.0,-3.0,-1.0,-4.0,-5.0,-1.0,-7.0,1650846528919167.0
-7.0,-14.0,-5.0,0.0,2.0,1.0,-22.0,-4.0,1650846528919167.0
0.0,3.0,-2.0,-5.0,-7.0,-6.0,5.0,2.0,1650846528925153.0
1.0,-1.0,1.0,2.0,0.0,2.0,19.0,3.0,1650846528925153.0
-1.0,-3.0,3.0,5.0,-3.0,-6.0,-15.0,0.0,1650846528942136.0
2.0,3.0,-1.0,-1.0,0.0,0.0,7.0,0.0,1650846528942136.0
-4.0,-6.0,-7.0,-5.0,3.0,1.0,-5.0,-4.0,1650846528944105.0
-1.0,-2.0,-3.0,1.0,-4.0,-2.0,-13.0,-5.0,1650846528944105.0
-1.0,-1.0,-2.0,-7.0,-3.0,-2.0,6.0,2.0,1650846528956098.0
-2.0,-2.0,-2.0,0.0,-6.0,-6.0,0.0,-5.0,1650846528956098.0
-4.0,-8.0,-2.0,-8.0,-4.0,1.0,3.0,0.0,1650846528963052.0
-1.0,2.0,4.0,5.0,3.0,-1.0,-8.0,-2.0,1650846528963052.0
-2.0,0.0,-1.0,-3.0,2.0,0.0,-1.0,3.0,1650846528979037.0
-2.0,-1.0,3.0,9.0,3.0,2.0,-2.0,-1.0,1650846528979037.0
2.0,1.0,-2.0,-1.0,0.0,2.0,7.0,2.0,1650846528986018.0
-2.0,-3.0,-1.0,2.0,-2.0,-2.0,-12.0,-7.0,1650846528986018.0
0.0,-5.0,-2.0,-7.0,-3.0,0.0,6.0,-4.0,1650846529001976.0
3.0,5.0,1.0,-10.0,1.0,-1.0,4.0,4.0,1650846529001976.0
-2.0,-2.0,0.0,12.0,7.0,6.0,2.0,-8.0,1650846529003964.0
-4.0,-9.0,-4.0,-10.0,-7.0,-6.0,-20.0,-4.0,1650846529003964.0
2.0,11.0,6.0,4.0,7.0,1.0,9.0,4.0,1650846529016909.0
5.0,2.0,-11.0,-21.0,-6.0,3.0,13.0,7.0,1650846529016909.0
-4.0,-5.0,12.0,30.0,4.0,1.0,0.0,-1.0,1650846529022892.0
-3.0,-4.0,-8.0,-17.0,-10.0,-1.0,-13.0,-7.0,1650846529022892.0
-4.0,-6.0,-4.0,0.0,2.0,0.0,-3.0,-1.0,1650846529038540.0
-1.0,-5.0,2.0,6.0,0.0,0.0,17.0,4.0,1650846529038540.0
2.0,1.0,-1.0,-11.0,-6.0,-7.0,-7.0,0.0,1650846529045544.0
2.0,3.0,5.0,14.0,5.0,1.0,1.0,0.0,1650846529045544.0
0.0,-3.0,-6.0,-11.0,-4.0,1.0,0.0,1.0,1650846529062472.0
-4.0,-1.0,4.0,11.0,1.0,0.0,-6.0,0.0,1650846529062472.0
-3.0,-1.0,-10.0,-26.0,-14.0,-8.0,-4.0,-4.0,1650846529063470.0
-1.0,4.0,7.0,21.0,18.0,4.0,-1.0,-1.0,1650846529063470.0
1.0,-3.0,-6.0,-7.0,-4.0,0.0,-5.0,0.0,1650846529076434.0
1.0,2.0,7.0,2.0,0.0,-1.0,-12.0,-4.0,1650846529076434.0
-1.0,1.0,-6.0,-13.0,-5.0,3.0,26.0,5.0,1650846529083484.0
-3.0,-11.0,-4.0,-1.0,-9.0,-9.0,-12.0,0.0,1650846529083484.0
0.0,2.0,2.0,6.0,4.0,2.0,-3.0,-1.0,1650846529099373.0
2.0,6.0,7.0,20.0,5.0,2.0,-6.0,-3.0,1650846529099373.0
1.0,-1.0,-2.0,7.0,4.0,1.0,8.0,3.0,1650846529105387.0
3.0,4.0,0.0,-6.0,-10.0,-2.0,2.0,3.0,1650846529105387.0
5.0,10.0,2.0,-7.0,5.0,1.0,-3.0,2.0,1650846529122439.0
-3.0,-4.0,-1.0,5.0,-4.0,-6.0,-9.0,-6.0,1650846529122439.0
-2.0,-3.0,-2.0,-7.0,-4.0,-3.0,-2.0,0.0,1650846529123419.0
3.0,4.0,-2.0,-3.0,2.0,1.0,2.0,3.0,1650846529123419.0
-3.0,0.0,-2.0,-2.0,-4.0,1.0,1.0,-3.0,1650846529136450.0
10.0,12.0,8.0,3.0,-2.0,1.0,4.0,6.0,1650846529136450.0
-5.0,-5.0,-5.0,-4.0,4.0,1.0,-2.0,-3.0,1650846529144362.0
-1.0,-3.0,-1.0,-7.0,-4.0,-2.0,1.0,-2.0,1650846529144362.0
-3.0,-6.0,2.0,2.0,-4.0,-5.0,-7.0,-2.0,1650846529158352.0
1.0,-2.0,-5.0,-8.0,5.0,3.0,7.0,5.0,1650846529158352.0
2.0,3.0,-2.0,-8.0,-8.0,2.0,10.0,2.0,1650846529165308.0
1.0,4.0,10.0,27.0,20.0,3.0,6.0,3.0,1650846529165308.0
-3.0,-3.0,-7.0,-13.0,-9.0,-1.0,3.0,-1.0,1650846529182329.0
-2.0,-4.0,0.0,3.0,4.0,-2.0,-5.0,-6.0,1650846529182329.0
-1.0,2.0,-2.0,-10.0,-2.0,1.0,-7.0,1.0,1650846529183262.0
4.0,3.0,3.0,-5.0,-6.0,4.0,12.0,6.0,1650846529183262.0
-2.0,-1.0,8.0,26.0,11.0,2.0,2.0,-1.0,1650846529195253.0
-1.0,-5.0,-4.0,-5.0,0.0,0.0,-3.0,4.0,1650846529195253.0
-2.0,2.0,4.0,7.0,-1.0,-4.0,-17.0,-8.0,1650846529204273.0
1.0,3.0,-4.0,-8.0,-3.0,2.0,9.0,1.0,1650846529204273.0
-2.0,-13.0,-5.0,0.0,-1.0,1.0,5.0,9.0,1650846529219324.0
-5.0,-2.0,-2.0,-3.0,-5.0,-3.0,-5.0,-12.0,1650846529219324.0
2.0,-1.0,3.0,10.0,10.0,2.0,12.0,6.0,1650846529225777.0
-1.0,-4.0,-5.0,-3.0,-5.0,0.0,-6.0,0.0,1650846529225777.0
1.0,0.0,-6.0,-12.0,-5.0,-3.0,0.0,2.0,1650846529242437.0
-2.0,-4.0,8.0,19.0,7.0,0.0,-2.0,-4.0,1650846529242437.0
1.0,3.0,-4.0,-8.0,-6.0,-4.0,-12.0,-2.0,1650846529243405.0
-1.0,4.0,0.0,5.0,3.0,0.0,-2.0,-5.0,1650846529243405.0
1.0,1.0,0.0,-7.0,-3.0,0.0,3.0,4.0,1650846529255403.0
-3.0,-5.0,-10.0,-17.0,-5.0,-4.0,4.0,2.0,1650846529255403.0
-1.0,-2.0,4.0,6.0,1.0,2.0,-8.0,-5.0,1650846529264373.0
-2.0,-3.0,0.0,0.0,2.0,-1.0,6.0,4.0,1650846529264373.0
-2.0,2.0,1.0,-4.0,-3.0,0.0,-16.0,-11.0,1650846529279318.0
2.0,2.0,-2.0,-7.0,0.0,-1.0,-6.0,2.0,1650846529279318.0
-3.0,-2.0,3.0,15.0,-4.0,1.0,12.0,1.0,1650846529285327.0
-2.0,-7.0,-6.0,-14.0,-11.0,-3.0,7.0,1.0,1650846529285327.0
1.0,-1.0,-3.0,-8.0,-2.0,-3.0,-11.0,-5.0,1650846529302314.0
-1.0,2.0,-2.0,2.0,4.0,1.0,1.0,1.0,1650846529302314.0
0.0,-2.0,-4.0,-6.0,-3.0,-7.0,-13.0,-2.0,1650846529303245.0
4.0,7.0,7.0,4.0,4.0,3.0,0.0,-1.0,1650846529303245.0
-4.0,-3.0,-3.0,0.0,-2.0,-2.0,1.0,-4.0,1650846529316226.0
0.0,-3.0,-7.0,-11.0,-6.0,-2.0,6.0,4.0,1650846529316226.0
-3.0,0.0,0.0,0.0,-1.0,-3.0,-10.0,-1.0,1650846529324216.0
0.0,2.0,2.0,-1.0,6.0,5.0,2.0,1.0,1650846529324216.0
1.0,0.0,-3.0,4.0,0.0,-3.0,0.0,-2.0,1650846529338776.0
-1.0,-2.0,1.0,6.0,4.0,1.0,-1.0,0.0,1650846529338776.0
4.0,4.0,1.0,-1.0,4.0,7.0,0.0,2.0,1650846529345760.0
-5.0,-5.0,-5.0,-25.0,-13.0,-10.0,-11.0,-5.0,1650846529345760.0
0.0,-1.0,4.0,19.0,2.0,2.0,10.0,4.0,1650846529361714.0
-2.0,-4.0,-7.0,-13.0,-4.0,-2.0,4.0,-2.0,1650846529361714.0
0.0,5.0,2.0,7.0,4.0,3.0,1.0,-1.0,1650846529363682.0
-3.0,-3.0,-2.0,-18.0,-9.0,-7.0,2.0,1.0,1650846529363682.0
-4.0,-7.0,2.0,1.0,-4.0,-4.0,-5.0,-1.0,1650846529375677.0
-1.0,0.0,-2.0,-2.0,2.0,3.0,1.0,-1.0,1650846529375677.0
0.0,-3.0,-4.0,-5.0,-3.0,-4.0,-3.0,-2.0,1650846529384643.0
-2.0,-1.0,2.0,9.0,1.0,0.0,-6.0,-4.0,1650846529384643.0
3.0,3.0,-1.0,1.0,6.0,2.0,29.0,15.0,1650846529398589.0
-6.0,-4.0,2.0,7.0,-4.0,-3.0,-13.0,-9.0,1650846529398589.0
-2.0,-2.0,0.0,-2.0,0.0,0.0,-4.0,-1.0,1650846529405569.0
-1.0,-4.0,-7.0,-8.0,-5.0,-2.0,-6.0,-4.0,1650846529405569.0
4.0,1.0,9.0,29.0,8.0,4.0,10.0,3.0,1650846529421526.0
-2.0,-3.0,1.0,-3.0,-7.0,-5.0,-8.0,-1.0,1650846529421526.0
0.0,0.0,-1.0,-11.0,-2.0,1.0,4.0,2.0,1650846529423522.0
2.0,3.0,4.0,16.0,8.0,3.0,5.0,4.0,1650846529423522.0
-3.0,-2.0,-8.0,-23.0,-8.0,-2.0,-10.0,-16.0,1650846529435767.0
-1.0,-5.0,-5.0,-2.0,-6.0,-3.0,0.0,3.0,1650846529435767.0
3.0,0.0,-1.0,7.0,3.0,-3.0,2.0,0.0,1650846529444711.0
0.0,-2.0,0.0,2.0,0.0,1.0,3.0,-1.0,1650846529444711.0
-3.0,2.0,-2.0,-12.0,-5.0,-5.0,-18.0,-4.0,1650846529458665.0
2.0,7.0,4.0,4.0,7.0,7.0,9.0,5.0,1650846529458665.0
-2.0,0.0,-4.0,-15.0,-6.0,-2.0,5.0,-1.0,1650846529465648.0
-1.0,-1.0,-3.0,3.0,3.0,-1.0,-5.0,-2.0,1650846529465648.0
2.0,2.0,-2.0,-1.0,5.0,4.0,1.0,1.0,1650846529481605.0
-3.0,3.0,4.0,2.0,1.0,-4.0,-9.0,-5.0,1650846529481605.0
1.0,-4.0,-9.0,-9.0,-3.0,-1.0,16.0,9.0,1650846529488624.0
0.0,0.0,3.0,8.0,4.0,4.0,-7.0,-8.0,1650846529488624.0
-3.0,-5.0,-4.0,-5.0,-8.0,-4.0,-7.0,-3.0,1650846529504560.0
5.0,4.0,1.0,2.0,4.0,6.0,6.0,3.0,1650846529504560.0
-2.0,0.0,4.0,4.0,2.0,0.0,-3.0,-2.0,1650846529506578.0
0.0,-1.0,-2.0,1.0,-4.0,-4.0,4.0,4.0,1650846529506578.0
-1.0,-2.0,-1.0,-3.0,-1.0,1.0,-8.0,-2.0,1650846529518622.0
-3.0,-4.0,-4.0,-9.0,-6.0,0.0,7.0,1.0,1650846529518622.0
-2.0,-4.0,1.0,0.0,-4.0,-5.0,-9.0,-1.0,1650846529525640.0
3.0,4.0,2.0,7.0,1.0,0.0,2.0,0.0,1650846529525640.0
-2.0,-4.0,4.0,8.0,1.0,-2.0,-2.0,-1.0,1650846529541583.0
0.0,0.0,-3.0,-5.0,-2.0,2.0,5.0,-1.0,1650846529541583.0
-1.0,1.0,1.0,12.0,2.0,-2.0,-7.0,0.0,1650846529548544.0
0.0,0.0,-1.0,-6.0,1.0,2.0,3.0,-6.0,1650846529548544.0
3.0,2.0,3.0,-5.0,-1.0,0.0,0.0,-1.0,1650846529555526.0
-1.0,-3.0,-4.0,4.0,-2.0,-5.0,-8.0,-2.0,1650846529555526.0
0.0,-2.0,3.0,6.0,4.0,5.0,7.0,2.0,1650846529572480.0
-3.0,-1.0,-1.0,-3.0,-4.0,-2.0,3.0,3.0,1650846529572480.0
-3.0,-1.0,-2.0,-3.0,-3.0,-2.0,-5.0,-3.0,1650846529578463.0
-1.0,0.0,0.0,5.0,7.0,2.0,2.0,-2.0,1650846529578463.0
-1.0,-2.0,-3.0,-1.0,-1.0,-5.0,-14.0,-8.0,1650846529585485.0
-6.0,-6.0,-13.0,-30.0,-11.0,-2.0,15.0,5.0,1650846529585485.0
3.0,4.0,1.0,13.0,8.0,1.0,-13.0,-4.0,1650846529601539.0
1.0,2.0,3.0,11.0,2.0,3.0,6.0,2.0,1650846529601539.0
0.0,-3.0,-2.0,-12.0,-5.0,-1.0,0.0,2.0,1650846529608513.0
-3.0,-1.0,-4.0,-4.0,-1.0,-2.0,-8.0,-5.0,1650846529608513.0
0.0,-1.0,-3.0,-2.0,-5.0,-1.0,6.0,2.0,1650846529615461.0
-2.0,-3.0,1.0,-1.0,2.0,0.0,2.0,-4.0,1650846529615461.0
0.0,3.0,-2.0,6.0,2.0,0.0,-9.0,-4.0,1650846529624447.0
0.0,-2.0,5.0,18.0,1.0,-1.0,-5.0,-3.0,1650846529624447.0
2.0,1.0,2.0,7.0,10.0,2.0,19.0,10.0,1650846529638439.0
-5.0,-8.0,-4.0,-8.0,-11.0,-7.0,-17.0,-5.0,1650846529638439.0
2.0,3.0,1.0,1.0,-1.0,2.0,4.0,1.0,1650846529645387.0
-1.0,1.0,-2.0,3.0,2.0,-2.0,-2.0,0.0,1650846529645387.0
-2.0,1.0,3.0,2.0,2.0,2.0,3.0,1.0,1650846529661364.0
-1.0,-2.0,0.0,0.0,-5.0,-3.0,-11.0,-2.0,1650846529661364.0
0.0,-5.0,-2.0,-8.0,0.0,0.0,8.0,1.0,1650846529668332.0
1.0,-3.0,-2.0,1.0,2.0,3.0,2.0,2.0,1650846529668332.0
3.0,3.0,-1.0,-11.0,-6.0,2.0,11.0,4.0,1650846529684344.0
0.0,6.0,2.0,7.0,6.0,2.0,1.0,-3.0,1650846529684344.0
0.0,0.0,-2.0,-6.0,-6.0,-2.0,-8.0,-1.0,1650846529686304.0
0.0,-1.0,0.0,10.0,1.0,0.0,-5.0,-1.0,1650846529686304.0
-3.0,-2.0,-1.0,-14.0,-2.0,3.0,-2.0,-8.0,1650846529699247.0
5.0,2.0,1.0,2.0,3.0,4.0,13.0,8.0,1650846529699247.0
0.0,-3.0,0.0,0.0,-1.0,-3.0,1.0,-4.0,1650846529705250.0
2.0,2.0,-2.0,-4.0,1.0,-3.0,4.0,3.0,1650846529705250.0
-3.0,0.0,6.0,24.0,3.0,-3.0,-9.0,-4.0,1650846529721205.0
-1.0,-3.0,-5.0,-11.0,-4.0,-1.0,5.0,0.0,1650846529721205.0
-1.0,-1.0,4.0,-4.0,-3.0,0.0,-4.0,-2.0,1650846529728187.0
0.0,4.0,0.0,8.0,8.0,6.0,4.0,-1.0,1650846529728187.0
-3.0,-1.0,-4.0,-10.0,-4.0,-8.0,-18.0,-6.0,1650846529744367.0
-5.0,-8.0,-6.0,-4.0,-4.0,-1.0,9.0,3.0,1650846529744367.0
1.0,3.0,-6.0,-9.0,-4.0,-1.0,3.0,-2.0,1650846529746353.0
-3.0,-6.0,1.0,-7.0,-8.0,-4.0,-5.0,-7.0,1650846529746353.0
-3.0,-4.0,-8.0,-8.0,-6.0,-3.0,-7.0,-3.0,1650846529759298.0
-1.0,0.0,2.0,-2.0,1.0,-1.0,2.0,3.0,1650846529759298.0
5.0,2.0,3.0,8.0,4.0,4.0,15.0,8.0,1650846529765281.0
-4.0,-5.0,-2.0,6.0,0.0,3.0,1.0,0.0,1650846529765281.0
0.0,-2.0,-2.0,-5.0,-4.0,-2.0,-1.0,0.0,1650846529781238.0
-1.0,0.0,-5.0,-24.0,-6.0,-3.0,-2.0,0.0,1650846529781238.0
-4.0,-1.0,1.0,13.0,1.0,-3.0,-17.0,-6.0,1650846529788353.0
2.0,2.0,4.0,5.0,3.0,3.0,10.0,4.0,1650846529788353.0
1.0,2.0,-1.0,-7.0,-4.0,1.0,-7.0,-2.0,1650846529804375.0
0.0,0.0,-1.0,11.0,5.0,3.0,-1.0,-5.0,1650846529804375.0
-1.0,-2.0,-3.0,-7.0,-8.0,-3.0,-1.0,0.0,1650846529806332.0
0.0,-2.0,1.0,-8.0,-2.0,-3.0,-1.0,1.0,1650846529806332.0
-1.0,0.0,-2.0,-2.0,4.0,1.0,2.0,-2.0,1650846529819324.0
1.0,-4.0,-4.0,0.0,-6.0,-5.0,-3.0,-2.0,1650846529819324.0
-2.0,2.0,5.0,12.0,11.0,6.0,-1.0,-1.0,1650846529825743.0
-1.0,-1.0,0.0,-5.0,-4.0,-2.0,-1.0,2.0,1650846529825743.0
2.0,1.0,0.0,5.0,0.0,1.0,4.0,6.0,1650846529841810.0
-1.0,2.0,2.0,-7.0,0.0,-5.0,1.0,0.0,1650846529841810.0
2.0,1.0,5.0,19.0,6.0,5.0,13.0,4.0,1650846529847790.0
-2.0,-4.0,-3.0,-17.0,-8.0,-3.0,-10.0,-3.0,1650846529847790.0
-1.0,-3.0,0.0,-1.0,-3.0,-1.0,2.0,1.0,1650846529864750.0
4.0,6.0,0.0,6.0,5.0,6.0,16.0,5.0,1650846529864750.0
-4.0,-2.0,-1.0,-4.0,1.0,-2.0,-9.0,-5.0,1650846529865755.0
0.0,-1.0,4.0,11.0,3.0,3.0,7.0,1.0,1650846529865755.0
-1.0,-1.0,0.0,-2.0,-1.0,-4.0,0.0,-2.0,1650846529878737.0
-1.0,0.0,-1.0,5.0,0.0,0.0,-2.0,-1.0,1650846529878737.0
-4.0,-2.0,-5.0,-11.0,-7.0,-5.0,-8.0,-6.0,1650846529885755.0
2.0,-2.0,1.0,1.0,2.0,3.0,19.0,6.0,1650846529885755.0
-2.0,-3.0,-8.0,-11.0,-6.0,-6.0,-20.0,-5.0,1650846529901714.0
-2.0,1.0,3.0,4.0,4.0,-1.0,-1.0,-1.0,1650846529901714.0
-1.0,-3.0,-5.0,-4.0,-3.0,-3.0,-9.0,-1.0,1650846529907661.0
3.0,4.0,-1.0,-5.0,1.0,0.0,7.0,6.0,1650846529907661.0
-1.0,2.0,2.0,3.0,1.0,-1.0,0.0,-1.0,1650846529924586.0
-1.0,-2.0,0.0,-1.0,-2.0,-2.0,-7.0,-4.0,1650846529924586.0
0.0,2.0,-2.0,-6.0,-4.0,-2.0,1.0,1.0,1650846529926593.0
-3.0,0.0,0.0,4.0,2.0,-1.0,-6.0,-4.0,1650846529926593.0
0.0,-1.0,-1.0,0.0,1.0,1.0,9.0,3.0,1650846529938827.0
-1.0,-2.0,-1.0,6.0,1.0,1.0,-2.0,-1.0,1650846529938827.0
1.0,-1.0,2.0,0.0,0.0,2.0,2.0,0.0,1650846529945837.0
-1.0,3.0,-1.0,5.0,4.0,1.0,-7.0,0.0,1650846529945837.0
1.0,0.0,0.0,7.0,2.0,2.0,3.0,1.0,1650846529961795.0
-1.0,-1.0,1.0,-7.0,-3.0,-1.0,-5.0,-3.0,1650846529961795.0
3.0,2.0,1.0,2.0,2.0,4.0,6.0,2.0,1650846529968599.0
-2.0,-2.0,-2.0,0.0,-4.0,-4.0,-9.0,-3.0,1650846529968599.0
-1.0,-1.0,-3.0,0.0,0.0,3.0,4.0,-2.0,1650846529984199.0
-1.0,3.0,2.0,4.0,2.0,1.0,1.0,1.0,1650846529984199.0
0.0,-3.0,-2.0,-2.0,-1.0,-5.0,2.0,-1.0,1650846529986191.0
-2.0,-3.0,-4.0,-2.0,-3.0,-7.0,-9.0,-4.0,1650846529986191.0
1.0,-2.0,3.0,5.0,4.0,-3.0,3.0,1.0,1650846529999165.0
0.0,0.0,-3.0,-3.0,-2.0,10.0,5.0,0.0,1650846529999165.0
-3.0,-5.0,-1.0,1.0,0.0,-8.0,-5.0,-3.0,1650846530006138.0
-2.0,1.0,-1.0,0.0,-1.0,1.0,-2.0,-6.0,1650846530006138.0
4.0,2.0,3.0,1.0,-1.0,-7.0,1.0,4.0,1650846530021172.0
-3.0,-3.0,-6.0,2.0,0.0,0.0,0.0,3.0,1650846530021172.0
-15.0,-15.0,-11.0,-6.0,2.0,9.0,7.0,-8.0,1650846530028111.0
0.0,9.0,14.0,1.0,-3.0,-9.0,-8.0,-7.0,1650846530028111.0
0.0,-1.0,8.0,-1.0,-6.0,-9.0,-7.0,1.0,1650846530044106.0
11.0,7.0,36.0,11.0,7.0,1.0,-4.0,2.0,1650846530044106.0
17.0,37.0,19.0,30.0,5.0,12.0,10.0,10.0,1650846530046101.0
-14.0,-38.0,-53.0,-38.0,-14.0,-9.0,0.0,0.0,1650846530046101.0
9.0,10.0,15.0,8.0,7.0,6.0,2.0,2.0,1650846530058069.0
-1.0,11.0,23.0,14.0,-1.0,-8.0,-6.0,-1.0,1650846530058069.0
5.0,-8.0,-6.0,-1.0,1.0,0.0,0.0,5.0,1650846530067652.0
3.0,17.0,29.0,14.0,7.0,4.0,2.0,2.0,1650846530067652.0
7.0,-6.0,-30.0,-9.0,-2.0,2.0,1.0,5.0,1650846530081617.0
-23.0,-26.0,-32.0,-13.0,-7.0,-3.0,-3.0,-13.0,1650846530081617.0
5.0,26.0,39.0,4.0,-6.0,-7.0,0.0,9.0,1650846530088619.0
-7.0,-17.0,-26.0,-6.0,-2.0,0.0,-3.0,-3.0,1650846530088619.0
-5.0,-1.0,18.0,8.0,3.0,7.0,2.0,-2.0,1650846530104565.0
4.0,-2.0,-20.0,1.0,3.0,4.0,1.0,-2.0,1650846530104565.0
-5.0,-5.0,-23.0,-9.0,-3.0,-5.0,-2.0,4.0,1650846530106571.0
-17.0,-11.0,19.0,-5.0,-6.0,-1.0,-3.0,-11.0,1650846530106571.0
5.0,16.0,21.0,11.0,2.0,4.0,3.0,-1.0,1650846530118558.0
1.0,-20.0,-32.0,-12.0,-6.0,-3.0,-2.0,2.0,1650846530118558.0
0.0,7.0,37.0,3.0,-1.0,-4.0,-3.0,-2.0,1650846530127528.0
17.0,9.0,-56.0,4.0,6.0,3.0,3.0,10.0,1650846530127528.0
-11.0,-4.0,45.0,17.0,1.0,5.0,5.0,-8.0,1650846530140986.0
-6.0,-2.0,-42.0,-37.0,-13.0,-8.0,-10.0,-6.0,1650846530140986.0
-5.0,5.0,20.0,23.0,4.0,-2.0,0.0,-8.0,1650846530147973.0
6.0,5.0,26.0,3.0,3.0,5.0,1.0,6.0,1650846530147973.0
2.0,4.0,-33.0,1.0,-2.0,-2.0,1.0,0.0,1650846530164927.0
6.0,5.0,30.0,12.0,6.0,1.0,1.0,5.0,1650846530164927.0
-17.0,-23.0,-14.0,-11.0,-4.0,-2.0,-7.0,-17.0,1650846530165901.0
11.0,11.0,13.0,1.0,-4.0,1.0,0.0,4.0,1650846530165901.0
-11.0,-10.0,-26.0,-12.0,0.0,-2.0,0.0,-4.0,1650846530177868.0
3.0,5.0,27.0,7.0,1.0,0.0,2.0,4.0,1650846530177868.0
-5.0,-16.0,-31.0,-13.0,-2.0,-1.0,-2.0,-2.0,1650846530186870.0
-1.0,1.0,20.0,10.0,1.0,3.0,1.0,0.0,1650846530186870.0
-13.0,10.0,2.0,-8.0,-2.0,-5.0,-2.0,-9.0,1650846530201886.0
4.0,-15.0,-5.0,2.0,0.0,0.0,0.0,2.0,1650846530201886.0
3.0,6.0,13.0,-3.0,0.0,4.0,0.0,-4.0,1650846530207787.0
-14.0,-23.0,-24.0,0.0,-7.0,-9.0,-3.0,10.0,1650846530207787.0
25.0,25.0,18.0,-1.0,4.0,6.0,-1.0,5.0,1650846530231743.0
-10.0,-21.0,-48.0,-17.0,-6.0,-5.0,-2.0,-2.0,1650846530231743.0
-1.0,13.0,2.0,10.0,1.0,0.0,0.0,-2.0,1650846530233719.0
8.0,2.0,-4.0,-4.0,4.0,5.0,2.0,-7.0,1650846530233719.0
-8.0,-23.0,-15.0,-10.0,-5.0,-4.0,-1.0,12.0,1650846530237735.0
-11.0,11.0,46.0,12.0,-1.0,-1.0,-4.0,-13.0,1650846530237735.0
3.0,-12.0,-24.0,-12.0,3.0,2.0,2.0,5.0,1650846530246682.0
2.0,5.0,3.0,2.0,-2.0,-1.0,0.0,-1.0,1650846530246682.0
-6.0,-5.0,-4.0,-2.0,-1.0,-2.0,-4.0,-5.0,1650846530261670.0
10.0,13.0,1.0,5.0,5.0,5.0,3.0,1.0,1650846530261670.0
4.0,-2.0,-1.0,-4.0,-3.0,-1.0,1.0,3.0,1650846530267746.0
0.0,14.0,8.0,8.0,2.0,-2.0,-1.0,-2.0,1650846530267746.0
0.0,-11.0,-11.0,-5.0,-1.0,4.0,2.0,0.0,1650846530284705.0
1.0,4.0,1.0,-1.0,-2.0,0.0,2.0,1.0,1650846530284705.0
3.0,-6.0,-5.0,-3.0,-2.0,-3.0,-1.0,3.0,1650846530285700.0
-3.0,0.0,6.0,5.0,5.0,5.0,-1.0,1.0,1650846530285700.0
-2.0,-10.0,-10.0,-14.0,-8.0,-3.0,-2.0,-1.0,1650846530298665.0
1.0,10.0,-3.0,14.0,3.0,1.0,-1.0,-1.0,1650846530298665.0
-5.0,-15.0,-22.0,-10.0,-4.0,-2.0,-3.0,0.0,1650846530306673.0
0.0,8.0,10.0,-8.0,-1.0,1.0,0.0,-1.0,1650846530306673.0
1.0,8.0,18.0,5.0,-2.0,-3.0,0.0,-2.0,1650846530321702.0
-3.0,4.0,3.0,1.0,0.0,0.0,0.0,0.0,1650846530321702.0
10.0,0.0,-6.0,-3.0,0.0,0.0,2.0,7.0,1650846530327686.0
0.0,-5.0,5.0,4.0,0.0,-1.0,1.0,-5.0,1650846530327686.0
-2.0,-5.0,-10.0,-1.0,-2.0,1.0,0.0,1.0,1650846530366592.0
3.0,1.0,4.0,-2.0,-1.0,1.0,-1.0,7.0,1650846530366592.0
-12.0,-5.0,-1.0,1.0,0.0,0.0,-2.0,-17.0,1650846530374560.0
-5.0,-5.0,-6.0,-3.0,-4.0,-6.0,-2.0,-3.0,1650846530374560.0
0.0,2.0,-10.0,3.0,2.0,2.0,0.0,0.0,1650846530381542.0
4.0,6.0,11.0,0.0,-1.0,-1.0,1.0,0.0,1650846530381542.0
-1.0,2.0,0.0,-1.0,0.0,0.0,0.0,1.0,1650846530382540.0
1.0,-2.0,2.0,0.0,-5.0,0.0,-3.0,0.0,1650846530382540.0
-1.0,-1.0,-4.0,1.0,-2.0,-1.0,-1.0,-1.0,1650846530388551.0
0.0,-2.0,-8.0,-3.0,-1.0,-2.0,-1.0,-4.0,1650846530388551.0
0.0,-1.0,13.0,-3.0,-4.0,-1.0,0.0,2.0,1650846530389524.0
-3.0,-3.0,-17.0,5.0,1.0,-2.0,-1.0,-2.0,1650846530389524.0
4.0,2.0,8.0,2.0,0.0,3.0,2.0,4.0,1650846530404614.0
-4.0,-2.0,-5.0,-2.0,2.0,0.0,0.0,-1.0,1650846530404614.0
2.0,3.0,4.0,0.0,-2.0,0.0,1.0,1.0,1650846530406569.0
2.0,5.0,-1.0,-5.0,2.0,2.0,0.0,1.0,1650846530406569.0
-2.0,-9.0,-14.0,0.0,-2.0,-2.0,-1.0,0.0,1650846530426519.0
-1.0,4.0,12.0,5.0,0.0,-1.0,-3.0,1.0,1650846530426519.0
0.0,5.0,0.0,-2.0,-1.0,-1.0,-1.0,0.0,1650846530434498.0
0.0,-2.0,6.0,-1.0,0.0,-2.0,-3.0,-1.0,1650846530434498.0
-4.0,-10.0,-14.0,-4.0,-1.0,-8.0,-6.0,-2.0,1650846530449450.0
-3.0,-2.0,1.0,-4.0,-2.0,0.0,0.0,2.0,1650846530449450.0
3.0,2.0,-5.0,2.0,-1.0,2.0,0.0,1.0,1650846530451471.0
2.0,-1.0,-3.0,-4.0,-3.0,-2.0,1.0,0.0,1650846530451471.0
-3.0,-3.0,1.0,-4.0,-2.0,1.0,1.0,-1.0,1650846530463440.0
2.0,2.0,10.0,3.0,2.0,-2.0,1.0,-1.0,1650846530463440.0
-4.0,-7.0,-16.0,0.0,4.0,2.0,0.0,1.0,1650846530470460.0
1.0,3.0,5.0,0.0,0.0,-1.0,-1.0,-2.0,1650846530470460.0
1.0,3.0,0.0,0.0,-1.0,-1.0,-1.0,-2.0,1650846530478402.0
0.0,-3.0,-5.0,-2.0,-3.0,-2.0,-1.0,0.0,1650846530478402.0
0.0,-4.0,-6.0,-1.0,-1.0,-1.0,-2.0,2.0,1650846530487348.0
-1.0,2.0,11.0,1.0,-1.0,1.0,-2.0,-3.0,1650846530487348.0
-2.0,1.0,1.0,0.0,2.0,2.0,-1.0,-1.0,1650846530501378.0
0.0,-3.0,-9.0,-4.0,-2.0,-3.0,-1.0,-1.0,1650846530501378.0
-1.0,-5.0,3.0,-2.0,-3.0,-4.0,-2.0,-1.0,1650846530508312.0
-2.0,-4.0,-2.0,3.0,2.0,-1.0,0.0,-2.0,1650846530508312.0
0.0,0.0,-2.0,-4.0,-4.0,-1.0,-2.0,0.0,1650846530523392.0
-3.0,0.0,-4.0,0.0,1.0,1.0,1.0,0.0,1650846530523392.0
-1.0,-1.0,-2.0,-3.0,2.0,-2.0,-3.0,-2.0,1650846530538352.0
0.0,2.0,7.0,8.0,1.0,1.0,-1.0,0.0,1650846530538352.0
-3.0,-5.0,-5.0,-9.0,-5.0,-5.0,0.0,-1.0,1650846530539330.0
0.0,1.0,1.0,3.0,2.0,3.0,-1.0,1.0,1650846530539330.0
2.0,1.0,-6.0,-2.0,3.0,2.0,1.0,-1.0,1650846530547301.0
-1.0,-2.0,6.0,6.0,1.0,-2.0,1.0,0.0,1650846530547301.0
0.0,-2.0,-2.0,-2.0,-1.0,-1.0,-3.0,-2.0,1650846530561262.0
-3.0,-3.0,-8.0,-6.0,-4.0,-5.0,-2.0,-1.0,1650846530561262.0
1.0,0.0,1.0,-2.0,-4.0,0.0,1.0,-2.0,1650846530568312.0
0.0,-2.0,-7.0,-6.0,-3.0,0.0,-3.0,1.0,1650846530568312.0
-1.0,0.0,0.0,2.0,1.0,0.0,0.0,-1.0,1650846530584230.0
1.0,1.0,3.0,6.0,-1.0,2.0,-1.0,2.0,1650846530584230.0
-1.0,-2.0,-1.0,-4.0,-2.0,-3.0,-3.0,-1.0,1650846530590186.0
0.0,-2.0,-7.0,-7.0,-1.0,0.0,1.0,-1.0,1650846530590186.0
-1.0,1.0,-2.0,-4.0,-3.0,-2.0,-1.0,-2.0,1650846530607140.0
1.0,-2.0,-2.0,5.0,4.0,-1.0,0.0,-1.0,1650846530607140.0
1.0,2.0,13.0,15.0,10.0,4.0,0.0,5.0,1650846530608137.0
1.0,3.0,-5.0,-3.0,-4.0,-2.0,-1.0,-1.0,1650846530608137.0
-3.0,-7.0,5.0,-2.0,0.0,-4.0,-1.0,-1.0,1650846530622091.0
-2.0,0.0,-2.0,-6.0,-3.0,0.0,0.0,1.0,1650846530622091.0
3.0,-2.0,-9.0,-2.0,-2.0,-1.0,2.0,-3.0,1650846530628103.0
-3.0,-1.0,6.0,-2.0,-2.0,0.0,1.0,2.0,1650846530628103.0
0.0,1.0,-3.0,-2.0,1.0,3.0,-3.0,3.0,1650846530644142.0
0.0,-2.0,1.0,-1.0,1.0,0.0,-2.0,-3.0,1650846530644142.0
-1.0,1.0,3.0,-2.0,0.0,-1.0,0.0,0.0,1650846530651134.0
0.0,-3.0,-7.0,-6.0,-3.0,0.0,0.0,1.0,1650846530651134.0
0.0,1.0,4.0,19.0,11.0,1.0,2.0,1.0,1650846530667085.0
-2.0,-1.0,0.0,-6.0,-5.0,-2.0,-1.0,-1.0,1650846530667085.0
-2.0,1.0,-2.0,-2.0,-6.0,0.0,-2.0,0.0,1650846530669076.0
1.0,-3.0,-8.0,-6.0,0.0,-2.0,0.0,-2.0,1650846530669076.0
-1.0,8.0,10.0,2.0,-1.0,2.0,2.0,-1.0,1650846530681071.0
-1.0,-4.0,-4.0,0.0,-3.0,-1.0,2.0,-4.0,1650846530681071.0
-2.0,-3.0,-3.0,2.0,1.0,-3.0,-2.0,-1.0,1650846530688094.0
0.0,-1.0,-3.0,0.0,0.0,-2.0,-1.0,-1.0,1650846530688094.0
-1.0,-4.0,-1.0,-3.0,-3.0,0.0,1.0,0.0,1650846530703842.0
-1.0,-1.0,-8.0,-2.0,0.0,-1.0,-1.0,1.0,1650846530703842.0
1.0,1.0,2.0,-5.0,-4.0,-2.0,2.0,0.0,1650846530710854.0
1.0,2.0,2.0,4.0,3.0,0.0,1.0,-1.0,1650846530710854.0
-1.0,-1.0,-5.0,-4.0,-5.0,-2.0,-1.0,-2.0,1650846530726520.0
-1.0,-2.0,-1.0,-4.0,-1.0,0.0,0.0,0.0,1650846530726520.0
-1.0,-1.0,3.0,2.0,1.0,1.0,-2.0,-2.0,1650846530728514.0
-2.0,1.0,2.0,-2.0,2.0,1.0,-2.0,-1.0,1650846530728514.0
0.0,-2.0,-1.0,-2.0,-1.0,-2.0,0.0,1.0,1650846530741480.0
0.0,-1.0,0.0,-4.0,-5.0,-2.0,1.0,0.0,1650846530741480.0
0.0,-1.0,4.0,4.0,-1.0,-1.0,-1.0,-1.0,1650846530748490.0
-3.0,-4.0,-4.0,-4.0,-5.0,0.0,-2.0,0.0,1650846530748490.0
-1.0,-2.0,1.0,3.0,2.0,0.0,-1.0,-2.0,1650846530763449.0
0.0,2.0,-1.0,-8.0,-1.0,-2.0,-3.0,3.0,1650846530763449.0
-1.0,-3.0,-2.0,2.0,0.0,1.0,0.0,0.0,1650846530770471.0
-2.0,-2.0,0.0,0.0,-2.0,0.0,1.0,-1.0,1650846530770471.0
0.0,-4.0,-9.0,-6.0,-2.0,2.0,1.0,-1.0,1650846530787426.0
-1.0,3.0,6.0,6.0,0.0,1.0,-2.0,1.0,1650846530787426.0
-1.0,-1.0,-10.0,0.0,2.0,0.0,0.0,1.0,1650846530788355.0
0.0,-1.0,5.0,5.0,1.0,-3.0,0.0,0.0,1650846530788355.0
0.0,3.0,4.0,1.0,-1.0,1.0,1.0,-1.0,1650846530801320.0
-2.0,-5.0,-6.0,-1.0,-1.0,-3.0,0.0,0.0,1650846530801320.0
1.0,1.0,2.0,-1.0,-2.0,2.0,2.0,-3.0,1650846530808330.0
1.0,-2.0,-2.0,0.0,1.0,0.0,-2.0,1.0,1650846530808330.0
-2.0,-4.0,-4.0,-2.0,0.0,-6.0,-2.0,1.0,1650846530824258.0
1.0,0.0,4.0,2.0,3.0,1.0,-1.0,0.0,1650846530824258.0
-2.0,-2.0,-5.0,-3.0,0.0,-2.0,0.0,-1.0,1650846530830312.0
0.0,-1.0,3.0,4.0,-1.0,1.0,-1.0,0.0,1650846530830312.0
1.0,-2.0,-2.0,1.0,-1.0,1.0,0.0,0.0,1650846530847371.0
0.0,2.0,-4.0,2.0,-2.0,0.0,-1.0,-3.0,1650846530847371.0
-1.0,-1.0,-3.0,-4.0,-3.0,-1.0,-2.0,-2.0,1650846530848369.0
-1.0,2.0,7.0,1.0,-2.0,-3.0,0.0,1.0,1650846530848369.0
0.0,-1.0,-3.0,6.0,-3.0,-1.0,0.0,-1.0,1650846530861363.0
2.0,0.0,-1.0,-4.0,3.0,3.0,2.0,0.0,1650846530861363.0
-1.0,-2.0,4.0,5.0,1.0,-1.0,-1.0,1.0,1650846530875327.0
-3.0,-6.0,-9.0,-5.0,-1.0,0.0,0.0,0.0,1650846530875327.0
0.0,-1.0,2.0,-2.0,-3.0,-1.0,1.0,-1.0,1650846530884282.0
-2.0,-1.0,-1.0,1.0,2.0,0.0,-1.0,-2.0,1650846530884282.0
-1.0,2.0,7.0,-1.0,-3.0,0.0,-4.0,2.0,1650846530890257.0
-1.0,1.0,-1.0,-1.0,-1.0,-1.0,-2.0,-1.0,1650846530890257.0
2.0,3.0,1.0,2.0,3.0,3.0,0.0,0.0,1650846530907242.0
-2.0,-5.0,-6.0,-2.0,-3.0,-3.0,-1.0,0.0,1650846530907242.0
-2.0,-1.0,-1.0,-2.0,1.0,0.0,0.0,-1.0,1650846530909207.0
