EMG_s0,EMG_s1,EMG_s2,EMG_s3,EMG_s4,EMG_s5,EMG_s6,EMG_s7,timestamp
-4.0,-19.0,-4.0,7.0,-4.0,-11.0,-7.0,2.0,1650846767607750.0
-1.0,21.0,22.0,-3.0,8.0,23.0,13.0,-5.0,1650846767607750.0
-2.0,-1.0,-4.0,-5.0,-5.0,-4.0,-2.0,-2.0,1650846767607750.0
0.0,-7.0,-7.0,-1.0,-5.0,-8.0,-4.0,2.0,1650846767607750.0
-1.0,0.0,-3.0,1.0,1.0,0.0,0.0,-1.0,1650846767608747.0
1.0,-3.0,-3.0,3.0,-2.0,-5.0,-5.0,0.0,1650846767608747.0
0.0,-4.0,-2.0,1.0,1.0,-2.0,-1.0,0.0,1650846767609744.0
-1.0,0.0,5.0,3.0,4.0,4.0,-1.0,-3.0,1650846767609744.0
0.0,6.0,6.0,0.0,0.0,3.0,3.0,-1.0,1650846767620745.0
-3.0,-8.0,-9.0,-2.0,-2.0,-5.0,-2.0,0.0,1650846767620745.0
-2.0,-1.0,2.0,2.0,1.0,3.0,2.0,-3.0,1650846767628697.0
-3.0,-1.0,1.0,-3.0,-1.0,4.0,1.0,-1.0,1650846767628697.0
-2.0,1.0,0.0,0.0,0.0,1.0,0.0,-1.0,1650846767635675.0
-1.0,-2.0,-1.0,4.0,-1.0,-5.0,-2.0,-1.0,1650846767635675.0
-2.0,1.0,2.0,-2.0,0.0,3.0,0.0,0.0,1650846767650359.0
3.0,4.0,3.0,5.0,3.0,3.0,2.0,-1.0,1650846767650359.0
-1.0,-3.0,-10.0,-11.0,-3.0,1.0,1.0,-3.0,1650846767660393.0
-2.0,-3.0,2.0,0.0,-2.0,-3.0,-1.0,1.0,1650846767660393.0
-2.0,-1.0,0.0,3.0,1.0,-1.0,1.0,-3.0,1650846767674337.0
0.0,3.0,2.0,1.0,-2.0,-2.0,-2.0,0.0,1650846767674337.0
0.0,1.0,-1.0,0.0,-1.0,0.0,-1.0,0.0,1650846767681323.0
-1.0,-4.0,-3.0,-2.0,-1.0,-2.0,-1.0,-2.0,1650846767681323.0
1.0,1.0,-1.0,-1.0,0.0,-1.0,-1.0,-1.0,1650846767696307.0
1.0,0.0,-1.0,-1.0,1.0,-1.0,0.0,-1.0,1650846767696307.0
2.0,-5.0,-16.0,-7.0,-5.0,-7.0,-4.0,1.0,1650846767735838.0
-2.0,-7.0,-3.0,-4.0,-4.0,-4.0,-4.0,1.0,1650846767735838.0
-2.0,7.0,7.0,-1.0,2.0,5.0,3.0,-3.0,1650846767736836.0
-2.0,-5.0,-2.0,0.0,0.0,-6.0,-2.0,1.0,1650846767736836.0
-1.0,-3.0,-1.0,2.0,0.0,-1.0,-1.0,1.0,1650846767737833.0
1.0,2.0,1.0,-2.0,0.0,3.0,1.0,-1.0,1650846767737833.0
2.0,-1.0,-2.0,-2.0,-3.0,-1.0,1.0,-1.0,1650846767740824.0
-1.0,-2.0,-2.0,2.0,-2.0,-3.0,-3.0,1.0,1650846767740824.0
-2.0,2.0,4.0,1.0,0.0,1.0,1.0,-1.0,1650846767747806.0
1.0,4.0,1.0,-1.0,0.0,0.0,1.0,-1.0,1650846767747806.0
-2.0,-6.0,-7.0,2.0,-2.0,-8.0,-5.0,1.0,1650846767754807.0
1.0,-1.0,0.0,3.0,1.0,1.0,1.0,-1.0,1650846767754807.0
1.0,2.0,0.0,-7.0,-1.0,2.0,1.0,-2.0,1650846767764761.0
-2.0,-2.0,-4.0,2.0,-2.0,-2.0,-4.0,0.0,1650846767764761.0
-1.0,-2.0,-3.0,0.0,-1.0,-1.0,-2.0,-2.0,1650846767778862.0
-2.0,1.0,2.0,0.0,-1.0,3.0,0.0,-1.0,1650846767778862.0
-2.0,-2.0,0.0,0.0,0.0,-1.0,-2.0,2.0,1650846767785786.0
-1.0,-3.0,-3.0,1.0,2.0,-2.0,0.0,0.0,1650846767785786.0
-1.0,-2.0,-1.0,-3.0,0.0,1.0,-1.0,-1.0,1650846767809383.0
0.0,2.0,0.0,-2.0,-2.0,-1.0,0.0,-2.0,1650846767809383.0
-1.0,-2.0,1.0,0.0,-3.0,-1.0,1.0,0.0,1650846767810380.0
-1.0,2.0,0.0,0.0,-2.0,1.0,-1.0,-1.0,1650846767810380.0
0.0,-1.0,2.0,4.0,2.0,1.0,-1.0,-1.0,1650846767823845.0
0.0,-1.0,-2.0,-2.0,1.0,0.0,-1.0,-2.0,1650846767823845.0
0.0,-1.0,0.0,0.0,0.0,-1.0,1.0,-2.0,1650846767829900.0
-1.0,1.0,-1.0,-2.0,-2.0,-3.0,0.0,0.0,1650846767829900.0
-1.0,-4.0,-3.0,1.0,1.0,0.0,1.0,0.0,1650846767846900.0
0.0,1.0,-1.0,-2.0,-4.0,1.0,0.0,-1.0,1650846767846900.0
0.0,1.0,1.0,0.0,1.0,1.0,1.0,-1.0,1650846767847900.0
0.0,-2.0,1.0,1.0,-1.0,-3.0,0.0,0.0,1650846767847900.0
-1.0,0.0,0.0,-1.0,-1.0,1.0,-1.0,0.0,1650846767869575.0
-1.0,-4.0,-3.0,-2.0,1.0,-1.0,0.0,-1.0,1650846767869575.0
0.0,1.0,-1.0,4.0,1.0,2.0,1.0,-1.0,1650846767870754.0
-1.0,-2.0,2.0,-3.0,0.0,0.0,1.0,-1.0,1650846767870754.0
-3.0,-2.0,-3.0,-2.0,-1.0,-2.0,0.0,-1.0,1650846767883785.0
1.0,-2.0,0.0,-1.0,-1.0,-2.0,0.0,0.0,1650846767883785.0
1.0,0.0,-1.0,0.0,1.0,0.0,-2.0,1.0,1650846767897682.0
0.0,1.0,2.0,2.0,2.0,0.0,1.0,-1.0,1650846767897682.0
-1.0,-1.0,-2.0,-2.0,-1.0,0.0,0.0,0.0,1650846767906724.0
0.0,0.0,-1.0,-2.0,-2.0,-3.0,0.0,-1.0,1650846767906724.0
-1.0,1.0,2.0,1.0,0.0,1.0,-1.0,1.0,1650846767908661.0
0.0,0.0,-6.0,-2.0,-1.0,-2.0,0.0,-1.0,1650846767908661.0
0.0,1.0,7.0,1.0,0.0,-1.0,-2.0,0.0,1650846767928685.0
1.0,1.0,-8.0,-2.0,0.0,2.0,0.0,-1.0,1650846767928685.0
-1.0,-2.0,1.0,-5.0,-1.0,1.0,-2.0,-1.0,1650846767930681.0
-1.0,-1.0,1.0,0.0,1.0,0.0,-1.0,-2.0,1650846767930681.0
1.0,2.0,-4.0,-1.0,-3.0,-1.0,0.0,0.0,1650846767942752.0
-4.0,-3.0,1.0,3.0,1.0,1.0,0.0,0.0,1650846767942752.0
0.0,1.0,-1.0,1.0,0.0,-1.0,0.0,-1.0,1650846767951731.0
-2.0,0.0,-2.0,-1.0,0.0,0.0,-2.0,-1.0,1650846767951731.0
1.0,0.0,0.0,-1.0,-3.0,-1.0,1.0,0.0,1650846767966751.0
-1.0,1.0,1.0,-2.0,-1.0,0.0,0.0,0.0,1650846767966751.0
-2.0,-2.0,2.0,2.0,1.0,-2.0,0.0,0.0,1650846767968719.0
-2.0,-1.0,-2.0,-1.0,-2.0,2.0,-1.0,-1.0,1650846767968719.0
0.0,1.0,2.0,2.0,1.0,1.0,-1.0,-1.0,1650846767989650.0
-1.0,-2.0,-4.0,-1.0,-1.0,1.0,-1.0,-1.0,1650846767989650.0
-1.0,-3.0,0.0,0.0,-1.0,0.0,1.0,-1.0,1650846767990626.0
1.0,-1.0,-1.0,0.0,-2.0,-3.0,0.0,1.0,1650846767990626.0
-1.0,-2.0,1.0,1.0,-3.0,-3.0,-1.0,-1.0,1650846768002713.0
0.0,0.0,-1.0,-2.0,2.0,2.0,-1.0,1.0,1650846768002713.0
0.0,1.0,-1.0,0.0,-1.0,-1.0,-3.0,-3.0,1650846768011692.0
-1.0,-1.0,-1.0,0.0,0.0,1.0,-1.0,-1.0,1650846768011692.0
1.0,-1.0,-8.0,-3.0,-1.0,-1.0,-1.0,-1.0,1650846768026651.0
-2.0,-1.0,5.0,0.0,0.0,-3.0,-2.0,-1.0,1650846768026651.0
-2.0,0.0,-1.0,-5.0,-10.0,-2.0,1.0,0.0,1650846768028646.0
0.0,1.0,3.0,8.0,6.0,2.0,2.0,0.0,1650846768028646.0
-1.0,0.0,-3.0,-1.0,4.0,1.0,-1.0,-2.0,1650846768049611.0
0.0,-2.0,-4.0,-2.0,-2.0,-2.0,3.0,0.0,1650846768049611.0
0.0,-1.0,0.0,-2.0,1.0,-1.0,-1.0,-2.0,1650846768050588.0
-3.0,-1.0,4.0,0.0,-6.0,-4.0,-2.0,-1.0,1650846768050588.0
-1.0,-2.0,1.0,0.0,3.0,-1.0,-1.0,-1.0,1650846768062559.0
1.0,1.0,5.0,0.0,-3.0,0.0,-1.0,-1.0,1650846768062559.0
-1.0,-1.0,-3.0,-2.0,-1.0,-1.0,-1.0,1.0,1650846768071814.0
1.0,0.0,-2.0,-5.0,1.0,2.0,0.0,1.0,1650846768071814.0
-1.0,1.0,0.0,1.0,0.0,2.0,-1.0,0.0,1650846768086841.0
0.0,0.0,0.0,-3.0,-5.0,-1.0,-1.0,-2.0,1650846768086841.0
3.0,1.0,1.0,2.0,-3.0,-2.0,0.0,1.0,1650846768087772.0
-1.0,-2.0,2.0,0.0,0.0,0.0,0.0,-3.0,1650846768087772.0
-1.0,2.0,-2.0,-1.0,1.0,0.0,0.0,-1.0,1650846768108715.0
-2.0,-2.0,-4.0,-1.0,-2.0,-4.0,-1.0,0.0,1650846768108715.0
-2.0,-2.0,-1.0,-1.0,3.0,2.0,0.0,0.0,1650846768110710.0
-1.0,-1.0,-2.0,0.0,2.0,-1.0,-2.0,-1.0,1650846768110710.0
0.0,-2.0,1.0,0.0,-3.0,-2.0,0.0,-1.0,1650846768122677.0
1.0,1.0,-1.0,1.0,2.0,-1.0,1.0,-1.0,1650846768122677.0
-3.0,-2.0,-3.0,0.0,0.0,1.0,-3.0,0.0,1650846768131655.0
-1.0,-4.0,-2.0,-3.0,-3.0,-3.0,-1.0,-1.0,1650846768131655.0
-1.0,-2.0,-2.0,-4.0,-5.0,-4.0,0.0,0.0,1650846768146641.0
-1.0,-2.0,-1.0,-1.0,0.0,2.0,0.0,-1.0,1650846768146641.0
1.0,4.0,7.0,5.0,0.0,-3.0,-1.0,-4.0,1650846768148609.0
-1.0,-1.0,-2.0,0.0,-1.0,0.0,0.0,-1.0,1650846768148609.0
0.0,-4.0,-6.0,-4.0,0.0,2.0,1.0,0.0,1650846768169325.0
-1.0,0.0,4.0,1.0,1.0,-2.0,-1.0,2.0,1650846768169325.0
0.0,1.0,-4.0,0.0,-4.0,-3.0,-1.0,1.0,1650846768175559.0
0.0,2.0,4.0,2.0,-2.0,0.0,-1.0,-2.0,1650846768175559.0
-2.0,-3.0,-4.0,-6.0,0.0,0.0,0.0,-2.0,1650846768183170.0
-1.0,-1.0,-4.0,0.0,2.0,3.0,0.0,0.0,1650846768183170.0
-2.0,-2.0,1.0,-1.0,-1.0,-1.0,-1.0,-1.0,1650846768191754.0
3.0,5.0,3.0,4.0,3.0,-1.0,2.0,2.0,1650846768191754.0
-2.0,-2.0,1.0,-2.0,-5.0,-1.0,-3.0,1.0,1650846768206714.0
-2.0,-4.0,-10.0,-3.0,0.0,-1.0,1.0,-1.0,1650846768206714.0
-3.0,-1.0,-1.0,3.0,3.0,2.0,2.0,-1.0,1650846768207712.0
-1.0,2.0,0.0,-3.0,-3.0,-1.0,0.0,-2.0,1650846768207712.0
1.0,0.0,0.0,1.0,1.0,-1.0,-1.0,0.0,1650846768228716.0
-3.0,-3.0,2.0,-4.0,-8.0,-3.0,-2.0,-1.0,1650846768228716.0
-1.0,-5.0,-22.0,-5.0,-2.0,2.0,0.0,-1.0,1650846768230711.0
0.0,-4.0,-1.0,-4.0,-1.0,1.0,1.0,2.0,1650846768230711.0
1.0,7.0,9.0,7.0,2.0,-4.0,-1.0,0.0,1650846768242699.0
-1.0,-4.0,-9.0,-4.0,-3.0,1.0,-2.0,-2.0,1650846768242699.0
1.0,-1.0,9.0,3.0,5.0,0.0,1.0,2.0,1650846768251656.0
-2.0,-10.0,-32.0,-11.0,-6.0,-6.0,-4.0,-4.0,1650846768251656.0
-2.0,5.0,22.0,4.0,1.0,0.0,1.0,-3.0,1650846768266649.0
1.0,4.0,9.0,5.0,1.0,0.0,-2.0,-1.0,1650846768266649.0
-1.0,0.0,2.0,-2.0,-3.0,-2.0,1.0,-2.0,1650846768268650.0
4.0,7.0,3.0,4.0,4.0,4.0,2.0,3.0,1650846768268650.0
-3.0,0.0,15.0,2.0,-1.0,1.0,-5.0,-3.0,1650846768289594.0
-1.0,-9.0,-31.0,-5.0,0.0,-3.0,0.0,-1.0,1650846768289594.0
2.0,9.0,20.0,3.0,1.0,1.0,1.0,-2.0,1650846768290551.0
-2.0,-9.0,-7.0,1.0,1.0,3.0,1.0,2.0,1650846768290551.0
-2.0,-3.0,2.0,-3.0,-7.0,-3.0,-2.0,-1.0,1650846768311522.0
1.0,7.0,12.0,7.0,4.0,3.0,2.0,0.0,1650846768311522.0
2.0,0.0,-4.0,3.0,6.0,1.0,1.0,1.0,1650846768313490.0
-3.0,1.0,1.0,-4.0,-5.0,-3.0,0.0,0.0,1650846768313490.0
-1.0,-2.0,-12.0,-4.0,-2.0,-5.0,-10.0,-5.0,1650846768326485.0
-1.0,8.0,44.0,7.0,2.0,1.0,1.0,1.0,1650846768326485.0
-4.0,-9.0,-41.0,-6.0,-4.0,-2.0,-3.0,-4.0,1650846768328450.0
2.0,1.0,4.0,1.0,5.0,1.0,4.0,1.0,1650846768328450.0
0.0,-8.0,-9.0,-2.0,1.0,2.0,8.0,5.0,1650846768348799.0
-4.0,1.0,-6.0,-4.0,-2.0,-3.0,-10.0,-6.0,1650846768348799.0
0.0,2.0,9.0,0.0,-4.0,-2.0,0.0,0.0,1650846768350795.0
-1.0,-1.0,-10.0,-2.0,-2.0,-2.0,-3.0,-2.0,1650846768350795.0
3.0,5.0,14.0,4.0,3.0,2.0,7.0,5.0,1650846768371279.0
-2.0,-9.0,-15.0,0.0,0.0,0.0,-3.0,-2.0,1650846768371279.0
-2.0,-3.0,8.0,-4.0,-1.0,-2.0,-3.0,2.0,1650846768373214.0
-1.0,2.0,-5.0,-2.0,-1.0,-1.0,-1.0,-2.0,1650846768373214.0
3.0,3.0,-4.0,-3.0,0.0,0.0,2.0,1.0,1650846768386241.0
1.0,2.0,3.0,8.0,1.0,0.0,3.0,1.0,1650846768386241.0
0.0,-4.0,-5.0,-8.0,-5.0,-3.0,-4.0,-2.0,1650846768388172.0
-3.0,-2.0,2.0,3.0,2.0,1.0,-1.0,-2.0,1650846768388172.0
-1.0,3.0,-8.0,3.0,0.0,-1.0,-1.0,0.0,1650846768409111.0
-2.0,-2.0,12.0,-3.0,-3.0,-3.0,-1.0,-5.0,1650846768409111.0
2.0,0.0,-15.0,-2.0,-4.0,0.0,1.0,3.0,1650846768411106.0
0.0,5.0,17.0,5.0,1.0,2.0,-1.0,-1.0,1650846768411106.0
-3.0,-18.0,-11.0,-10.0,-4.0,-1.0,0.0,0.0,1650846768432050.0
0.0,-1.0,-32.0,-8.0,0.0,-1.0,-1.0,-1.0,1650846768432050.0
-2.0,5.0,42.0,10.0,1.0,1.0,8.0,1.0,1650846768433048.0
2.0,2.0,-9.0,-6.0,-2.0,-4.0,-3.0,0.0,1650846768433048.0
-1.0,6.0,-4.0,2.0,-1.0,-2.0,-4.0,-3.0,1650846768447052.0
0.0,-2.0,9.0,-1.0,1.0,3.0,5.0,2.0,1650846768447052.0
-3.0,-3.0,-8.0,-4.0,2.0,-2.0,-4.0,-5.0,1650846768448008.0
1.0,-1.0,10.0,0.0,-2.0,0.0,-2.0,1.0,1650846768448008.0
4.0,5.0,4.0,6.0,3.0,3.0,3.0,1.0,1650846768469550.0
0.0,1.0,1.0,-1.0,-1.0,1.0,0.0,0.0,1650846768469550.0
-1.0,1.0,2.0,5.0,1.0,-2.0,-4.0,-3.0,1650846768470770.0
-1.0,-1.0,6.0,4.0,0.0,1.0,9.0,1.0,1650846768470770.0
-4.0,-1.0,14.0,2.0,-3.0,-8.0,-9.0,-2.0,1650846768491713.0
-3.0,-11.0,-25.0,-9.0,-7.0,-5.0,-4.0,2.0,1650846768491713.0
-2.0,5.0,19.0,-1.0,1.0,1.0,-2.0,0.0,1650846768492725.0
-2.0,-15.0,-41.0,-15.0,-13.0,-5.0,5.0,1.0,1650846768492725.0
-7.0,-5.0,-4.0,-20.0,-15.0,-5.0,-4.0,-10.0,1650846768506700.0
-1.0,-14.0,-18.0,67.0,37.0,9.0,4.0,8.0,1650846768506700.0
7.0,6.0,8.0,-19.0,-13.0,0.0,-1.0,0.0,1650846768508668.0
3.0,39.0,22.0,12.0,-5.0,-2.0,-7.0,-4.0,1650846768508668.0
-9.0,-17.0,13.0,16.0,30.0,10.0,16.0,2.0,1650846768528700.0
1.0,6.0,12.0,-17.0,-19.0,-10.0,-3.0,-1.0,1650846768528700.0
0.0,-16.0,-38.0,-1.0,2.0,-4.0,-2.0,1.0,1650846768530695.0
2.0,5.0,20.0,-13.0,1.0,7.0,-17.0,-5.0,1650846768530695.0
9.0,-7.0,-44.0,-9.0,-10.0,3.0,16.0,14.0,1650846768551643.0
1.0,11.0,33.0,-6.0,0.0,-4.0,-9.0,-8.0,1650846768551643.0
-4.0,4.0,-29.0,-12.0,-12.0,-11.0,-12.0,-7.0,1650846768553634.0
-13.0,-29.0,-17.0,-11.0,-6.0,-7.0,7.0,-3.0,1650846768553634.0
7.0,10.0,30.0,6.0,-5.0,0.0,0.0,6.0,1650846768565602.0
-6.0,-17.0,-67.0,6.0,9.0,1.0,-26.0,-12.0,1650846768565602.0
0.0,-10.0,73.0,-12.0,-7.0,7.0,12.0,0.0,1650846768572582.0
-3.0,4.0,-56.0,-25.0,-5.0,2.0,4.0,3.0,1650846768572582.0
-11.0,11.0,-5.0,49.0,49.0,12.0,2.0,-10.0,1650846768589538.0
3.0,-18.0,-27.0,-53.0,-42.0,-11.0,40.0,20.0,1650846768589538.0
-8.0,-18.0,4.0,-5.0,8.0,-13.0,-40.0,-17.0,1650846768590535.0
21.0,28.0,15.0,31.0,15.0,23.0,43.0,27.0,1650846768590535.0
-2.0,-57.0,-11.0,-21.0,-32.0,-17.0,-5.0,-3.0,1650846768611478.0
12.0,81.0,-31.0,-20.0,-6.0,-7.0,19.0,9.0,1650846768611478.0
-32.0,-47.0,-23.0,-2.0,-12.0,-18.0,-33.0,-28.0,1650846768613474.0
-1.0,-14.0,25.0,2.0,16.0,12.0,13.0,4.0,1650846768613474.0
19.0,-6.0,-3.0,-20.0,-6.0,10.0,-2.0,15.0,1650846768625441.0
-11.0,-32.0,-13.0,11.0,13.0,-5.0,-53.0,-34.0,1650846768625441.0
-9.0,15.0,-16.0,50.0,3.0,1.0,29.0,12.0,1650846768632423.0
-3.0,-32.0,9.0,-33.0,-24.0,-10.0,10.0,4.0,1650846768632423.0
-12.0,-8.0,-64.0,-27.0,-29.0,-28.0,-65.0,-26.0,1650846768649378.0
6.0,-12.0,65.0,50.0,50.0,40.0,41.0,11.0,1650846768649378.0
26.0,99.0,11.0,-7.0,3.0,1.0,4.0,15.0,1650846768650377.0
-29.0,-46.0,-23.0,9.0,0.0,-22.0,-37.0,-26.0,1650846768650377.0
12.0,-6.0,-19.0,-33.0,0.0,17.0,41.0,21.0,1650846768671798.0
-10.0,15.0,8.0,-3.0,-15.0,-7.0,-23.0,-16.0,1650846768671798.0
17.0,-18.0,13.0,65.0,44.0,16.0,13.0,11.0,1650846768672795.0
0.0,30.0,10.0,17.0,-3.0,-3.0,0.0,-1.0,1650846768672795.0
11.0,43.0,106.0,26.0,9.0,12.0,24.0,12.0,1650846768684785.0
-2.0,-9.0,-17.0,-30.0,-20.0,-11.0,-16.0,-3.0,1650846768684785.0
-6.0,-25.0,-9.0,-19.0,-14.0,-1.0,10.0,-1.0,1650846768693739.0
1.0,13.0,16.0,50.0,34.0,4.0,-33.0,-14.0,1650846768693739.0
-19.0,-24.0,-28.0,-26.0,-11.0,-14.0,-16.0,-19.0,1650846768707702.0
36.0,40.0,19.0,42.0,38.0,41.0,38.0,24.0,1650846768707702.0
-16.0,-15.0,12.0,-48.0,-28.0,-23.0,-29.0,-14.0,1650846768716679.0
6.0,0.0,29.0,9.0,-3.0,5.0,22.0,11.0,1650846768716679.0
-2.0,28.0,-49.0,-47.0,-19.0,-14.0,-23.0,-14.0,1650846768731638.0
-7.0,-13.0,11.0,22.0,7.0,-6.0,7.0,0.0,1650846768731638.0
16.0,12.0,20.0,35.0,16.0,23.0,19.0,18.0,1650846768733637.0
-9.0,-23.0,-4.0,-49.0,-32.0,-31.0,-25.0,-13.0,1650846768733637.0
4.0,33.0,39.0,-39.0,-19.0,-1.0,16.0,8.0,1650846768754362.0
-4.0,-15.0,-24.0,44.0,-7.0,-8.0,1.0,0.0,1650846768754362.0
1.0,-20.0,-8.0,-40.0,-6.0,10.0,14.0,5.0,1650846768755326.0
1.0,22.0,-1.0,-6.0,-1.0,3.0,-6.0,-5.0,1650846768755326.0
-1.0,2.0,-8.0,12.0,-3.0,-4.0,12.0,6.0,1650846768778336.0
-20.0,-23.0,26.0,-44.0,-17.0,-13.0,-14.0,-16.0,1650846768778336.0
10.0,-19.0,-74.0,-2.0,1.0,4.0,22.0,16.0,1650846768779341.0
18.0,35.0,76.0,31.0,33.0,22.0,13.0,10.0,1650846768779341.0
-22.0,-28.0,-67.0,5.0,-6.0,-16.0,-49.0,-32.0,1650846768791331.0
5.0,-3.0,-6.0,-24.0,-9.0,1.0,15.0,9.0,1650846768791331.0
10.0,52.0,29.0,5.0,7.0,5.0,6.0,4.0,1650846768793297.0
2.0,-25.0,-26.0,-29.0,-17.0,-7.0,-1.0,1.0,1650846768793297.0
5.0,13.0,36.0,18.0,11.0,16.0,34.0,16.0,1650846768814260.0
-16.0,-17.0,70.0,-4.0,-5.0,-27.0,-71.0,-29.0,1650846768814260.0
0.0,5.0,37.0,28.0,9.0,11.0,18.0,5.0,1650846768815238.0
5.0,-12.0,-68.0,-62.0,-24.0,-7.0,0.0,3.0,1650846768815238.0
0.0,39.0,47.0,115.0,62.0,25.0,9.0,-1.0,1650846768827233.0
6.0,-19.0,18.0,-30.0,-13.0,-2.0,15.0,15.0,1650846768827233.0
-8.0,-2.0,-6.0,-5.0,-1.0,-7.0,-24.0,-16.0,1650846768837189.0
-3.0,-14.0,-8.0,-14.0,-8.0,-2.0,12.0,8.0,1650846768837189.0
-6.0,-22.0,-8.0,-5.0,-6.0,-13.0,-18.0,-8.0,1650846768851209.0
19.0,30.0,32.0,-31.0,-17.0,14.0,46.0,24.0,1650846768851209.0
-13.0,16.0,8.0,-24.0,-9.0,-26.0,-63.0,-40.0,1650846768853137.0
-11.0,-65.0,-54.0,32.0,12.0,-5.0,-11.0,-10.0,1650846768853137.0
10.0,34.0,18.0,19.0,4.0,8.0,18.0,14.0,1650846768873832.0
-7.0,8.0,-21.0,-18.0,-5.0,-1.0,-6.0,-5.0,1650846768873832.0
-1.0,-18.0,-26.0,3.0,-6.0,7.0,33.0,11.0,1650846768875827.0
7.0,23.0,61.0,6.0,12.0,4.0,-23.0,-8.0,1650846768875827.0
-13.0,-11.0,-51.0,-37.0,-29.0,-14.0,-2.0,-6.0,1650846768896799.0
8.0,-9.0,-1.0,34.0,37.0,12.0,0.0,2.0,1650846768896799.0
-7.0,-11.0,-27.0,-22.0,-15.0,-6.0,-9.0,-7.0,1650846768897769.0
-2.0,20.0,42.0,20.0,-4.0,4.0,17.0,5.0,1650846768897769.0
13.0,-4.0,-69.0,-69.0,-20.0,-6.0,-22.0,-3.0,1650846768911759.0
-9.0,-5.0,60.0,83.0,5.0,6.0,-2.0,-5.0,1650846768911759.0
3.0,21.0,27.0,-30.0,3.0,-4.0,-6.0,-7.0,1650846768913726.0
-5.0,2.0,-8.0,-47.0,-25.0,-6.0,21.0,17.0,1650846768913726.0
4.0,-2.0,43.0,77.0,45.0,4.0,-23.0,-11.0,1650846768933672.0
-10.0,-47.0,-79.0,-52.0,-38.0,-13.0,20.0,4.0,1650846768933672.0
11.0,12.0,2.0,-12.0,-1.0,1.0,-1.0,6.0,1650846768935667.0
2.0,33.0,58.0,24.0,0.0,8.0,7.0,1.0,1650846768935667.0
-4.0,-6.0,-37.0,-40.0,-25.0,-13.0,0.0,-2.0,1650846768956610.0
0.0,12.0,10.0,-6.0,9.0,6.0,1.0,3.0,1650846768956610.0
-11.0,-38.0,-81.0,-46.0,-30.0,-11.0,9.0,0.0,1650846768958606.0
1.0,4.0,-14.0,81.0,37.0,14.0,-1.0,-4.0,1650846768958606.0
8.0,24.0,62.0,-22.0,8.0,9.0,8.0,7.0,1650846768971571.0
-9.0,-21.0,-73.0,2.0,-2.0,-12.0,-11.0,-10.0,1650846768971571.0
6.0,21.0,41.0,-18.0,-1.0,6.0,9.0,9.0,1650846768973567.0
-7.0,-47.0,-63.0,-24.0,-20.0,-7.0,-9.0,-8.0,1650846768973567.0
6.0,-5.0,35.0,44.0,49.0,20.0,17.0,12.0,1650846768994510.0
6.0,23.0,-19.0,-35.0,-4.0,-6.0,3.0,6.0,1650846768994510.0
-14.0,-19.0,22.0,66.0,12.0,-11.0,-59.0,-29.0,1650846768995511.0
-10.0,-2.0,-9.0,-7.0,-13.0,-19.0,-23.0,-16.0,1650846768995511.0
0.0,-33.0,-6.0,4.0,-5.0,15.0,29.0,12.0,1650846769016570.0
-5.0,5.0,-13.0,-52.0,-21.0,-17.0,-25.0,-12.0,1650846769016570.0
-5.0,-8.0,11.0,46.0,17.0,12.0,27.0,3.0,1650846769018585.0
10.0,19.0,-12.0,3.0,19.0,10.0,-2.0,2.0,1650846769018585.0
-6.0,10.0,22.0,-42.0,-31.0,-22.0,-33.0,-21.0,1650846769030839.0
-1.0,-25.0,7.0,11.0,5.0,12.0,31.0,12.0,1650846769030839.0
-4.0,10.0,-60.0,-27.0,-25.0,-14.0,-33.0,-13.0,1650846769038144.0
-1.0,26.0,9.0,2.0,-7.0,-5.0,-4.0,-8.0,1650846769038144.0
-5.0,-30.0,37.0,2.0,12.0,14.0,22.0,11.0,1650846769054144.0
-1.0,17.0,15.0,10.0,3.0,-5.0,-25.0,-13.0,1650846769054144.0
2.0,-27.0,-40.0,-23.0,-12.0,3.0,50.0,27.0,1650846769056100.0
-6.0,-21.0,-69.0,-44.0,-24.0,-23.0,-38.0,-19.0,1650846769056100.0
-8.0,-11.0,33.0,38.0,12.0,8.0,18.0,3.0,1650846769076235.0
4.0,39.0,44.0,2.0,1.0,4.0,-17.0,-10.0,1650846769076235.0
-5.0,9.0,5.0,-30.0,0.0,1.0,-20.0,-13.0,1650846769078164.0
5.0,-25.0,-26.0,38.0,24.0,18.0,50.0,30.0,1650846769078164.0
-2.0,30.0,-1.0,-19.0,-24.0,-22.0,-33.0,-17.0,1650846769091198.0
-9.0,-61.0,-50.0,-6.0,16.0,9.0,14.0,4.0,1650846769091198.0
13.0,38.0,84.0,26.0,19.0,10.0,6.0,11.0,1650846769098117.0
-13.0,-40.0,-62.0,-8.0,-7.0,-2.0,-12.0,-16.0,1650846769098117.0
12.0,10.0,-20.0,18.0,24.0,18.0,32.0,21.0,1650846769113902.0
-11.0,32.0,-24.0,-21.0,-34.0,-39.0,-60.0,-28.0,1650846769113902.0
-1.0,-45.0,20.0,-5.0,2.0,6.0,24.0,3.0,1650846769115827.0
20.0,81.0,62.0,-33.0,22.0,21.0,27.0,24.0,1650846769115827.0
-2.0,-24.0,-45.0,-16.0,-12.0,-10.0,-8.0,-6.0,1650846769136916.0
12.0,-16.0,-15.0,-2.0,-1.0,13.0,41.0,33.0,1650846769136916.0
-18.0,-39.0,-19.0,-34.0,4.0,-6.0,-17.0,-15.0,1650846769137852.0
10.0,55.0,48.0,39.0,8.0,4.0,8.0,1.0,1650846769137852.0
-4.0,2.0,-20.0,-31.0,-37.0,-19.0,-14.0,-1.0,1650846769150817.0
7.0,-13.0,14.0,48.0,31.0,16.0,14.0,4.0,1650846769150817.0
8.0,16.0,4.0,-14.0,-6.0,0.0,-28.0,-4.0,1650846769157866.0
-8.0,-23.0,-31.0,-4.0,3.0,-9.0,-17.0,-13.0,1650846769157866.0
9.0,29.0,56.0,75.0,79.0,34.0,41.0,21.0,1650846769173846.0
-8.0,-32.0,-35.0,-49.0,-30.0,-27.0,-62.0,-25.0,1650846769173846.0
3.0,19.0,15.0,38.0,12.0,5.0,21.0,7.0,1650846769175843.0
-7.0,-42.0,-47.0,-44.0,-25.0,-1.0,9.0,-1.0,1650846769175843.0
4.0,18.0,-3.0,-40.0,-33.0,-20.0,-40.0,-20.0,1650846769196975.0
-3.0,22.0,25.0,69.0,31.0,19.0,33.0,13.0,1650846769196975.0
8.0,1.0,3.0,-27.0,-15.0,-7.0,-1.0,7.0,1650846769197907.0
-8.0,-4.0,36.0,17.0,1.0,-4.0,-9.0,-7.0,1650846769197907.0
5.0,-9.0,5.0,30.0,26.0,18.0,29.0,18.0,1650846769210938.0
-5.0,-46.0,1.0,0.0,2.0,1.0,-15.0,-10.0,1650846769210938.0
13.0,94.0,9.0,-24.0,-20.0,0.0,19.0,11.0,1650846769217924.0
3.0,4.0,29.0,39.0,35.0,6.0,-7.0,2.0,1650846769217924.0
-10.0,-45.0,-10.0,-22.0,-25.0,-11.0,6.0,-2.0,1650846769233811.0
-1.0,19.0,27.0,5.0,5.0,0.0,5.0,0.0,1650846769233811.0
-7.0,10.0,-29.0,-13.0,-16.0,-11.0,8.0,0.0,1650846769235806.0
4.0,-13.0,-31.0,24.0,22.0,6.0,-14.0,-3.0,1650846769235806.0
3.0,30.0,28.0,0.0,-11.0,-6.0,-6.0,-1.0,1650846769256851.0
-2.0,-11.0,17.0,-13.0,-2.0,4.0,16.0,4.0,1650846769256851.0
-7.0,-43.0,-83.0,-29.0,-18.0,-4.0,5.0,0.0,1650846769257817.0
3.0,5.0,42.0,7.0,4.0,1.0,1.0,3.0,1650846769257817.0
5.0,-2.0,-19.0,-21.0,-4.0,2.0,-6.0,0.0,1650846769270851.0
2.0,23.0,31.0,29.0,-10.0,-7.0,4.0,0.0,1650846769270851.0
-9.0,-37.0,-39.0,5.0,15.0,7.0,5.0,-2.0,1650846769278232.0
1.0,-4.0,15.0,-13.0,-8.0,0.0,2.0,-2.0,1650846769278232.0
-10.0,0.0,-16.0,26.0,-12.0,-5.0,10.0,-5.0,1650846769293879.0
1.0,25.0,-50.0,-101.0,-36.0,-14.0,-9.0,-1.0,1650846769293879.0
11.0,30.0,93.0,127.0,71.0,27.0,12.0,8.0,1650846769295836.0
1.0,-7.0,-24.0,-42.0,-30.0,-6.0,29.0,23.0,1650846769295836.0
-13.0,-17.0,38.0,-30.0,-15.0,-18.0,-33.0,-21.0,1650846769316296.0
13.0,40.0,-29.0,-8.0,7.0,2.0,15.0,11.0,1650846769316296.0
8.0,30.0,37.0,-22.0,-16.0,2.0,4.0,8.0,1650846769318291.0
-3.0,29.0,14.0,-57.0,-20.0,-14.0,-35.0,-20.0,1650846769318291.0
-1.0,-37.0,-39.0,12.0,15.0,13.0,27.0,10.0,1650846769331284.0
-2.0,9.0,-1.0,1.0,-2.0,0.0,-22.0,-11.0,1650846769331284.0
-6.0,-20.0,-2.0,-14.0,-18.0,-10.0,5.0,-3.0,1650846769338237.0
2.0,-18.0,-19.0,-10.0,17.0,11.0,6.0,5.0,1650846769338237.0
10.0,49.0,21.0,66.0,18.0,10.0,-2.0,-3.0,1650846769353689.0
-18.0,-70.0,-51.0,39.0,-10.0,-14.0,-25.0,-12.0,1650846769353689.0
-2.0,-7.0,-13.0,-31.0,-10.0,-8.0,-15.0,-9.0,1650846769355618.0
-9.0,-15.0,-14.0,-36.0,-22.0,-3.0,14.0,4.0,1650846769355618.0
11.0,35.0,18.0,-8.0,18.0,6.0,-4.0,-2.0,1650846769376772.0
-7.0,-30.0,3.0,15.0,-7.0,-2.0,3.0,2.0,1650846769376772.0
9.0,30.0,15.0,25.0,18.0,9.0,6.0,8.0,1650846769377706.0
-6.0,-20.0,-24.0,0.0,-6.0,-10.0,-6.0,-4.0,1650846769377706.0
-2.0,6.0,-22.0,-40.0,-29.0,-13.0,-17.0,-10.0,1650846769389838.0
8.0,45.0,60.0,52.0,49.0,20.0,15.0,8.0,1650846769389838.0
-12.0,-77.0,-35.0,-32.0,-8.0,-4.0,-1.0,-4.0,1650846769398880.0
1.0,20.0,33.0,35.0,4.0,0.0,-7.0,-8.0,1650846769398880.0
-4.0,-16.0,-12.0,-20.0,-14.0,-10.0,-22.0,-10.0,1650846769413783.0
-6.0,5.0,5.0,-14.0,-8.0,-1.0,8.0,-2.0,1650846769413783.0
5.0,-3.0,2.0,-2.0,7.0,3.0,-2.0,6.0,1650846769415772.0
-2.0,2.0,5.0,7.0,-5.0,-1.0,1.0,-3.0,1650846769415772.0
1.0,-27.0,-21.0,5.0,11.0,8.0,10.0,11.0,1650846769436971.0
-3.0,17.0,38.0,-32.0,-16.0,-12.0,-21.0,-16.0,1650846769436971.0
-4.0,-28.0,-44.0,8.0,12.0,-1.0,1.0,-2.0,1650846769437972.0
4.0,12.0,20.0,2.0,-3.0,-7.0,4.0,3.0,1650846769437972.0
-7.0,-13.0,-14.0,-10.0,-3.0,6.0,3.0,1.0,1650846769449940.0
3.0,-1.0,-12.0,-8.0,0.0,7.0,2.0,1.0,1650846769449940.0
5.0,39.0,3.0,-8.0,2.0,4.0,3.0,1.0,1650846769458915.0
-3.0,-11.0,6.0,6.0,1.0,-5.0,-11.0,-5.0,1650846769458915.0
-4.0,-11.0,-10.0,4.0,-4.0,-23.0,-15.0,-3.0,1650846769473876.0
8.0,18.0,0.0,-8.0,9.0,28.0,32.0,19.0,1650846769473876.0
-12.0,-48.0,-14.0,4.0,-4.0,-17.0,-18.0,-9.0,1650846769475870.0
3.0,22.0,23.0,4.0,1.0,10.0,4.0,1.0,1650846769475870.0
0.0,8.0,-2.0,3.0,-4.0,7.0,4.0,-3.0,1650846769496839.0
2.0,10.0,31.0,4.0,2.0,-8.0,-3.0,2.0,1650846769496839.0
-3.0,1.0,8.0,5.0,-3.0,-21.0,-8.0,-9.0,1650846769498833.0
1.0,-12.0,-8.0,-1.0,1.0,25.0,15.0,13.0,1650846769498833.0
0.0,1.0,1.0,-10.0,-5.0,-9.0,-13.0,-11.0,1650846769510824.0
4.0,-3.0,-28.0,-6.0,-3.0,-11.0,6.0,5.0,1650846769510824.0
4.0,6.0,13.0,11.0,9.0,17.0,8.0,1.0,1650846769518867.0
-4.0,-10.0,-4.0,3.0,-8.0,-20.0,-12.0,-5.0,1650846769518867.0
-5.0,3.0,-22.0,-7.0,-7.0,-19.0,-14.0,-11.0,1650846769533764.0
14.0,-12.0,1.0,-6.0,5.0,34.0,25.0,35.0,1650846769533764.0
-2.0,13.0,1.0,2.0,3.0,15.0,3.0,-6.0,1650846769535783.0
-1.0,-5.0,10.0,15.0,8.0,8.0,-3.0,-5.0,1650846769535783.0
-3.0,-2.0,12.0,9.0,-3.0,-3.0,2.0,1.0,1650846769557537.0
-2.0,-5.0,-37.0,-13.0,-6.0,-26.0,-13.0,-9.0,1650846769557537.0
-1.0,-7.0,26.0,-2.0,-4.0,-2.0,-1.0,4.0,1650846769558506.0
0.0,-6.0,4.0,3.0,-1.0,-1.0,0.0,6.0,1650846769558506.0
7.0,38.0,-18.0,-6.0,1.0,2.0,0.0,-2.0,1650846769570600.0
-3.0,-4.0,39.0,15.0,6.0,3.0,4.0,-3.0,1650846769570600.0
-1.0,-10.0,-22.0,3.0,2.0,8.0,3.0,2.0,1650846769579510.0
-5.0,1.0,26.0,3.0,-1.0,-9.0,-5.0,-6.0,1650846769579510.0
1.0,-13.0,-17.0,-11.0,-8.0,2.0,1.0,5.0,1650846769594561.0
-1.0,8.0,-3.0,-4.0,-3.0,1.0,1.0,-6.0,1650846769594561.0
1.0,6.0,-1.0,-2.0,-3.0,-6.0,-4.0,-1.0,1650846769600544.0
-1.0,11.0,4.0,19.0,12.0,-2.0,-2.0,-2.0,1650846769600544.0
-2.0,-18.0,-2.0,-9.0,-4.0,7.0,7.0,5.0,1650846769616568.0
-3.0,7.0,15.0,-4.0,0.0,-2.0,-4.0,-6.0,1650846769616568.0
-1.0,-6.0,-28.0,-6.0,-7.0,-6.0,-4.0,-1.0,1650846769618506.0
3.0,13.0,-3.0,0.0,5.0,1.0,2.0,0.0,1650846769618506.0
-1.0,-11.0,10.0,11.0,7.0,7.0,6.0,4.0,1650846769630491.0
-2.0,-2.0,-9.0,-7.0,-4.0,-7.0,-4.0,-3.0,1650846769630491.0
2.0,7.0,15.0,1.0,-2.0,-4.0,-1.0,1.0,1650846769639440.0
1.0,-3.0,-17.0,-11.0,-5.0,1.0,-1.0,-3.0,1650846769639440.0
-4.0,-11.0,2.0,-5.0,-7.0,0.0,0.0,0.0,1650846769653470.0
-4.0,0.0,-1.0,1.0,1.0,-7.0,-7.0,-5.0,1650846769653470.0
3.0,6.0,6.0,8.0,10.0,6.0,3.0,2.0,1650846769660384.0
-2.0,-3.0,-11.0,-12.0,-8.0,-3.0,-4.0,-1.0,1650846769660384.0
1.0,-4.0,7.0,12.0,3.0,-8.0,-1.0,-1.0,1650846769676341.0
1.0,11.0,-7.0,-5.0,-1.0,-3.0,-3.0,-3.0,1650846769676341.0
4.0,-18.0,-1.0,22.0,10.0,27.0,16.0,7.0,1650846769678337.0
0.0,6.0,17.0,14.0,-3.0,-12.0,-9.0,-5.0,1650846769678337.0
-3.0,-13.0,-13.0,-6.0,6.0,2.0,5.0,4.0,1650846769690371.0
0.0,15.0,3.0,-3.0,-3.0,-3.0,-3.0,-2.0,1650846769690371.0
-1.0,-5.0,10.0,-6.0,-4.0,-6.0,-5.0,-2.0,1650846769699280.0
2.0,17.0,-8.0,-10.0,-3.0,0.0,3.0,1.0,1650846769699280.0
-2.0,-27.0,6.0,9.0,3.0,0.0,-1.0,-1.0,1650846769714261.0
5.0,19.0,-12.0,-4.0,2.0,2.0,4.0,1.0,1650846769714261.0
-2.0,1.0,5.0,8.0,-2.0,0.0,-3.0,-3.0,1650846769715238.0
-1.0,1.0,-9.0,-11.0,-4.0,-5.0,0.0,-2.0,1650846769715238.0
-3.0,-4.0,-9.0,-10.0,-6.0,0.0,-1.0,-1.0,1650846769744188.0
-4.0,-10.0,9.0,-1.0,-3.0,-1.0,1.0,1.0,1650846769744188.0
5.0,21.0,-1.0,1.0,1.0,-5.0,-6.0,1.0,1650846769746180.0
-2.0,-13.0,5.0,-1.0,0.0,3.0,2.0,1.0,1650846769746180.0
2.0,24.0,11.0,2.0,2.0,10.0,3.0,-4.0,1650846769750166.0
-1.0,-15.0,-11.0,4.0,-1.0,-3.0,1.0,0.0,1650846769750166.0
-3.0,-1.0,-3.0,-10.0,-5.0,-8.0,-6.0,-4.0,1650846769758979.0
-1.0,-17.0,-1.0,-4.0,-2.0,2.0,2.0,1.0,1650846769758979.0
1.0,3.0,5.0,-4.0,3.0,9.0,5.0,3.0,1650846769773939.0
-1.0,-5.0,6.0,10.0,2.0,-1.0,-1.0,-2.0,1650846769773939.0
0.0,-1.0,-20.0,-17.0,-8.0,-6.0,-5.0,-1.0,1650846769775934.0
1.0,8.0,11.0,9.0,10.0,-2.0,-1.0,-1.0,1650846769775934.0
2.0,-3.0,2.0,-5.0,-13.0,-10.0,-3.0,0.0,1650846769796908.0
-6.0,0.0,-2.0,-4.0,4.0,11.0,4.0,-2.0,1650846769796908.0
-3.0,-15.0,14.0,2.0,-1.0,-4.0,-3.0,2.0,1650846769797875.0
0.0,10.0,-11.0,-1.0,-2.0,-4.0,-5.0,0.0,1650846769797875.0
1.0,6.0,2.0,5.0,5.0,4.0,4.0,2.0,1650846769818946.0
0.0,1.0,9.0,2.0,-2.0,-3.0,1.0,-2.0,1650846769818946.0
0.0,7.0,1.0,-2.0,-2.0,-1.0,0.0,-1.0,1650846769820971.0
2.0,-8.0,4.0,-5.0,-5.0,-8.0,-4.0,-2.0,1650846769820971.0
0.0,6.0,-7.0,-3.0,-2.0,0.0,-5.0,1.0,1650846769833903.0
1.0,-2.0,-8.0,5.0,7.0,25.0,12.0,2.0,1650846769833903.0
-3.0,-5.0,6.0,0.0,-2.0,-11.0,-7.0,-3.0,1650846769835898.0
2.0,14.0,-5.0,-19.0,-5.0,9.0,8.0,0.0,1650846769835898.0
-1.0,-12.0,-5.0,15.0,3.0,-8.0,-4.0,-2.0,1650846769856841.0
-2.0,-24.0,-6.0,-7.0,-4.0,-3.0,-4.0,-1.0,1650846769856841.0
0.0,6.0,7.0,1.0,2.0,2.0,1.0,0.0,1650846769857850.0
-2.0,-6.0,-12.0,-4.0,1.0,4.0,1.0,-2.0,1650846769857850.0
-3.0,4.0,3.0,4.0,-2.0,-4.0,-5.0,-4.0,1650846769886992.0
-1.0,-5.0,-1.0,-2.0,-2.0,3.0,1.0,0.0,1650846769886992.0
0.0,5.0,7.0,3.0,-2.0,-5.0,0.0,2.0,1650846769887991.0
-2.0,-6.0,-3.0,-4.0,-2.0,-4.0,-3.0,-3.0,1650846769887991.0
-2.0,-10.0,-8.0,-2.0,8.0,4.0,-1.0,-3.0,1650846769893996.0
0.0,-11.0,-10.0,0.0,-7.0,-19.0,-9.0,-3.0,1650846769893996.0
2.0,25.0,5.0,0.0,-2.0,-8.0,-3.0,-2.0,1650846769895990.0
2.0,6.0,5.0,6.0,7.0,21.0,7.0,2.0,1650846769895990.0
-3.0,-14.0,1.0,0.0,-2.0,3.0,5.0,-2.0,1650846769916948.0
4.0,-8.0,0.0,5.0,2.0,-5.0,-2.0,1.0,1650846769916948.0
-2.0,-4.0,-18.0,-5.0,0.0,1.0,-1.0,0.0,1650846769917922.0
0.0,-1.0,10.0,5.0,-3.0,-5.0,-2.0,0.0,1650846769917922.0
-1.0,3.0,-1.0,-4.0,-1.0,0.0,2.0,1.0,1650846769938592.0
-1.0,3.0,6.0,1.0,1.0,-2.0,-4.0,0.0,1650846769938592.0
-1.0,-3.0,-3.0,1.0,-1.0,1.0,3.0,-2.0,1650846769946575.0
2.0,-1.0,-1.0,1.0,-1.0,-6.0,-3.0,0.0,1650846769946575.0
-1.0,2.0,-1.0,-3.0,-1.0,-2.0,-2.0,-1.0,1650846769953234.0
-1.0,10.0,3.0,-1.0,-4.0,0.0,0.0,-1.0,1650846769953234.0
1.0,-3.0,-11.0,-4.0,0.0,-2.0,0.0,-2.0,1650846769960177.0
-4.0,-7.0,5.0,8.0,4.0,-2.0,-1.0,0.0,1650846769960177.0
2.0,3.0,3.0,-1.0,-2.0,6.0,0.0,0.0,1650846769976202.0
2.0,4.0,-4.0,0.0,-3.0,-3.0,-3.0,0.0,1650846769976202.0
-2.0,-10.0,5.0,-1.0,-3.0,2.0,3.0,1.0,1650846769978145.0
-2.0,-7.0,-12.0,-2.0,-4.0,-4.0,-1.0,0.0,1650846769978145.0
2.0,2.0,1.0,-8.0,4.0,-2.0,-2.0,-3.0,1650846769998848.0
2.0,8.0,10.0,36.0,9.0,4.0,-2.0,-1.0,1650846769998848.0
-2.0,-6.0,-8.0,-5.0,-1.0,-3.0,-2.0,-1.0,1650846770000813.0
-1.0,5.0,5.0,-1.0,-1.0,-1.0,-1.0,-1.0,1650846770000813.0
-1.0,5.0,-7.0,-7.0,-4.0,-3.0,-1.0,-1.0,1650846770013805.0
-4.0,0.0,-4.0,-7.0,0.0,-1.0,-1.0,-3.0,1650846770013805.0
-3.0,-5.0,-2.0,-3.0,-3.0,1.0,-1.0,0.0,1650846770020799.0
-1.0,4.0,-1.0,4.0,1.0,1.0,0.0,-1.0,1650846770020799.0
0.0,-2.0,3.0,3.0,0.0,0.0,1.0,1.0,1650846770036783.0
0.0,2.0,3.0,2.0,2.0,-1.0,1.0,-2.0,1650846770036783.0
2.0,-2.0,-3.0,-2.0,-2.0,2.0,1.0,2.0,1650846770037714.0
1.0,-5.0,-6.0,-8.0,-4.0,-3.0,-2.0,-2.0,1650846770037714.0
0.0,6.0,1.0,1.0,-2.0,-4.0,-4.0,1.0,1650846770059550.0
-2.0,-3.0,-1.0,-7.0,-3.0,-1.0,1.0,-2.0,1650846770059550.0
-1.0,-1.0,2.0,3.0,2.0,-1.0,-1.0,1.0,1650846770060547.0
1.0,3.0,-3.0,1.0,-2.0,3.0,3.0,2.0,1650846770060547.0
-2.0,-10.0,3.0,4.0,-1.0,-2.0,0.0,-2.0,1650846770073512.0
0.0,12.0,0.0,-9.0,-4.0,-8.0,-6.0,-1.0,1650846770073512.0
2.0,-5.0,3.0,4.0,7.0,9.0,5.0,3.0,1650846770080521.0
1.0,0.0,2.0,0.0,-4.0,-4.0,-3.0,-4.0,1650846770080521.0
-2.0,1.0,1.0,3.0,1.0,-2.0,-1.0,-2.0,1650846770096450.0
-2.0,2.0,-3.0,-9.0,-4.0,-1.0,-2.0,0.0,1650846770096450.0
1.0,-16.0,-1.0,-2.0,-2.0,-3.0,-3.0,-4.0,1650846770098446.0
-4.0,-4.0,2.0,3.0,1.0,-1.0,1.0,1.0,1650846770098446.0
1.0,1.0,-1.0,-5.0,-3.0,1.0,2.0,-2.0,1650846770119389.0
0.0,-2.0,0.0,1.0,-1.0,-2.0,0.0,-1.0,1650846770119389.0
2.0,7.0,0.0,-2.0,2.0,0.0,2.0,1.0,1650846770120390.0
-1.0,-3.0,-2.0,2.0,0.0,1.0,-1.0,1.0,1650846770120390.0
-2.0,0.0,-1.0,-2.0,-1.0,-2.0,-2.0,0.0,1650846770133352.0
-2.0,-7.0,-8.0,-8.0,-2.0,3.0,2.0,-3.0,1650846770133352.0
1.0,3.0,1.0,2.0,-1.0,-1.0,1.0,1.0,1650846770140400.0
2.0,-2.0,-1.0,-3.0,-1.0,0.0,-1.0,0.0,1650846770140400.0
1.0,3.0,1.0,2.0,1.0,0.0,-1.0,2.0,1650846770157723.0
-1.0,0.0,-2.0,-4.0,-1.0,1.0,-1.0,0.0,1650846770157723.0
0.0,2.0,2.0,3.0,-1.0,0.0,-1.0,0.0,1650846770159719.0
1.0,4.0,-2.0,-3.0,1.0,-1.0,-2.0,-1.0,1650846770159719.0
2.0,3.0,3.0,3.0,4.0,0.0,0.0,-1.0,1650846770178810.0
0.0,-1.0,-1.0,-3.0,-2.0,0.0,-1.0,1.0,1650846770178810.0
-1.0,2.0,-6.0,-2.0,-1.0,-2.0,-2.0,-2.0,1650846770180778.0
0.0,2.0,8.0,1.0,0.0,3.0,1.0,0.0,1650846770180778.0
-1.0,-7.0,-6.0,-2.0,-2.0,2.0,1.0,2.0,1650846770192773.0
-2.0,-8.0,-10.0,4.0,-2.0,-1.0,0.0,-1.0,1650846770192773.0
0.0,4.0,5.0,2.0,1.0,0.0,-4.0,-2.0,1650846770200752.0
-1.0,1.0,-5.0,-5.0,-2.0,2.0,0.0,-1.0,1650846770200752.0
0.0,1.0,1.0,-6.0,-1.0,-2.0,-1.0,-1.0,1650846770215837.0
0.0,2.0,4.0,5.0,3.0,0.0,-1.0,1.0,1650846770215837.0
-2.0,-2.0,-4.0,-4.0,-3.0,-3.0,-2.0,1.0,1650846770216807.0
0.0,-1.0,1.0,4.0,1.0,-3.0,-1.0,1.0,1650846770216807.0
-1.0,3.0,2.0,3.0,-2.0,1.0,-1.0,-2.0,1650846770238849.0
0.0,-5.0,-1.0,-4.0,0.0,-1.0,0.0,0.0,1650846770238849.0
1.0,8.0,2.0,2.0,0.0,0.0,0.0,-1.0,1650846770238849.0
-1.0,-2.0,-3.0,-1.0,-1.0,-3.0,0.0,0.0,1650846770238849.0
0.0,1.0,-3.0,-2.0,-3.0,-2.0,1.0,2.0,1650846770253958.0
0.0,-2.0,2.0,-2.0,2.0,4.0,2.0,0.0,1650846770253958.0
0.0,-1.0,1.0,-2.0,-3.0,0.0,-2.0,-2.0,1650846770260910.0
2.0,0.0,-3.0,-1.0,2.0,0.0,-3.0,-3.0,1650846770260910.0
-1.0,1.0,-2.0,2.0,-1.0,-7.0,-3.0,0.0,1650846770275869.0
-1.0,-1.0,0.0,-2.0,1.0,9.0,6.0,1.0,1650846770275869.0
-3.0,-3.0,-1.0,-1.0,-2.0,-3.0,-2.0,-1.0,1650846770276868.0
-1.0,-4.0,-2.0,0.0,-4.0,-1.0,0.0,-3.0,1650846770276868.0
0.0,-2.0,-1.0,1.0,-1.0,-2.0,-4.0,-2.0,1650846770298292.0
0.0,1.0,2.0,-2.0,-1.0,-3.0,-3.0,0.0,1650846770298292.0
-1.0,-1.0,-1.0,-1.0,0.0,2.0,3.0,0.0,1650846770299289.0
-1.0,-2.0,1.0,1.0,0.0,-3.0,-1.0,1.0,1650846770299289.0
0.0,0.0,-2.0,-3.0,-4.0,0.0,-1.0,-2.0,1650846770313251.0
0.0,-1.0,5.0,2.0,2.0,-1.0,-3.0,1.0,1650846770313251.0
0.0,0.0,-2.0,1.0,1.0,1.0,-1.0,-1.0,1650846770321297.0
-1.0,-1.0,0.0,1.0,-1.0,0.0,1.0,0.0,1650846770321297.0
-1.0,0.0,0.0,0.0,3.0,1.0,2.0,1.0,1650846770336190.0
0.0,3.0,-2.0,-1.0,-1.0,-3.0,0.0,-1.0,1650846770336190.0
-1.0,-3.0,-9.0,-2.0,-2.0,0.0,0.0,-1.0,1650846770337199.0
-5.0,-10.0,-1.0,-3.0,-1.0,-3.0,-4.0,-1.0,1650846770337199.0
0.0,2.0,0.0,-1.0,-2.0,-1.0,-1.0,1.0,1650846770358279.0
0.0,0.0,-1.0,-1.0,-2.0,-2.0,0.0,-2.0,1650846770358279.0
1.0,3.0,5.0,3.0,1.0,-1.0,-2.0,-1.0,1650846770359279.0
1.0,2.0,-4.0,-4.0,0.0,5.0,3.0,0.0,1650846770359279.0
0.0,-3.0,-2.0,1.0,1.0,-1.0,-1.0,-1.0,1650846770373268.0
-3.0,-1.0,-2.0,-1.0,0.0,-4.0,-2.0,-2.0,1650846770373268.0
-2.0,-2.0,-1.0,-4.0,-5.0,-9.0,-2.0,1.0,1650846770381219.0
2.0,2.0,2.0,2.0,2.0,2.0,-3.0,0.0,1650846770381219.0
0.0,1.0,0.0,-2.0,1.0,1.0,2.0,0.0,1650846770396207.0
-2.0,-6.0,-4.0,-2.0,-5.0,-7.0,-4.0,-2.0,1650846770396207.0
-1.0,4.0,1.0,2.0,3.0,9.0,3.0,1.0,1650846770396207.0
1.0,-3.0,-3.0,0.0,-2.0,-6.0,1.0,-1.0,1650846770396207.0
-1.0,1.0,3.0,1.0,1.0,1.0,-2.0,1.0,1650846770418141.0
1.0,-1.0,-5.0,-5.0,-1.0,-1.0,0.0,0.0,1650846770418141.0
-2.0,-8.0,2.0,1.0,0.0,-2.0,-2.0,-1.0,1650846770419118.0
3.0,12.0,1.0,0.0,-2.0,1.0,2.0,1.0,1650846770419118.0
1.0,-4.0,-3.0,-1.0,1.0,1.0,0.0,-1.0,1650846770433080.0
-2.0,3.0,-1.0,-2.0,-2.0,-2.0,-2.0,-2.0,1650846770433080.0
1.0,-22.0,-6.0,-2.0,0.0,1.0,-1.0,1.0,1650846770441059.0
-1.0,5.0,1.0,1.0,0.0,0.0,-2.0,-1.0,1650846770441059.0
-1.0,2.0,0.0,2.0,2.0,0.0,-1.0,1.0,1650846770456039.0
1.0,4.0,-1.0,-3.0,-1.0,0.0,0.0,0.0,1650846770456039.0
2.0,6.0,1.0,-3.0,-1.0,-2.0,0.0,-1.0,1650846770457038.0
-6.0,-12.0,-7.0,1.0,-1.0,-1.0,-1.0,-1.0,1650846770457038.0
-2.0,-1.0,7.0,1.0,-2.0,-3.0,-2.0,0.0,1650846770477981.0
0.0,2.0,1.0,4.0,1.0,3.0,1.0,1.0,1650846770477981.0
0.0,1.0,-5.0,-3.0,1.0,1.0,-1.0,-1.0,1650846770478964.0
0.0,-5.0,1.0,0.0,0.0,-2.0,1.0,-2.0,1650846770478964.0
-1.0,5.0,-6.0,-3.0,-2.0,-2.0,-1.0,-3.0,1650846770501970.0
-1.0,-3.0,0.0,0.0,2.0,-3.0,-2.0,0.0,1650846770501970.0
-1.0,1.0,3.0,2.0,0.0,3.0,1.0,1.0,1650846770501970.0
0.0,-3.0,0.0,0.0,1.0,-1.0,0.0,-2.0,1650846770501970.0
0.0,5.0,-2.0,-1.0,-2.0,0.0,1.0,-1.0,1650846770516114.0
-1.0,-20.0,-1.0,0.0,-1.0,-2.0,-1.0,0.0,1650846770516114.0
1.0,9.0,3.0,0.0,0.0,-1.0,2.0,-2.0,1650846770517047.0
1.0,4.0,-2.0,-6.0,-1.0,-2.0,-1.0,2.0,1650846770517047.0
0.0,-5.0,1.0,0.0,1.0,0.0,0.0,-1.0,1650846770538058.0
-1.0,6.0,0.0,0.0,-3.0,1.0,0.0,0.0,1650846770538058.0
-2.0,0.0,2.0,1.0,0.0,-2.0,1.0,-2.0,1650846770538990.0
2.0,0.0,-1.0,1.0,3.0,4.0,1.0,0.0,1650846770538990.0
1.0,-2.0,-10.0,-2.0,-2.0,-5.0,-3.0,-1.0,1650846770561927.0
1.0,5.0,10.0,3.0,2.0,-1.0,0.0,0.0,1650846770561927.0
0.0,0.0,-2.0,-1.0,-1.0,1.0,-1.0,-1.0,1650846770562926.0
-2.0,3.0,2.0,1.0,0.0,-2.0,0.0,2.0,1650846770562926.0
-2.0,-6.0,-2.0,-1.0,1.0,2.0,0.0,0.0,1650846770575956.0
-1.0,2.0,-5.0,-2.0,-3.0,-1.0,0.0,-2.0,1650846770575956.0
-1.0,0.0,-3.0,2.0,-2.0,-2.0,-2.0,1.0,1650846770576887.0
-1.0,0.0,-1.0,1.0,1.0,-1.0,-2.0,-2.0,1650846770576887.0
-1.0,-2.0,1.0,-1.0,0.0,-1.0,-1.0,-1.0,1650846770598861.0
-1.0,-3.0,-5.0,-1.0,-2.0,-2.0,0.0,0.0,1650846770598861.0
-1.0,-2.0,-1.0,-4.0,-1.0,-3.0,0.0,1.0,1650846770598861.0
1.0,6.0,4.0,0.0,-1.0,2.0,-1.0,0.0,1650846770598861.0
-1.0,-5.0,-1.0,-1.0,-2.0,0.0,-2.0,-1.0,1650846770621833.0
0.0,6.0,5.0,3.0,1.0,1.0,-1.0,-1.0,1650846770621833.0
-1.0,-2.0,-2.0,0.0,-2.0,-3.0,0.0,-2.0,1650846770622764.0
0.0,0.0,-1.0,-2.0,-1.0,-1.0,0.0,-1.0,1650846770622764.0
-1.0,-4.0,-1.0,-3.0,-2.0,1.0,-1.0,0.0,1650846770635758.0
1.0,0.0,-8.0,-1.0,3.0,0.0,1.0,1.0,1650846770635758.0
-2.0,4.0,18.0,0.0,-3.0,-2.0,-3.0,-1.0,1650846770636727.0
-2.0,-3.0,-7.0,0.0,0.0,0.0,-2.0,-1.0,1650846770636727.0
0.0,1.0,2.0,1.0,-4.0,-4.0,2.0,-2.0,1650846770658820.0
-2.0,-2.0,-5.0,0.0,2.0,2.0,0.0,0.0,1650846770658820.0
-1.0,-1.0,-5.0,-2.0,1.0,-1.0,-1.0,-2.0,1650846770658820.0
-1.0,-5.0,1.0,3.0,1.0,-1.0,-1.0,-2.0,1650846770658820.0
-2.0,-2.0,-1.0,-2.0,-1.0,1.0,1.0,-1.0,1650846770682025.0
2.0,4.0,1.0,-3.0,-3.0,-1.0,-2.0,-1.0,1650846770682025.0
1.0,-2.0,-2.0,1.0,1.0,0.0,0.0,2.0,1650846770682025.0
-1.0,3.0,4.0,0.0,-2.0,-2.0,-1.0,-1.0,1650846770682025.0
-1.0,0.0,-4.0,0.0,0.0,0.0,1.0,-4.0,1650846770695903.0
-3.0,-4.0,0.0,1.0,0.0,0.0,-1.0,-1.0,1650846770695903.0
-1.0,0.0,-3.0,0.0,-2.0,2.0,-1.0,-1.0,1650846770696842.0
0.0,2.0,-2.0,-3.0,-2.0,0.0,0.0,0.0,1650846770696842.0
-1.0,-1.0,0.0,0.0,3.0,1.0,0.0,2.0,1650846770718867.0
1.0,1.0,3.0,-3.0,-1.0,0.0,-1.0,-1.0,1650846770718867.0
-2.0,-3.0,-8.0,-1.0,1.0,0.0,-2.0,-2.0,1650846770718867.0
-2.0,3.0,6.0,4.0,1.0,0.0,-1.0,-2.0,1650846770718867.0
-1.0,-1.0,0.0,-2.0,-3.0,-4.0,-2.0,1.0,1650846770740895.0
-1.0,0.0,-3.0,-2.0,-1.0,1.0,2.0,1.0,1650846770740895.0
0.0,-4.0,-2.0,0.0,1.0,0.0,1.0,-2.0,1650846770741825.0
0.0,-11.0,-4.0,-3.0,-1.0,-2.0,-1.0,-2.0,1650846770741825.0
1.0,8.0,3.0,0.0,-1.0,0.0,2.0,0.0,1650846770755855.0
-2.0,-2.0,4.0,3.0,-3.0,-2.0,-1.0,-1.0,1650846770755855.0
-1.0,0.0,-1.0,-1.0,2.0,0.0,1.0,1.0,1650846770756785.0
-2.0,-4.0,-5.0,-5.0,-4.0,0.0,-2.0,0.0,1650846770756785.0
-1.0,-1.0,1.0,1.0,-2.0,1.0,-3.0,-1.0,1650846770778034.0
0.0,0.0,-2.0,1.0,1.0,-3.0,0.0,-1.0,1650846770778034.0
1.0,3.0,1.0,1.0,-1.0,-3.0,1.0,0.0,1650846770779034.0
-2.0,-2.0,-2.0,-1.0,-1.0,-1.0,0.0,-1.0,1650846770779034.0
2.0,-2.0,0.0,-1.0,1.0,0.0,-1.0,1.0,1650846770801040.0
-1.0,-1.0,-8.0,-3.0,-3.0,-4.0,0.0,0.0,1650846770801040.0
-1.0,5.0,13.0,2.0,-1.0,0.0,-1.0,-2.0,1650846770801972.0
-1.0,0.0,-2.0,-1.0,-1.0,-2.0,-1.0,0.0,1650846770801972.0
1.0,1.0,-1.0,1.0,-2.0,-3.0,0.0,1.0,1650846770815962.0
-2.0,-4.0,-2.0,-2.0,-2.0,1.0,-2.0,-3.0,1650846770815962.0
-2.0,-4.0,-2.0,0.0,0.0,2.0,0.0,0.0,1650846770816932.0
0.0,7.0,1.0,-1.0,-3.0,2.0,1.0,0.0,1650846770816932.0
0.0,10.0,3.0,2.0,0.0,1.0,0.0,-3.0,1650846770838842.0
0.0,-18.0,-4.0,1.0,-1.0,-2.0,-3.0,-1.0,1650846770838842.0
-1.0,1.0,-3.0,-3.0,-2.0,-4.0,-3.0,-1.0,1650846770839085.0
-1.0,-3.0,-1.0,-3.0,0.0,1.0,2.0,1.0,1650846770839085.0
-1.0,-1.0,0.0,2.0,2.0,0.0,0.0,-2.0,1650846770861095.0
-1.0,5.0,0.0,-1.0,0.0,-1.0,2.0,-1.0,1650846770861095.0
-1.0,-2.0,1.0,-1.0,-1.0,0.0,-1.0,0.0,1650846770862026.0
0.0,-2.0,2.0,-1.0,-1.0,-1.0,-1.0,-3.0,1650846770862026.0
1.0,-2.0,-5.0,-2.0,0.0,0.0,-1.0,0.0,1650846770876055.0
1.0,5.0,2.0,-2.0,-2.0,-1.0,-1.0,1.0,1650846770876055.0
-2.0,-4.0,0.0,-2.0,3.0,0.0,-2.0,2.0,1650846770876986.0
1.0,10.0,3.0,2.0,0.0,-2.0,-2.0,-2.0,1650846770876986.0
-1.0,-10.0,-3.0,-3.0,-5.0,-1.0,-1.0,-1.0,1650846770898165.0
0.0,6.0,2.0,2.0,1.0,3.0,2.0,0.0,1650846770898165.0
2.0,1.0,-3.0,-1.0,2.0,1.0,0.0,2.0,1650846770899096.0
-1.0,-4.0,-3.0,-1.0,-1.0,-1.0,-3.0,0.0,1650846770899096.0
-2.0,-3.0,2.0,-1.0,-1.0,0.0,-3.0,-1.0,1650846770921199.0
-1.0,1.0,2.0,-3.0,-2.0,-3.0,-2.0,-1.0,1650846770921199.0
-3.0,-1.0,-2.0,-2.0,-1.0,0.0,0.0,-2.0,1650846770921199.0
1.0,-2.0,-2.0,4.0,2.0,-3.0,-2.0,-1.0,1650846770921199.0
0.0,1.0,-3.0,-2.0,1.0,2.0,0.0,-1.0,1650846770936151.0
-1.0,-1.0,2.0,-1.0,1.0,-2.0,0.0,0.0,1650846770936151.0
0.0,1.0,0.0,1.0,-1.0,-2.0,0.0,-3.0,1650846770937162.0
-1.0,-3.0,-3.0,0.0,-3.0,-3.0,-1.0,1.0,1650846770937162.0
1.0,0.0,0.0,3.0,2.0,0.0,-1.0,1.0,1650846770958344.0
1.0,2.0,1.0,-2.0,1.0,5.0,0.0,-1.0,1650846770958344.0
0.0,1.0,-1.0,2.0,2.0,-1.0,0.0,-2.0,1650846770959345.0
-2.0,-6.0,-6.0,-3.0,-2.0,0.0,-1.0,-1.0,1650846770959345.0
0.0,-1.0,8.0,2.0,1.0,-1.0,2.0,1.0,1650846770981401.0
-1.0,-1.0,-3.0,-2.0,-2.0,-3.0,-1.0,-1.0,1650846770981401.0
1.0,4.0,-2.0,0.0,-3.0,-1.0,0.0,-3.0,1650846770981401.0
-1.0,-2.0,-1.0,-3.0,-6.0,0.0,-1.0,-2.0,1650846770981401.0
-1.0,1.0,-3.0,1.0,2.0,1.0,-2.0,-1.0,1650846770996370.0
-2.0,-6.0,0.0,2.0,1.0,-2.0,-2.0,-1.0,1650846770996370.0
-1.0,-1.0,-3.0,-1.0,2.0,1.0,-1.0,0.0,1650846770996370.0
0.0,3.0,2.0,1.0,4.0,1.0,1.0,1.0,1650846770996370.0
0.0,-4.0,-7.0,-7.0,-5.0,-2.0,-1.0,1.0,1650846771018301.0
1.0,3.0,7.0,2.0,2.0,0.0,0.0,1.0,1650846771018301.0
0.0,0.0,-4.0,-1.0,-4.0,-2.0,1.0,0.0,1650846771019299.0
1.0,-1.0,0.0,-1.0,-2.0,0.0,-1.0,-2.0,1650846771019299.0
-2.0,-1.0,-1.0,1.0,0.0,0.0,1.0,1.0,1650846771040789.0
-2.0,-1.0,-3.0,-2.0,-1.0,-1.0,-1.0,0.0,1650846771040789.0
1.0,-1.0,-2.0,-3.0,-3.0,-1.0,-1.0,0.0,1650846771041720.0
-3.0,-5.0,-1.0,-1.0,-1.0,-2.0,0.0,-1.0,1650846771041720.0
-1.0,2.0,1.0,0.0,-2.0,-1.0,0.0,-3.0,1650846771055749.0
2.0,3.0,-1.0,0.0,3.0,2.0,1.0,0.0,1650846771055749.0
1.0,-1.0,8.0,4.0,0.0,0.0,-2.0,-1.0,1650846771056679.0
-1.0,0.0,-2.0,0.0,-1.0,-5.0,0.0,-3.0,1650846771056679.0
1.0,1.0,-3.0,-1.0,0.0,-1.0,-1.0,0.0,1650846771078687.0
1.0,2.0,-3.0,2.0,-1.0,0.0,-2.0,-2.0,1650846771078687.0
-5.0,-13.0,-6.0,-6.0,-2.0,-1.0,-4.0,-3.0,1650846771079619.0
2.0,3.0,-2.0,3.0,5.0,2.0,5.0,2.0,1650846771079619.0
-1.0,-4.0,-1.0,-1.0,-3.0,-3.0,-1.0,-1.0,1650846771100742.0
-1.0,-1.0,1.0,-1.0,-1.0,-2.0,-1.0,-1.0,1650846771100742.0
2.0,4.0,3.0,-1.0,-1.0,1.0,0.0,2.0,1650846771101726.0
-2.0,-1.0,-3.0,0.0,-3.0,-1.0,0.0,1.0,1650846771101726.0
-2.0,-3.0,-1.0,-3.0,2.0,1.0,0.0,1.0,1650846771115703.0
-2.0,-1.0,-3.0,-2.0,-2.0,0.0,0.0,-1.0,1650846771115703.0
0.0,1.0,-4.0,-1.0,-2.0,-1.0,-2.0,-2.0,1650846771123722.0
0.0,-3.0,3.0,4.0,1.0,1.0,-2.0,2.0,1650846771123722.0
0.0,0.0,-5.0,0.0,4.0,5.0,4.0,0.0,1650846771138684.0
-1.0,1.0,7.0,2.0,-5.0,-2.0,0.0,-1.0,1650846771138684.0
0.0,1.0,-3.0,0.0,-2.0,-1.0,2.0,0.0,1650846771139633.0
2.0,-1.0,0.0,-2.0,-2.0,-1.0,-3.0,0.0,1650846771139633.0
0.0,0.0,0.0,1.0,2.0,0.0,0.0,-1.0,1650846771160697.0
0.0,-2.0,-3.0,-2.0,-2.0,0.0,-2.0,1.0,1650846771160697.0
-1.0,-2.0,-2.0,-2.0,0.0,-2.0,1.0,0.0,1650846771161664.0
-1.0,-2.0,2.0,0.0,-1.0,1.0,-1.0,0.0,1650846771161664.0
-1.0,1.0,1.0,0.0,-3.0,-3.0,-1.0,0.0,1650846771175694.0
0.0,-2.0,-3.0,0.0,0.0,0.0,0.0,-2.0,1650846771175694.0
1.0,4.0,7.0,2.0,-1.0,2.0,-2.0,-1.0,1650846771176635.0
-5.0,-6.0,-2.0,-2.0,3.0,1.0,-1.0,-3.0,1650846771176635.0
-1.0,1.0,2.0,2.0,1.0,-2.0,-1.0,1.0,1650846771198566.0
1.0,0.0,-2.0,0.0,-1.0,1.0,1.0,2.0,1650846771198566.0
-1.0,-1.0,-2.0,-3.0,-2.0,1.0,0.0,1.0,1650846771199563.0
1.0,1.0,2.0,-2.0,1.0,-1.0,0.0,0.0,1650846771199563.0
0.0,-3.0,-9.0,-2.0,-2.0,-2.0,2.0,-2.0,1650846771220508.0
-1.0,-2.0,2.0,1.0,1.0,-1.0,-1.0,-1.0,1650846771220508.0
-1.0,1.0,-4.0,-2.0,-2.0,0.0,1.0,0.0,1650846771221504.0
1.0,1.0,4.0,1.0,0.0,0.0,-2.0,-1.0,1650846771221504.0
-2.0,-4.0,1.0,-1.0,-1.0,2.0,-4.0,1.0,1650846771235496.0
-1.0,-1.0,-6.0,-2.0,0.0,1.0,0.0,-1.0,1650846771235496.0
-1.0,-2.0,-4.0,1.0,-1.0,-1.0,0.0,-2.0,1650846771236465.0
0.0,0.0,-4.0,-3.0,-3.0,-2.0,1.0,1.0,1650846771236465.0
0.0,2.0,3.0,0.0,-3.0,-2.0,-1.0,-1.0,1650846771258473.0
0.0,-2.0,-2.0,-1.0,3.0,2.0,0.0,-1.0,1650846771258473.0
-1.0,-5.0,-4.0,0.0,2.0,0.0,-1.0,-1.0,1650846771259403.0
0.0,0.0,-2.0,-3.0,-4.0,-2.0,-1.0,0.0,1650846771259403.0
1.0,4.0,3.0,-1.0,-3.0,-1.0,-2.0,-1.0,1650846771281344.0
0.0,2.0,-1.0,1.0,-3.0,-1.0,-3.0,-1.0,1650846771281344.0
-1.0,-4.0,-5.0,-1.0,1.0,2.0,-1.0,1.0,1650846771281344.0
-1.0,0.0,6.0,-1.0,0.0,-1.0,1.0,2.0,1650846771281344.0
1.0,1.0,-1.0,-1.0,1.0,-1.0,0.0,1.0,1650846771296334.0
-2.0,-3.0,-4.0,1.0,2.0,-2.0,0.0,0.0,1650846771296334.0
1.0,2.0,2.0,1.0,-2.0,-1.0,0.0,0.0,1650846771296334.0
0.0,-2.0,-1.0,-2.0,-2.0,-2.0,-2.0,-1.0,1650846771296334.0
-1.0,3.0,-4.0,4.0,1.0,1.0,-1.0,-1.0,1650846771318245.0
1.0,1.0,11.0,-1.0,-2.0,-1.0,0.0,2.0,1650846771318245.0
0.0,-1.0,-3.0,-2.0,0.0,0.0,-1.0,-1.0,1650846771319243.0
-4.0,-5.0,-5.0,0.0,-1.0,0.0,0.0,-2.0,1650846771319243.0
-1.0,-2.0,2.0,-1.0,-4.0,-3.0,-1.0,-1.0,1650846771341346.0
0.0,-2.0,-1.0,0.0,2.0,0.0,-1.0,-1.0,1650846771341346.0
-2.0,-2.0,1.0,-1.0,0.0,2.0,1.0,-1.0,1650846771341346.0
0.0,1.0,-7.0,1.0,-2.0,0.0,2.0,2.0,1650846771341346.0
-2.0,-2.0,7.0,-1.0,1.0,0.0,-1.0,0.0,1650846771355171.0
1.0,2.0,-2.0,0.0,-3.0,-2.0,-2.0,0.0,1650846771355171.0
-2.0,-5.0,-1.0,0.0,-1.0,0.0,-1.0,-2.0,1650846771363146.0
1.0,5.0,2.0,-1.0,2.0,1.0,-2.0,0.0,1650846771363146.0
0.0,-5.0,1.0,0.0,0.0,1.0,-2.0,0.0,1650846771378109.0
0.0,-2.0,-5.0,-3.0,-5.0,-2.0,-1.0,0.0,1650846771378109.0
1.0,2.0,8.0,1.0,-1.0,-4.0,-1.0,-1.0,1650846771379104.0
-2.0,-3.0,-16.0,-1.0,1.0,3.0,1.0,-2.0,1650846771379104.0
1.0,0.0,-5.0,-2.0,2.0,0.0,1.0,1.0,1650846771401073.0
-4.0,-6.0,-1.0,0.0,-1.0,-2.0,-2.0,-1.0,1650846771401073.0
-1.0,3.0,8.0,1.0,-4.0,1.0,0.0,1.0,1650846771402043.0
1.0,2.0,-2.0,-3.0,1.0,2.0,0.0,-2.0,1650846771402043.0
-2.0,-1.0,6.0,0.0,-3.0,-1.0,-2.0,0.0,1650846771415008.0
1.0,1.0,-4.0,-1.0,-1.0,-2.0,0.0,-1.0,1650846771415008.0
-2.0,-3.0,-2.0,0.0,2.0,0.0,-1.0,-2.0,1650846771423998.0
-1.0,-3.0,0.0,2.0,-4.0,-1.0,-1.0,-1.0,1650846771423998.0
0.0,1.0,7.0,2.0,1.0,1.0,0.0,0.0,1650846771437948.0
-1.0,-2.0,-11.0,-4.0,-1.0,-1.0,2.0,1.0,1650846771437948.0
1.0,1.0,2.0,4.0,3.0,3.0,-2.0,1.0,1650846771438944.0
1.0,4.0,9.0,-1.0,0.0,-4.0,0.0,0.0,1650846771438944.0
0.0,-2.0,-22.0,-3.0,0.0,1.0,0.0,0.0,1650846771460891.0
-1.0,0.0,12.0,2.0,-2.0,-2.0,-1.0,-1.0,1650846771460891.0
1.0,4.0,4.0,1.0,0.0,-1.0,0.0,3.0,1650846771461849.0
-1.0,-4.0,-14.0,-4.0,-2.0,-2.0,1.0,-3.0,1650846771461849.0
0.0,1.0,-1.0,-5.0,0.0,2.0,-1.0,0.0,1650846771475785.0
0.0,3.0,8.0,3.0,1.0,2.0,-1.0,-1.0,1650846771475785.0
-1.0,-3.0,-14.0,-5.0,-2.0,-3.0,-2.0,0.0,1650846771483762.0
-1.0,-2.0,16.0,3.0,2.0,0.0,-4.0,1.0,1650846771483762.0
-1.0,-3.0,-6.0,-2.0,1.0,2.0,1.0,0.0,1650846771497753.0
1.0,-2.0,-3.0,-1.0,-2.0,-3.0,0.0,-3.0,1650846771497753.0
-2.0,-3.0,-12.0,-4.0,-1.0,-4.0,-3.0,-1.0,1650846771505705.0
0.0,1.0,17.0,5.0,1.0,-1.0,-1.0,-2.0,1650846771505705.0
0.0,-5.0,-6.0,0.0,0.0,1.0,5.0,2.0,1650846771520684.0
0.0,1.0,-5.0,-2.0,0.0,2.0,-3.0,-1.0,1650846771520684.0
1.0,0.0,6.0,-3.0,-1.0,-5.0,2.0,-1.0,1650846771521662.0
1.0,-1.0,-5.0,0.0,-1.0,-4.0,1.0,0.0,1650846771521662.0
-1.0,2.0,2.0,0.0,-1.0,7.0,2.0,0.0,1650846771535624.0
-1.0,3.0,3.0,3.0,3.0,1.0,1.0,-2.0,1650846771535624.0
-1.0,-7.0,-5.0,-1.0,-1.0,-1.0,-2.0,-3.0,1650846771543602.0
0.0,1.0,-9.0,-2.0,2.0,1.0,0.0,-1.0,1650846771543602.0
-3.0,-1.0,5.0,-5.0,-8.0,-9.0,-5.0,-2.0,1650846771558753.0
-2.0,-5.0,-7.0,-3.0,1.0,4.0,0.0,0.0,1650846771558753.0
1.0,4.0,3.0,3.0,1.0,1.0,1.0,-1.0,1650846771559687.0
-1.0,-1.0,0.0,2.0,-1.0,1.0,-1.0,0.0,1650846771559687.0
0.0,1.0,2.0,0.0,0.0,-3.0,0.0,-1.0,1650846771580691.0
-1.0,-4.0,-13.0,-5.0,-2.0,-3.0,-3.0,-1.0,1650846771580691.0
1.0,5.0,3.0,1.0,0.0,-2.0,2.0,1.0,1650846771581690.0
-2.0,-6.0,-15.0,-6.0,-1.0,1.0,-1.0,1.0,1650846771581690.0
1.0,-1.0,1.0,-1.0,-2.0,-4.0,-1.0,-2.0,1650846771595737.0
0.0,0.0,5.0,1.0,-2.0,0.0,0.0,2.0,1650846771595737.0
1.0,2.0,13.0,5.0,3.0,4.0,-1.0,-1.0,1650846771602717.0
-1.0,-1.0,-3.0,0.0,2.0,0.0,1.0,0.0,1650846771602717.0
1.0,-1.0,-5.0,0.0,1.0,-7.0,-1.0,-3.0,1650846771618703.0
-2.0,1.0,6.0,-2.0,-4.0,3.0,0.0,-2.0,1650846771618703.0
-2.0,-7.0,-12.0,-8.0,-9.0,-8.0,-4.0,-3.0,1650846771619673.0
1.0,3.0,13.0,4.0,5.0,4.0,3.0,1.0,1650846771619673.0
-1.0,0.0,-4.0,-4.0,-2.0,-3.0,0.0,-2.0,1650846771641686.0
0.0,3.0,4.0,1.0,3.0,0.0,4.0,0.0,1650846771641686.0
1.0,0.0,-4.0,-3.0,-1.0,-1.0,-3.0,2.0,1650846771641686.0
-4.0,1.0,-5.0,-4.0,-4.0,0.0,0.0,-2.0,1650846771641686.0
-3.0,-2.0,9.0,5.0,3.0,3.0,2.0,-1.0,1650846771655596.0
2.0,-1.0,-4.0,-2.0,2.0,2.0,1.0,0.0,1650846771655596.0
-2.0,-1.0,-2.0,0.0,1.0,3.0,0.0,0.0,1650846771663555.0
0.0,0.0,7.0,-1.0,-3.0,-5.0,-3.0,-2.0,1650846771663555.0
3.0,6.0,-6.0,2.0,0.0,5.0,4.0,1.0,1650846771678514.0
-3.0,-1.0,-9.0,-3.0,-2.0,-4.0,-6.0,-4.0,1650846771678514.0
-1.0,-3.0,9.0,2.0,3.0,0.0,1.0,0.0,1650846771679512.0
1.0,2.0,3.0,-4.0,-7.0,-3.0,3.0,2.0,1650846771679512.0
-3.0,-3.0,0.0,0.0,-1.0,0.0,-2.0,-3.0,1650846771700657.0
0.0,-1.0,-3.0,0.0,0.0,-3.0,2.0,-1.0,1650846771700657.0
0.0,-2.0,-13.0,-3.0,-3.0,0.0,0.0,-1.0,1650846771701627.0
2.0,3.0,7.0,2.0,1.0,0.0,0.0,2.0,1650846771701627.0
-3.0,-5.0,1.0,2.0,1.0,1.0,-4.0,-1.0,1650846771724566.0
0.0,-2.0,-9.0,-2.0,-1.0,0.0,0.0,1.0,1650846771724566.0
-1.0,6.0,13.0,6.0,2.0,-4.0,-2.0,-3.0,1650846771724566.0
0.0,-1.0,16.0,-1.0,-2.0,2.0,-2.0,-1.0,1650846771724566.0
-3.0,-18.0,-49.0,-6.0,0.0,-1.0,5.0,4.0,1650846771738536.0
-6.0,3.0,15.0,0.0,-5.0,-8.0,-16.0,-8.0,1650846771738536.0
2.0,4.0,-2.0,0.0,2.0,3.0,5.0,2.0,1650846771739532.0
-4.0,-4.0,0.0,-2.0,-2.0,0.0,-3.0,0.0,1650846771739532.0
1.0,6.0,16.0,5.0,2.0,3.0,2.0,1.0,1650846771760469.0
4.0,-4.0,-13.0,-16.0,-6.0,-1.0,7.0,3.0,1650846771760469.0
-2.0,-7.0,-1.0,-2.0,-4.0,-2.0,3.0,2.0,1650846771761466.0
1.0,8.0,19.0,20.0,8.0,-2.0,-5.0,-4.0,1650846771761466.0
-5.0,-7.0,-16.0,-12.0,-5.0,-3.0,-4.0,-4.0,1650846771784405.0
6.0,4.0,11.0,26.0,12.0,9.0,6.0,6.0,1650846771784405.0
0.0,1.0,3.0,-15.0,-9.0,0.0,-2.0,-1.0,1650846771784405.0
-4.0,-6.0,-1.0,1.0,2.0,4.0,2.0,-3.0,1650846771784405.0
1.0,2.0,7.0,-20.0,-10.0,-2.0,7.0,6.0,1650846771798395.0
2.0,4.0,-11.0,12.0,-4.0,5.0,5.0,5.0,1650846771798395.0
1.0,-6.0,4.0,12.0,16.0,3.0,-7.0,-1.0,1650846771799365.0
-4.0,11.0,4.0,25.0,10.0,1.0,-1.0,-6.0,1650846771799365.0
2.0,-2.0,14.0,0.0,-4.0,6.0,17.0,9.0,1650846771829352.0
-1.0,-6.0,-6.0,-19.0,-9.0,-3.0,-7.0,-4.0,1650846771829352.0
1.0,-3.0,-15.0,-19.0,-18.0,-3.0,12.0,6.0,1650846771830282.0
1.0,8.0,-34.0,16.0,12.0,3.0,-1.0,-2.0,1650846771830282.0
-2.0,13.0,48.0,19.0,6.0,3.0,12.0,4.0,1650846771844301.0
-4.0,-13.0,1.0,6.0,6.0,0.0,-5.0,-2.0,1650846771844301.0
-1.0,5.0,-11.0,-23.0,-12.0,-4.0,-1.0,-1.0,1650846771845243.0
0.0,-10.0,-13.0,-53.0,-13.0,0.0,20.0,11.0,1650846771845243.0
-13.0,-20.0,-29.0,0.0,-2.0,-15.0,-39.0,-21.0,1650846771858220.0
4.0,22.0,25.0,46.0,29.0,14.0,14.0,0.0,1650846771858220.0
2.0,-4.0,24.0,8.0,3.0,0.0,-19.0,-1.0,1650846771859205.0
-8.0,-27.0,-36.0,-24.0,-19.0,-7.0,0.0,-5.0,1650846771859205.0
10.0,26.0,28.0,7.0,1.0,4.0,7.0,6.0,1650846771881146.0
-11.0,-26.0,-12.0,-31.0,-12.0,-10.0,-12.0,-7.0,1650846771881146.0
5.0,17.0,15.0,26.0,15.0,9.0,-1.0,-2.0,1650846771882143.0
-14.0,-5.0,-6.0,40.0,-4.0,-4.0,-20.0,-15.0,1650846771882143.0
14.0,15.0,27.0,48.0,48.0,19.0,14.0,16.0,1650846771904112.0
-2.0,-21.0,-15.0,-40.0,-21.0,-10.0,-2.0,-2.0,1650846771904112.0
-4.0,23.0,18.0,-16.0,-16.0,-3.0,15.0,0.0,1650846771905096.0
14.0,8.0,13.0,56.0,51.0,24.0,26.0,26.0,1650846771905096.0
-15.0,-30.0,-7.0,-17.0,-27.0,-21.0,-49.0,-28.0,1650846771918076.0
1.0,23.0,10.0,-11.0,-9.0,-5.0,-7.0,-8.0,1650846771918076.0
-8.0,-13.0,-27.0,-8.0,6.0,-4.0,-2.0,-5.0,1650846771919045.0
5.0,-4.0,-10.0,-35.0,-19.0,-3.0,16.0,10.0,1650846771919045.0
-3.0,7.0,13.0,43.0,-1.0,-10.0,-21.0,-14.0,1650846771941054.0
-2.0,-3.0,-6.0,-30.0,3.0,0.0,2.0,0.0,1650846771941054.0
5.0,8.0,-7.0,9.0,-2.0,3.0,-15.0,0.0,1650846771941984.0
-3.0,-4.0,-19.0,-22.0,-12.0,-5.0,-3.0,-3.0,1650846771941984.0
6.0,5.0,1.0,-24.0,-13.0,5.0,27.0,12.0,1650846771963953.0
-1.0,0.0,9.0,31.0,23.0,2.0,-8.0,-1.0,1650846771963953.0
9.0,24.0,5.0,-10.0,10.0,12.0,37.0,9.0,1650846771964935.0
2.0,10.0,55.0,26.0,-9.0,-13.0,-69.0,-25.0,1650846771964935.0
-6.0,-17.0,-33.0,-38.0,-1.0,-1.0,1.0,-3.0,1650846771977887.0
10.0,9.0,12.0,22.0,2.0,20.0,47.0,21.0,1650846771977887.0
-10.0,-26.0,-32.0,-25.0,-11.0,-8.0,-15.0,-9.0,1650846771978884.0
7.0,14.0,9.0,-30.0,-3.0,1.0,17.0,4.0,1650846771978884.0
-12.0,15.0,-10.0,41.0,5.0,-6.0,-14.0,-9.0,1650846772000826.0
-14.0,-29.0,10.0,-7.0,-12.0,-5.0,-6.0,-8.0,1650846772000826.0
6.0,-24.0,14.0,20.0,15.0,10.0,8.0,10.0,1650846772001823.0
6.0,16.0,-36.0,-38.0,-29.0,-16.0,-6.0,-2.0,1650846772001823.0
2.0,-2.0,2.0,3.0,11.0,4.0,-10.0,-7.0,1650846772023832.0
17.0,33.0,22.0,17.0,12.0,7.0,24.0,23.0,1650846772023832.0
-13.0,-14.0,4.0,26.0,4.0,-4.0,-11.0,-10.0,1650846772024766.0
0.0,-26.0,9.0,-12.0,-7.0,2.0,17.0,9.0,1650846772024766.0
-5.0,17.0,-36.0,-59.0,-24.0,-10.0,-23.0,-14.0,1650846772038725.0
-1.0,19.0,8.0,54.0,13.0,4.0,9.0,-2.0,1650846772038725.0
2.0,-17.0,4.0,10.0,6.0,-5.0,-20.0,-4.0,1650846772038725.0
-6.0,22.0,9.0,6.0,3.0,-2.0,-8.0,-9.0,1650846772038725.0
5.0,-10.0,15.0,-25.0,-17.0,-1.0,37.0,18.0,1650846772061807.0
-17.0,-44.0,-43.0,-33.0,-23.0,-19.0,-35.0,-25.0,1650846772061807.0
12.0,62.0,16.0,44.0,19.0,3.0,1.0,6.0,1650846772061807.0
-7.0,-1.0,8.0,-18.0,2.0,8.0,8.0,-2.0,1650846772061807.0
9.0,-18.0,5.0,-15.0,-4.0,6.0,18.0,15.0,1650846772083747.0
-2.0,-10.0,-18.0,-61.0,-35.0,-14.0,-5.0,-3.0,1650846772083747.0
-5.0,-2.0,20.0,7.0,3.0,1.0,4.0,-4.0,1650846772084717.0
3.0,7.0,0.0,31.0,11.0,3.0,4.0,1.0,1650846772084717.0
3.0,-8.0,-25.0,-40.0,-21.0,-8.0,1.0,3.0,1650846772098680.0
5.0,-4.0,-12.0,44.0,26.0,9.0,-3.0,6.0,1650846772098680.0
7.0,23.0,-5.0,-10.0,-2.0,5.0,26.0,18.0,1650846772099677.0
-10.0,-41.0,-12.0,-10.0,-11.0,-13.0,-27.0,-17.0,1650846772099677.0
-1.0,12.0,21.0,-33.0,-12.0,-1.0,15.0,3.0,1650846772120648.0
0.0,18.0,-23.0,45.0,23.0,8.0,-1.0,-3.0,1650846772120648.0
2.0,-28.0,10.0,29.0,6.0,1.0,-5.0,2.0,1650846772121618.0
-3.0,-3.0,6.0,-3.0,6.0,2.0,10.0,4.0,1650846772121618.0
8.0,25.0,14.0,17.0,7.0,10.0,11.0,9.0,1650846772143843.0
-1.0,-3.0,11.0,-46.0,-22.0,-8.0,-14.0,-2.0,1650846772143843.0
-10.0,-24.0,-37.0,-54.0,-31.0,-14.0,-6.0,-5.0,1650846772144842.0
4.0,0.0,37.0,69.0,39.0,10.0,12.0,4.0,1650846772144842.0
-10.0,9.0,-28.0,-1.0,-7.0,-13.0,-34.0,-19.0,1650846772158849.0
-1.0,-23.0,14.0,-1.0,1.0,5.0,12.0,5.0,1650846772158849.0
-5.0,-9.0,-30.0,-47.0,-15.0,2.0,12.0,4.0,1650846772158849.0
-7.0,2.0,14.0,-8.0,-19.0,-18.0,-38.0,-19.0,1650846772158849.0
-2.0,-4.0,-3.0,35.0,4.0,-1.0,12.0,5.0,1650846772180775.0
7.0,27.0,6.0,-3.0,19.0,4.0,-3.0,2.0,1650846772180775.0
-8.0,8.0,0.0,-3.0,-14.0,-8.0,-13.0,-15.0,1650846772181743.0
3.0,-8.0,1.0,19.0,12.0,9.0,10.0,9.0,1650846772181743.0
-3.0,-16.0,-30.0,-37.0,-13.0,-9.0,-25.0,-9.0,1650846772203713.0
-5.0,-2.0,30.0,40.0,22.0,5.0,5.0,-1.0,1650846772203713.0
5.0,21.0,13.0,-4.0,-1.0,0.0,-1.0,-2.0,1650846772204682.0
-4.0,-7.0,-55.0,-43.0,-18.0,-7.0,4.0,2.0,1650846772204682.0
3.0,-14.0,24.0,74.0,20.0,11.0,7.0,3.0,1650846772217647.0
4.0,19.0,2.0,-14.0,4.0,0.0,-7.0,-4.0,1650846772217647.0
-5.0,-13.0,-5.0,-19.0,-5.0,-6.0,-9.0,-2.0,1650846772225693.0
0.0,1.0,0.0,5.0,-7.0,1.0,13.0,6.0,1650846772225693.0
2.0,16.0,12.0,-15.0,-3.0,1.0,2.0,2.0,1650846772240588.0
-1.0,-13.0,-33.0,18.0,9.0,0.0,-33.0,-14.0,1650846772240588.0
9.0,18.0,29.0,18.0,10.0,5.0,9.0,3.0,1650846772241586.0
4.0,5.0,-1.0,-19.0,-8.0,4.0,5.0,2.0,1650846772241586.0
-11.0,-21.0,8.0,-22.0,-10.0,-3.0,-4.0,-13.0,1650846772263702.0
11.0,18.0,-8.0,22.0,21.0,12.0,34.0,21.0,1650846772263702.0
-13.0,-33.0,-14.0,-3.0,-10.0,-12.0,-35.0,-18.0,1650846772264700.0
4.0,44.0,19.0,-14.0,-7.0,-1.0,4.0,2.0,1650846772264700.0
4.0,-8.0,-3.0,1.0,5.0,5.0,8.0,5.0,1650846772278725.0
-11.0,-33.0,-13.0,-49.0,-31.0,-13.0,-4.0,-5.0,1650846772278725.0
2.0,9.0,17.0,46.0,27.0,10.0,12.0,1.0,1650846772278725.0
2.0,1.0,-32.0,-42.0,-11.0,-4.0,-9.0,4.0,1650846772278725.0
-1.0,-16.0,-1.0,34.0,18.0,6.0,8.0,2.0,1650846772300751.0
0.0,4.0,17.0,-36.0,-25.0,-4.0,10.0,-1.0,1650846772300751.0
1.0,0.0,-25.0,-14.0,0.0,-6.0,-22.0,-9.0,1650846772301731.0
-3.0,-1.0,43.0,3.0,-9.0,-3.0,-8.0,-7.0,1650846772301731.0
1.0,5.0,-42.0,-2.0,15.0,5.0,-4.0,-1.0,1650846772323660.0
3.0,-2.0,-3.0,-16.0,-14.0,-7.0,-27.0,-15.0,1650846772323660.0
-10.0,-11.0,16.0,21.0,5.0,5.0,20.0,10.0,1650846772324659.0
6.0,19.0,-8.0,-3.0,3.0,3.0,10.0,4.0,1650846772324659.0
-5.0,-22.0,-26.0,-35.0,-11.0,-11.0,-26.0,-14.0,1650846772337651.0
6.0,30.0,60.0,62.0,9.0,8.0,14.0,10.0,1650846772337651.0
-4.0,-22.0,-32.0,-60.0,-24.0,-8.0,-6.0,-5.0,1650846772345629.0
-5.0,-33.0,20.0,104.0,46.0,14.0,8.0,0.0,1650846772345629.0
13.0,67.0,6.0,-28.0,-8.0,1.0,9.0,9.0,1650846772360889.0
0.0,-19.0,-6.0,-15.0,-10.0,0.0,7.0,6.0,1650846772360889.0
-6.0,-9.0,3.0,-4.0,-3.0,5.0,22.0,9.0,1650846772361852.0
-4.0,-1.0,-15.0,-9.0,0.0,-13.0,-20.0,-7.0,1650846772361852.0
-9.0,-34.0,-18.0,3.0,-1.0,-3.0,2.0,-10.0,1650846772383902.0
9.0,30.0,6.0,-2.0,3.0,6.0,8.0,11.0,1650846772383902.0
-9.0,-23.0,-44.0,-21.0,-19.0,-13.0,-18.0,-10.0,1650846772384870.0
3.0,-5.0,1.0,-13.0,1.0,3.0,16.0,9.0,1650846772384870.0
5.0,2.0,28.0,35.0,25.0,11.0,7.0,11.0,1650846772397865.0
-6.0,10.0,-7.0,-28.0,-18.0,-9.0,-3.0,-3.0,1650846772397865.0
7.0,-17.0,-1.0,8.0,-1.0,4.0,20.0,10.0,1650846772405814.0
-10.0,-20.0,-11.0,-5.0,-12.0,-8.0,-24.0,-14.0,1650846772405814.0
5.0,24.0,31.0,40.0,19.0,4.0,-4.0,2.0,1650846772420801.0
2.0,-1.0,-21.0,-14.0,1.0,3.0,12.0,7.0,1650846772420801.0
1.0,5.0,-2.0,-12.0,-5.0,-3.0,-10.0,-6.0,1650846772421773.0
3.0,7.0,-19.0,-41.0,-13.0,5.0,14.0,3.0,1650846772421773.0
5.0,-7.0,19.0,46.0,0.0,1.0,-5.0,2.0,1650846772443830.0
-15.0,-11.0,12.0,4.0,4.0,-7.0,-16.0,-14.0,1650846772443830.0
8.0,23.0,14.0,15.0,8.0,5.0,14.0,9.0,1650846772444843.0
-1.0,-24.0,-35.0,-38.0,-15.0,-8.0,4.0,6.0,1650846772444843.0
10.0,19.0,14.0,1.0,5.0,7.0,27.0,16.0,1650846772457864.0
-9.0,-20.0,15.0,18.0,-1.0,-14.0,-45.0,-23.0,1650846772457864.0
-9.0,-11.0,-13.0,10.0,-2.0,0.0,-4.0,-8.0,1650846772465837.0
7.0,8.0,9.0,-2.0,2.0,3.0,-2.0,6.0,1650846772465837.0
-6.0,-9.0,-9.0,-9.0,-7.0,1.0,16.0,1.0,1650846772480795.0
14.0,28.0,16.0,-6.0,4.0,10.0,25.0,14.0,1650846772480795.0
-8.0,-9.0,2.0,2.0,8.0,-10.0,-34.0,-15.0,1650846772481769.0
2.0,15.0,22.0,19.0,15.0,9.0,7.0,-2.0,1650846772481769.0
4.0,4.0,-27.0,-9.0,-11.0,-3.0,9.0,11.0,1650846772503735.0
-14.0,-42.0,-21.0,-21.0,-9.0,-12.0,-26.0,-20.0,1650846772503735.0
11.0,32.0,18.0,-12.0,4.0,4.0,9.0,9.0,1650846772504706.0
-2.0,-12.0,5.0,21.0,9.0,3.0,-7.0,-8.0,1650846772504706.0
1.0,-9.0,15.0,61.0,30.0,6.0,0.0,0.0,1650846772517697.0
3.0,9.0,-12.0,-8.0,-9.0,-4.0,8.0,12.0,1650846772517697.0
-1.0,5.0,12.0,-7.0,-3.0,0.0,-8.0,-5.0,1650846772525687.0
5.0,18.0,17.0,-9.0,-2.0,2.0,13.0,12.0,1650846772525687.0
-9.0,-49.0,-28.0,-32.0,-19.0,-12.0,-19.0,-7.0,1650846772540608.0
3.0,8.0,-38.0,2.0,2.0,5.0,5.0,-6.0,1650846772540608.0
-5.0,-11.0,4.0,-6.0,-2.0,-1.0,3.0,-1.0,1650846772541606.0
0.0,51.0,0.0,-19.0,-14.0,-12.0,-24.0,-13.0,1650846772541606.0
-13.0,-61.0,-2.0,-25.0,-15.0,-2.0,4.0,-9.0,1650846772564224.0
7.0,19.0,8.0,14.0,8.0,1.0,6.0,16.0,1650846772564224.0
-4.0,-17.0,-40.0,-26.0,-16.0,-5.0,-7.0,-7.0,1650846772565225.0
5.0,-5.0,19.0,24.0,7.0,10.0,22.0,14.0,1650846772565225.0
-5.0,18.0,16.0,-13.0,-10.0,-10.0,-10.0,-5.0,1650846772578182.0
-8.0,-26.0,-27.0,-13.0,-11.0,-7.0,-1.0,-3.0,1650846772578182.0
6.0,8.0,37.0,11.0,4.0,0.0,4.0,7.0,1650846772586170.0
-4.0,-1.0,-19.0,-18.0,-11.0,-7.0,-12.0,-7.0,1650846772586170.0
-7.0,-1.0,-9.0,6.0,11.0,8.0,10.0,-1.0,1650846772601129.0
5.0,16.0,42.0,24.0,4.0,-3.0,-7.0,2.0,1650846772601129.0
-2.0,-11.0,-48.0,-1.0,9.0,7.0,13.0,4.0,1650846772602126.0
6.0,1.0,24.0,22.0,6.0,0.0,8.0,6.0,1650846772602126.0
-5.0,-12.0,-60.0,-48.0,-21.0,-15.0,-19.0,-10.0,1650846772624075.0
2.0,11.0,32.0,41.0,16.0,16.0,17.0,4.0,1650846772624075.0
6.0,-22.0,-3.0,-18.0,-3.0,2.0,13.0,22.0,1650846772625054.0
-3.0,28.0,15.0,19.0,-3.0,-8.0,-16.0,-11.0,1650846772625054.0
9.0,24.0,1.0,-6.0,-1.0,6.0,3.0,5.0,1650846772638040.0
-9.0,-1.0,4.0,-18.0,-15.0,-9.0,-9.0,-8.0,1650846772638040.0
2.0,8.0,22.0,52.0,27.0,15.0,32.0,8.0,1650846772646059.0
-6.0,-18.0,-11.0,-21.0,-21.0,-18.0,-36.0,-16.0,1650846772646059.0
-3.0,9.0,8.0,7.0,5.0,1.0,4.0,1.0,1650846772661017.0
3.0,9.0,-32.0,-14.0,-1.0,2.0,19.0,7.0,1650846772661017.0
-9.0,4.0,11.0,-13.0,-11.0,-16.0,-42.0,-25.0,1650846772661947.0
-8.0,-43.0,-22.0,-2.0,2.0,6.0,22.0,9.0,1650846772661947.0
6.0,31.0,10.0,-39.0,-12.0,-4.0,-3.0,-2.0,1650846772683915.0
-11.0,-38.0,5.0,7.0,6.0,-14.0,-32.0,-14.0,1650846772683915.0
-1.0,0.0,8.0,2.0,-12.0,0.0,7.0,3.0,1650846772684884.0
14.0,37.0,32.0,45.0,37.0,18.0,19.0,14.0,1650846772684884.0
-11.0,-31.0,-22.0,-44.0,-25.0,-20.0,-19.0,-10.0,1650846772706826.0
6.0,6.0,-10.0,2.0,11.0,16.0,24.0,13.0,1650846772706826.0
-2.0,6.0,0.0,-14.0,-15.0,-12.0,-14.0,-6.0,1650846772707823.0
-14.0,-32.0,-19.0,-23.0,-4.0,-4.0,-5.0,-8.0,1650846772707823.0
10.0,32.0,32.0,32.0,8.0,8.0,8.0,7.0,1650846772720816.0
5.0,-23.0,1.0,8.0,19.0,11.0,17.0,10.0,1650846772720816.0
8.0,28.0,14.0,30.0,11.0,4.0,20.0,8.0,1650846772721786.0
-8.0,-20.0,-18.0,-49.0,-27.0,-16.0,-33.0,-19.0,1650846772721786.0
-5.0,21.0,-16.0,16.0,9.0,-1.0,3.0,-7.0,1650846772743917.0
8.0,-10.0,2.0,-8.0,-2.0,4.0,14.0,16.0,1650846772743917.0
0.0,-5.0,2.0,6.0,2.0,-1.0,-7.0,-8.0,1650846772744847.0
2.0,-13.0,-22.0,-3.0,-2.0,5.0,19.0,8.0,1650846772744847.0
0.0,-4.0,9.0,-6.0,3.0,1.0,0.0,4.0,1650846772766816.0
-8.0,-4.0,-12.0,-48.0,-25.0,-11.0,-12.0,-13.0,1650846772766816.0
8.0,41.0,27.0,72.0,24.0,13.0,5.0,2.0,1650846772767822.0
4.0,-14.0,-5.0,-10.0,-1.0,5.0,13.0,14.0,1650846772767822.0
2.0,14.0,23.0,7.0,2.0,2.0,2.0,1.0,1650846772780779.0
-2.0,-5.0,-31.0,-23.0,-8.0,1.0,8.0,1.0,1650846772780779.0
-2.0,-21.0,-6.0,-18.0,-13.0,-8.0,-11.0,-4.0,1650846772781749.0
7.0,25.0,15.0,43.0,13.0,10.0,21.0,9.0,1650846772781749.0
0.0,-11.0,11.0,7.0,6.0,2.0,-14.0,-5.0,1650846772803719.0
-1.0,17.0,2.0,-19.0,-11.0,-3.0,-11.0,-7.0,1650846772803719.0
-1.0,-10.0,-12.0,-15.0,-5.0,7.0,20.0,6.0,1650846772804696.0
-1.0,10.0,-14.0,-19.0,3.0,-9.0,-36.0,-14.0,1650846772804696.0
1.0,-16.0,-1.0,42.0,10.0,4.0,3.0,3.0,1650846772826695.0
-8.0,9.0,9.0,-15.0,-11.0,-10.0,-10.0,-14.0,1650846772826695.0
8.0,-7.0,-35.0,12.0,22.0,14.0,14.0,10.0,1650846772827626.0
-9.0,16.0,12.0,3.0,-20.0,-14.0,-26.0,-20.0,1650846772827626.0
1.0,-10.0,10.0,-26.0,11.0,16.0,20.0,6.0,1650846772840592.0
-2.0,25.0,-14.0,-2.0,-4.0,-12.0,-24.0,-11.0,1650846772840592.0
2.0,5.0,33.0,13.0,-3.0,1.0,20.0,11.0,1650846772841591.0
-3.0,-24.0,-33.0,-26.0,-12.0,-10.0,-16.0,-8.0,1650846772841591.0
0.0,11.0,7.0,-3.0,-3.0,-2.0,-5.0,-4.0,1650846772864527.0
-2.0,-22.0,-12.0,-5.0,-5.0,2.0,-5.0,0.0,1650846772864527.0
2.0,24.0,16.0,-12.0,-3.0,-4.0,-12.0,-9.0,1650846772864527.0
0.0,2.0,2.0,6.0,1.0,0.0,15.0,8.0,1650846772864527.0
-5.0,-12.0,-18.0,-18.0,-8.0,-7.0,0.0,-4.0,1650846772886468.0
2.0,-27.0,14.0,51.0,32.0,9.0,-1.0,0.0,1650846772886468.0
1.0,42.0,5.0,-23.0,-13.0,-6.0,-11.0,-5.0,1650846772887465.0
-2.0,-30.0,-39.0,0.0,6.0,9.0,20.0,7.0,1650846772887465.0
-2.0,12.0,0.0,-39.0,-25.0,-21.0,-16.0,-6.0,1650846772900458.0
5.0,-18.0,5.0,63.0,41.0,26.0,30.0,16.0,1650846772900458.0
-10.0,-14.0,-11.0,-37.0,-17.0,-15.0,-46.0,-24.0,1650846772901433.0
-2.0,-2.0,-16.0,-16.0,3.0,4.0,22.0,11.0,1650846772901433.0
4.0,19.0,32.0,28.0,-1.0,2.0,-2.0,1.0,1650846772924367.0
-4.0,-8.0,-28.0,-44.0,-29.0,-14.0,0.0,-3.0,1650846772924367.0
1.0,-17.0,15.0,4.0,0.0,-1.0,-1.0,8.0,1650846772924367.0
6.0,14.0,11.0,54.0,22.0,7.0,8.0,7.0,1650846772924367.0
-7.0,-30.0,-13.0,-20.0,-3.0,-2.0,-11.0,-7.0,1650846772946342.0
2.0,13.0,13.0,3.0,-5.0,-1.0,-2.0,1.0,1650846772946342.0
-6.0,-16.0,-5.0,-12.0,0.0,-1.0,1.0,-2.0,1650846772947306.0
2.0,20.0,13.0,-15.0,-17.0,-4.0,5.0,-1.0,1650846772947306.0
8.0,9.0,9.0,41.0,28.0,13.0,12.0,12.0,1650846772961055.0
-4.0,12.0,6.0,1.0,-5.0,-3.0,9.0,2.0,1650846772961055.0
-5.0,-45.0,-18.0,-11.0,-3.0,0.0,1.0,-1.0,1650846772961974.0
1.0,6.0,8.0,-10.0,-6.0,-4.0,-7.0,-3.0,1650846772961974.0
-1.0,-4.0,-1.0,13.0,2.0,0.0,-1.0,-4.0,1650846772983948.0
4.0,12.0,4.0,-7.0,-6.0,-1.0,-6.0,0.0,1650846772983948.0
-4.0,9.0,-14.0,-1.0,-2.0,-1.0,1.0,-1.0,1650846772984879.0
0.0,-3.0,11.0,5.0,3.0,-1.0,-8.0,-3.0,1650846772984879.0
-3.0,-3.0,3.0,4.0,4.0,7.0,6.0,-8.0,1650846773006819.0
15.0,4.0,18.0,-1.0,-6.0,-4.0,-8.0,23.0,1650846773006819.0
-30.0,-15.0,-28.0,-2.0,-1.0,-1.0,-5.0,-31.0,1650846773007818.0
11.0,-26.0,4.0,-9.0,-8.0,-27.0,-7.0,16.0,1650846773007818.0
-8.0,26.0,-13.0,2.0,17.0,51.0,10.0,-32.0,1650846773020811.0
-4.0,37.0,44.0,6.0,-13.0,-40.0,-22.0,-7.0,1650846773020811.0
4.0,-18.0,-34.0,8.0,11.0,32.0,20.0,8.0,1650846773021779.0
-3.0,-23.0,-12.0,-15.0,-4.0,-18.0,-8.0,4.0,1650846773021779.0
9.0,-14.0,-3.0,-11.0,-12.0,-21.0,-9.0,16.0,1650846773043789.0
-4.0,-2.0,-18.0,3.0,3.0,4.0,-4.0,1.0,1650846773043789.0
0.0,2.0,4.0,-8.0,-3.0,-10.0,-9.0,-37.0,1650846773044719.0
-1.0,11.0,15.0,9.0,6.0,11.0,3.0,-5.0,1650846773044719.0
6.0,17.0,2.0,3.0,-1.0,-3.0,-1.0,11.0,1650846773066768.0
-6.0,14.0,-1.0,2.0,-1.0,-4.0,-4.0,-14.0,1650846773066768.0
2.0,0.0,1.0,-7.0,-5.0,-12.0,-8.0,0.0,1650846773067765.0
0.0,-13.0,-12.0,-9.0,0.0,17.0,12.0,18.0,1650846773067765.0
-1.0,-5.0,13.0,3.0,-1.0,-4.0,-4.0,-7.0,1650846773080731.0
-6.0,-19.0,-20.0,-2.0,0.0,-7.0,-5.0,-6.0,1650846773080731.0
6.0,15.0,12.0,6.0,7.0,16.0,11.0,12.0,1650846773081728.0
-4.0,19.0,4.0,8.0,2.0,10.0,1.0,-11.0,1650846773081728.0
-2.0,-20.0,-2.0,-5.0,-7.0,-15.0,-6.0,9.0,1650846773103697.0
-1.0,1.0,-5.0,-4.0,-4.0,1.0,1.0,-3.0,1650846773103697.0
8.0,8.0,7.0,3.0,4.0,1.0,4.0,17.0,1650846773104670.0
-7.0,-11.0,-7.0,-11.0,-3.0,-3.0,-2.0,-9.0,1650846773104670.0
0.0,0.0,-4.0,15.0,-3.0,-8.0,-2.0,4.0,1650846773126615.0
-1.0,-13.0,-7.0,-10.0,-2.0,6.0,2.0,-5.0,1650846773126615.0
1.0,1.0,8.0,-5.0,-3.0,-6.0,-4.0,4.0,1650846773127606.0
3.0,12.0,-1.0,0.0,-1.0,2.0,0.0,-2.0,1650846773127606.0
1.0,6.0,5.0,-9.0,-7.0,-4.0,-3.0,-3.0,1650846773140579.0
1.0,-10.0,-6.0,20.0,14.0,11.0,2.0,-1.0,1650846773140579.0
2.0,16.0,5.0,0.0,-3.0,-8.0,-2.0,7.0,1650846773141569.0
-5.0,-25.0,-6.0,-15.0,-3.0,0.0,0.0,-4.0,1650846773141569.0
0.0,17.0,-1.0,-3.0,-4.0,-3.0,0.0,4.0,1650846773162913.0
-2.0,8.0,7.0,-1.0,1.0,6.0,4.0,0.0,1650846773162913.0
-1.0,-28.0,-17.0,2.0,3.0,-4.0,-1.0,4.0,1650846773163911.0
0.0,9.0,12.0,5.0,0.0,1.0,0.0,-5.0,1650846773163911.0
-1.0,1.0,2.0,9.0,6.0,3.0,-5.0,-7.0,1650846773186851.0
-2.0,-11.0,-6.0,-10.0,-9.0,-11.0,-3.0,-2.0,1650846773186851.0
4.0,14.0,20.0,31.0,4.0,5.0,5.0,7.0,1650846773187847.0
1.0,-5.0,-13.0,-8.0,4.0,5.0,0.0,0.0,1650846773187847.0
-2.0,-7.0,5.0,1.0,-3.0,-10.0,-5.0,3.0,1650846773200922.0
-1.0,12.0,6.0,-5.0,-1.0,0.0,-1.0,-3.0,1650846773200922.0
1.0,-1.0,4.0,-3.0,0.0,3.0,4.0,2.0,1650846773201912.0
2.0,14.0,-3.0,-2.0,-1.0,-3.0,-3.0,-4.0,1650846773201912.0
-2.0,-9.0,-16.0,-10.0,-3.0,-4.0,0.0,1.0,1650846773223833.0
-2.0,1.0,5.0,0.0,0.0,4.0,0.0,-2.0,1650846773223833.0
2.0,-1.0,1.0,5.0,0.0,-4.0,-3.0,2.0,1650846773223833.0
-1.0,1.0,7.0,10.0,2.0,0.0,-1.0,0.0,1650846773223833.0
-1.0,-3.0,-4.0,-8.0,-4.0,1.0,1.0,1.0,1650846773246833.0
-3.0,7.0,-3.0,-2.0,-3.0,-8.0,-4.0,-6.0,1650846773246833.0
3.0,-9.0,-2.0,0.0,-2.0,8.0,2.0,3.0,1650846773247771.0
2.0,13.0,7.0,0.0,5.0,6.0,0.0,-1.0,1650846773247771.0
1.0,-5.0,-2.0,-1.0,-3.0,-3.0,-3.0,-1.0,1650846773260770.0
-3.0,-8.0,-4.0,6.0,0.0,2.0,2.0,2.0,1650846773260770.0
1.0,5.0,8.0,-4.0,-2.0,-4.0,-3.0,2.0,1650846773268741.0
0.0,8.0,-1.0,3.0,-4.0,-3.0,-1.0,0.0,1650846773268741.0
-1.0,0.0,-10.0,-7.0,1.0,6.0,3.0,1.0,1650846773283700.0
1.0,-9.0,1.0,-2.0,2.0,8.0,8.0,3.0,1650846773283700.0
-2.0,0.0,1.0,4.0,4.0,-3.0,-2.0,-2.0,1650846773284673.0
-1.0,-17.0,-7.0,-6.0,-5.0,-4.0,-2.0,-2.0,1650846773284673.0
1.0,15.0,2.0,-1.0,0.0,-4.0,-1.0,1.0,1650846773306640.0
0.0,-2.0,-4.0,-2.0,-3.0,1.0,-3.0,-2.0,1650846773306640.0
0.0,-2.0,-3.0,-6.0,-4.0,-4.0,-1.0,1.0,1650846773307609.0
0.0,11.0,7.0,7.0,9.0,4.0,2.0,2.0,1650846773307609.0
-6.0,-27.0,-3.0,3.0,-1.0,-2.0,-3.0,-2.0,1650846773320602.0
0.0,-8.0,-6.0,-2.0,-2.0,0.0,-2.0,0.0,1650846773320602.0
2.0,21.0,4.0,-3.0,0.0,7.0,3.0,1.0,1650846773328620.0
1.0,1.0,1.0,1.0,-4.0,-2.0,0.0,0.0,1650846773328620.0
0.0,-3.0,-7.0,-4.0,-3.0,-1.0,1.0,-1.0,1650846773344510.0
0.0,1.0,-5.0,-5.0,-2.0,-2.0,0.0,-2.0,1650846773344510.0
-1.0,-10.0,-1.0,-2.0,0.0,-1.0,-2.0,-1.0,1650846773344510.0
1.0,11.0,4.0,4.0,2.0,4.0,2.0,0.0,1650846773344510.0
1.0,9.0,3.0,3.0,1.0,1.0,1.0,2.0,1650846773366888.0
-2.0,-17.0,-16.0,-15.0,-7.0,-5.0,-3.0,1.0,1650846773366888.0
2.0,21.0,5.0,-3.0,2.0,2.0,0.0,0.0,1650846773366888.0
-5.0,-17.0,1.0,2.0,0.0,-2.0,1.0,-1.0,1650846773366888.0
2.0,3.0,0.0,4.0,1.0,0.0,1.0,-1.0,1650846773379816.0
1.0,-1.0,3.0,2.0,-2.0,0.0,-3.0,-1.0,1650846773379816.0
1.0,0.0,-4.0,-2.0,-4.0,-3.0,-3.0,-1.0,1650846773388794.0
-2.0,12.0,-4.0,-3.0,0.0,1.0,-2.0,-1.0,1650846773388794.0
-3.0,-27.0,0.0,5.0,4.0,1.0,0.0,-2.0,1650846773403782.0
0.0,3.0,-1.0,3.0,2.0,4.0,2.0,-1.0,1650846773403782.0
-3.0,-10.0,-5.0,-3.0,-5.0,-6.0,-3.0,0.0,1650846773403782.0
1.0,4.0,3.0,2.0,-3.0,1.0,1.0,-1.0,1650846773403782.0
1.0,-1.0,-6.0,-6.0,-4.0,-1.0,-2.0,2.0,1650846773426760.0
3.0,7.0,3.0,0.0,3.0,5.0,2.0,0.0,1650846773426760.0
-4.0,-3.0,-4.0,1.0,-1.0,-7.0,-3.0,0.0,1650846773427714.0
-1.0,-11.0,-10.0,-8.0,-2.0,-1.0,-3.0,0.0,1650846773427714.0
1.0,6.0,5.0,5.0,1.0,2.0,1.0,0.0,1650846773440655.0
-3.0,-3.0,-2.0,-2.0,1.0,0.0,0.0,-2.0,1650846773440655.0
0.0,0.0,3.0,2.0,-1.0,-3.0,-1.0,-1.0,1650846773448663.0
-2.0,-4.0,-1.0,0.0,1.0,0.0,-1.0,-1.0,1650846773448663.0
-1.0,2.0,-4.0,-6.0,-4.0,-2.0,1.0,-1.0,1650846773463727.0
0.0,2.0,3.0,2.0,0.0,-1.0,0.0,0.0,1650846773463727.0
2.0,2.0,2.0,1.0,1.0,-2.0,0.0,-1.0,1650846773463727.0
-3.0,-8.0,1.0,5.0,1.0,1.0,1.0,0.0,1650846773463727.0
-1.0,2.0,0.0,-2.0,-1.0,-2.0,-1.0,-1.0,1650846773486736.0
1.0,1.0,3.0,2.0,1.0,1.0,-1.0,-2.0,1650846773486736.0
-1.0,-4.0,-1.0,-2.0,-2.0,0.0,2.0,1.0,1650846773487706.0
1.0,2.0,4.0,-1.0,-1.0,-3.0,0.0,-2.0,1650846773487706.0
-1.0,-2.0,0.0,0.0,-2.0,-9.0,-1.0,0.0,1650846773508654.0
-4.0,-5.0,-4.0,-4.0,0.0,2.0,3.0,-1.0,1650846773508654.0
2.0,7.0,4.0,1.0,0.0,0.0,-2.0,-2.0,1650846773509648.0
-1.0,-5.0,-3.0,3.0,1.0,1.0,1.0,1.0,1650846773509648.0
0.0,4.0,-1.0,-2.0,-4.0,-2.0,-1.0,-1.0,1650846773523641.0
4.0,2.0,1.0,3.0,0.0,0.0,-1.0,-2.0,1650846773523641.0
-3.0,-3.0,-3.0,-1.0,-1.0,-2.0,-3.0,-3.0,1650846773524607.0
-1.0,-1.0,1.0,0.0,-5.0,-3.0,-1.0,0.0,1650846773524607.0
1.0,2.0,0.0,1.0,1.0,1.0,0.0,1.0,1650846773546616.0
0.0,8.0,3.0,-1.0,-2.0,1.0,-1.0,0.0,1650846773546616.0
2.0,-6.0,-7.0,-2.0,-1.0,0.0,-1.0,1.0,1650846773547546.0
-3.0,-1.0,1.0,2.0,0.0,1.0,-2.0,-3.0,1650846773547546.0
-1.0,0.0,2.0,0.0,0.0,2.0,-2.0,0.0,1650846773560525.0
-1.0,-2.0,0.0,2.0,-1.0,-2.0,0.0,-3.0,1650846773560525.0
0.0,0.0,-3.0,0.0,1.0,1.0,2.0,0.0,1650846773568517.0
3.0,7.0,3.0,0.0,1.0,0.0,-2.0,0.0,1650846773568517.0
-3.0,-21.0,-15.0,-8.0,-4.0,0.0,-2.0,-3.0,1650846773583632.0
-1.0,2.0,5.0,0.0,-1.0,-4.0,-2.0,0.0,1650846773583632.0
-2.0,1.0,2.0,2.0,-1.0,2.0,4.0,1.0,1650846773584617.0
0.0,-1.0,-2.0,0.0,-2.0,-3.0,-2.0,0.0,1650846773584617.0
0.0,11.0,2.0,2.0,4.0,6.0,5.0,-1.0,1650846773606578.0
-1.0,-5.0,1.0,4.0,0.0,-1.0,0.0,-1.0,1650846773606578.0
-1.0,0.0,0.0,-6.0,-3.0,-4.0,-3.0,1.0,1650846773607576.0
-1.0,-5.0,0.0,-1.0,-1.0,-1.0,0.0,-1.0,1650846773607576.0
1.0,0.0,1.0,-1.0,-1.0,-5.0,-2.0,-1.0,1650846773629545.0
2.0,2.0,2.0,-2.0,1.0,2.0,-1.0,1.0,1650846773629545.0
-1.0,-1.0,0.0,3.0,2.0,-1.0,-2.0,0.0,1650846773629545.0
1.0,-5.0,-8.0,-6.0,-3.0,-2.0,0.0,0.0,1650846773629545.0
-1.0,-3.0,5.0,0.0,-1.0,-1.0,-3.0,0.0,1650846773643578.0
-1.0,7.0,-11.0,-2.0,-1.0,1.0,2.0,0.0,1650846773643578.0
-1.0,-19.0,6.0,-1.0,-1.0,-3.0,-1.0,-1.0,1650846773644508.0
1.0,1.0,-5.0,1.0,0.0,2.0,0.0,-2.0,1650846773644508.0
2.0,5.0,-1.0,0.0,1.0,-2.0,1.0,-1.0,1650846773666559.0
-3.0,-4.0,-2.0,-3.0,-3.0,-3.0,-1.0,-2.0,1650846773666559.0
1.0,2.0,5.0,0.0,1.0,2.0,-3.0,0.0,1650846773667536.0
-2.0,-7.0,0.0,3.0,2.0,0.0,-3.0,-1.0,1650846773667536.0
0.0,-4.0,-7.0,-5.0,-5.0,-2.0,-2.0,2.0,1650846773688643.0
0.0,-1.0,-1.0,-5.0,-2.0,-2.0,0.0,-3.0,1650846773688643.0
-1.0,0.0,-2.0,1.0,0.0,0.0,1.0,-1.0,1650846773689639.0
0.0,11.0,-1.0,-1.0,-3.0,-1.0,1.0,-1.0,1650846773689639.0
-2.0,-4.0,3.0,1.0,0.0,-2.0,0.0,0.0,1650846773703603.0
-4.0,-2.0,1.0,1.0,-1.0,-7.0,-4.0,0.0,1650846773703603.0
1.0,3.0,3.0,-2.0,-2.0,5.0,0.0,1.0,1650846773704574.0
1.0,-5.0,3.0,1.0,0.0,0.0,1.0,2.0,1650846773704574.0
1.0,-1.0,-3.0,1.0,0.0,1.0,1.0,1.0,1650846773726514.0
-3.0,-3.0,-7.0,0.0,0.0,-4.0,-3.0,-2.0,1650846773726514.0
1.0,7.0,6.0,1.0,-1.0,-3.0,-2.0,-2.0,1650846773727523.0
-1.0,1.0,1.0,0.0,-1.0,-1.0,-1.0,1.0,1650846773727523.0
1.0,2.0,3.0,1.0,1.0,0.0,-1.0,-2.0,1650846773749565.0
1.0,-7.0,-2.0,-2.0,1.0,3.0,3.0,0.0,1650846773749565.0
-1.0,5.0,-7.0,1.0,4.0,-3.0,-1.0,-3.0,1650846773749565.0
-3.0,-6.0,-5.0,-5.0,-3.0,-3.0,-1.0,-4.0,1650846773749565.0
-2.0,6.0,3.0,-1.0,1.0,-3.0,0.0,-1.0,1650846773763843.0
-1.0,-6.0,1.0,1.0,3.0,1.0,-1.0,-1.0,1650846773763843.0
-2.0,-5.0,-3.0,-2.0,-3.0,-2.0,0.0,-2.0,1650846773763843.0
1.0,4.0,1.0,0.0,0.0,0.0,0.0,1.0,1650846773763843.0
1.0,-2.0,-2.0,1.0,-2.0,-1.0,-2.0,-2.0,1650846773786819.0
3.0,7.0,-3.0,-1.0,-3.0,-2.0,-1.0,2.0,1650846773786819.0
1.0,-2.0,-2.0,0.0,1.0,0.0,-1.0,0.0,1650846773787817.0
-4.0,-7.0,3.0,1.0,0.0,4.0,3.0,0.0,1650846773787817.0
-2.0,-1.0,2.0,1.0,-2.0,-2.0,-3.0,-1.0,1650846773808762.0
2.0,-3.0,2.0,0.0,1.0,1.0,0.0,1.0,1650846773808762.0
0.0,11.0,-4.0,-5.0,-4.0,-6.0,2.0,-1.0,1650846773809764.0
1.0,-6.0,-2.0,-1.0,0.0,0.0,0.0,0.0,1650846773809764.0
-2.0,4.0,1.0,5.0,1.0,2.0,1.0,-1.0,1650846773823748.0
-4.0,-4.0,-1.0,1.0,0.0,2.0,-1.0,1.0,1650846773823748.0
0.0,-1.0,2.0,0.0,-3.0,-1.0,0.0,0.0,1650846773823748.0
1.0,4.0,-1.0,0.0,-3.0,-1.0,1.0,-1.0,1650846773823748.0
-1.0,-3.0,-3.0,-1.0,4.0,1.0,0.0,-1.0,1650846773846660.0
3.0,4.0,2.0,0.0,-1.0,-1.0,1.0,0.0,1650846773846660.0
-4.0,-9.0,-2.0,-2.0,-2.0,0.0,-2.0,-1.0,1650846773847685.0
0.0,3.0,-1.0,-2.0,2.0,0.0,-1.0,1.0,1650846773847685.0
-1.0,-5.0,-6.0,-2.0,0.0,-1.0,-2.0,0.0,1650846773869576.0
-1.0,-1.0,4.0,1.0,-1.0,0.0,-3.0,-1.0,1650846773869576.0
0.0,-1.0,1.0,0.0,-2.0,-2.0,-1.0,1.0,1650846773869576.0
1.0,-8.0,-2.0,1.0,-1.0,-4.0,-3.0,-2.0,1650846773869576.0
2.0,9.0,-2.0,2.0,3.0,8.0,3.0,2.0,1650846773883538.0
-3.0,-1.0,-10.0,-8.0,-3.0,-3.0,-1.0,-1.0,1650846773883538.0
-2.0,-6.0,5.0,0.0,0.0,-1.0,-1.0,1.0,1650846773884536.0
1.0,7.0,4.0,-1.0,-2.0,-3.0,-1.0,0.0,1650846773884536.0
2.0,9.0,4.0,2.0,-3.0,-1.0,-1.0,1.0,1650846773906617.0
-2.0,-18.0,-4.0,1.0,-2.0,-3.0,-1.0,-2.0,1650846773906617.0
0.0,5.0,-6.0,0.0,-2.0,0.0,0.0,-2.0,1650846773907607.0
-1.0,-5.0,0.0,-1.0,4.0,2.0,-1.0,-1.0,1650846773907607.0
-2.0,10.0,2.0,-1.0,-1.0,-2.0,-3.0,0.0,1650846773929542.0
-1.0,2.0,2.0,0.0,-1.0,-2.0,0.0,1.0,1650846773929542.0
0.0,0.0,-4.0,-1.0,1.0,-1.0,0.0,-1.0,1650846773929760.0
-1.0,-1.0,1.0,1.0,-1.0,0.0,1.0,1.0,1650846773929760.0
-4.0,-6.0,-2.0,-3.0,-1.0,-3.0,-2.0,-3.0,1650846773943738.0
2.0,5.0,0.0,0.0,2.0,4.0,-1.0,0.0,1650846773943738.0
2.0,3.0,1.0,-1.0,-3.0,-1.0,1.0,-1.0,1650846773943738.0
-3.0,-4.0,-7.0,-1.0,-1.0,0.0,1.0,1.0,1650846773943738.0
0.0,-5.0,4.0,0.0,0.0,-1.0,-1.0,0.0,1650846773966747.0
0.0,-1.0,-1.0,-2.0,-1.0,1.0,0.0,0.0,1650846773966747.0
1.0,2.0,0.0,-1.0,-1.0,0.0,1.0,0.0,1650846773967744.0
2.0,5.0,2.0,-2.0,-2.0,0.0,-2.0,0.0,1650846773967744.0
-4.0,-6.0,8.0,4.0,-1.0,-3.0,0.0,-3.0,1650846773988716.0
-2.0,10.0,-10.0,-6.0,-5.0,-2.0,-1.0,-1.0,1650846773988716.0
-5.0,-30.0,-9.0,-3.0,-1.0,3.0,-2.0,-1.0,1650846773989695.0
-1.0,2.0,-6.0,-1.0,2.0,-1.0,0.0,-1.0,1650846773989695.0
-1.0,-4.0,1.0,0.0,2.0,0.0,-1.0,-2.0,1650846774003649.0
1.0,11.0,7.0,3.0,0.0,1.0,2.0,1.0,1650846774003649.0
0.0,5.0,-4.0,0.0,-2.0,-3.0,-1.0,1.0,1650846774004647.0
0.0,0.0,5.0,0.0,2.0,0.0,1.0,1.0,1650846774004647.0
1.0,-5.0,-2.0,-2.0,0.0,1.0,3.0,0.0,1650846774026588.0
3.0,1.0,-1.0,-3.0,-1.0,-2.0,1.0,-3.0,1650846774026588.0
1.0,2.0,-2.0,0.0,2.0,0.0,1.0,0.0,1650846774027585.0
-3.0,-6.0,0.0,-1.0,-3.0,-4.0,-2.0,-2.0,1650846774027585.0
-2.0,2.0,-2.0,1.0,0.0,-2.0,-3.0,0.0,1650846774048676.0
-1.0,-3.0,0.0,-1.0,-1.0,4.0,2.0,1.0,1650846774048676.0
1.0,7.0,5.0,4.0,2.0,0.0,0.0,-1.0,1650846774050643.0
-4.0,-5.0,0.0,-1.0,-3.0,-1.0,0.0,-2.0,1650846774050643.0
0.0,9.0,-1.0,-4.0,-3.0,-3.0,-2.0,1.0,1650846774062679.0
-1.0,-22.0,0.0,3.0,1.0,1.0,1.0,-2.0,1650846774062679.0
-2.0,5.0,0.0,-1.0,-1.0,0.0,-2.0,0.0,1650846774071588.0
0.0,6.0,1.0,2.0,0.0,1.0,-1.0,1.0,1650846774071588.0
0.0,-1.0,-3.0,-1.0,-3.0,-2.0,-1.0,2.0,1650846774086715.0
-2.0,-7.0,-6.0,1.0,1.0,-1.0,0.0,-1.0,1650846774086715.0
4.0,5.0,7.0,0.0,-2.0,-2.0,-3.0,-1.0,1650846774088683.0
-3.0,-5.0,-4.0,0.0,1.0,-1.0,-2.0,-3.0,1650846774088683.0
0.0,-3.0,-3.0,-5.0,-2.0,1.0,-1.0,1.0,1650846774109626.0
-1.0,2.0,5.0,1.0,2.0,-2.0,-2.0,1.0,1650846774109626.0
-3.0,-3.0,-6.0,-1.0,-1.0,1.0,0.0,-1.0,1650846774110624.0
2.0,3.0,1.0,-1.0,-2.0,-1.0,1.0,3.0,1650846774110624.0
0.0,-1.0,1.0,-1.0,2.0,-1.0,0.0,-1.0,1650846774122620.0
0.0,1.0,0.0,-1.0,-1.0,0.0,0.0,-4.0,1650846774122620.0
-1.0,-1.0,-5.0,-3.0,-4.0,1.0,0.0,-1.0,1650846774131568.0
1.0,0.0,-2.0,-1.0,2.0,2.0,0.0,-1.0,1650846774131568.0
0.0,6.0,5.0,3.0,-2.0,-2.0,-1.0,1.0,1650846774146601.0
-1.0,-5.0,-2.0,-1.0,0.0,-2.0,-1.0,0.0,1650846774146601.0
0.0,2.0,-2.0,-1.0,-1.0,-1.0,-2.0,0.0,1650846774148549.0
0.0,-5.0,-11.0,-2.0,-1.0,-1.0,0.0,1.0,1650846774148549.0
-3.0,-4.0,13.0,1.0,0.0,3.0,1.0,-2.0,1650846774168618.0
1.0,6.0,10.0,2.0,0.0,-4.0,-4.0,-2.0,1650846774168618.0
3.0,4.0,-3.0,-6.0,-4.0,-3.0,0.0,2.0,1650846774175571.0
0.0,-1.0,-3.0,0.0,0.0,1.0,0.0,-1.0,1650846774175571.0
-1.0,-4.0,-10.0,-5.0,-2.0,-1.0,-1.0,1.0,1650846774182620.0
-1.0,-1.0,1.0,1.0,-2.0,1.0,-1.0,-1.0,1650846774182620.0
-2.0,-3.0,0.0,1.0,5.0,1.0,1.0,-1.0,1650846774191527.0
0.0,4.0,3.0,2.0,-1.0,-2.0,0.0,0.0,1650846774191527.0
-1.0,-4.0,-7.0,-1.0,-2.0,0.0,0.0,-1.0,1650846774206487.0
-1.0,0.0,1.0,1.0,2.0,0.0,0.0,0.0,1650846774206487.0
-2.0,1.0,-4.0,0.0,0.0,2.0,0.0,-2.0,1650846774208482.0
-2.0,-2.0,-6.0,-3.0,-2.0,-4.0,-2.0,-1.0,1650846774208482.0
1.0,7.0,4.0,0.0,-1.0,2.0,0.0,1.0,1650846774229512.0
-2.0,-17.0,-9.0,-3.0,-2.0,-1.0,-2.0,2.0,1650846774229512.0
-3.0,-2.0,-3.0,-2.0,-1.0,-2.0,-1.0,-1.0,1650846774230818.0
2.0,12.0,19.0,0.0,-4.0,-2.0,-2.0,-2.0,1650846774230818.0
-5.0,-23.0,-22.0,-4.0,-2.0,-1.0,-2.0,-2.0,1650846774242769.0
2.0,11.0,4.0,0.0,1.0,0.0,0.0,0.0,1650846774242769.0
0.0,0.0,1.0,2.0,3.0,1.0,-1.0,1.0,1650846774251732.0
1.0,-4.0,2.0,0.0,0.0,1.0,1.0,0.0,1650846774251732.0
1.0,6.0,-4.0,-1.0,0.0,0.0,0.0,-1.0,1650846774266714.0
0.0,2.0,2.0,1.0,-1.0,1.0,0.0,-1.0,1650846774266714.0
-1.0,-2.0,6.0,-1.0,-2.0,-2.0,-1.0,0.0,1650846774267684.0
-1.0,-3.0,-5.0,-2.0,-2.0,-2.0,-3.0,-2.0,1650846774267684.0
1.0,0.0,4.0,2.0,-1.0,-1.0,2.0,1.0,1650846774288628.0
3.0,5.0,-4.0,0.0,1.0,-1.0,0.0,0.0,1650846774288628.0
-1.0,-4.0,-3.0,-3.0,0.0,0.0,-2.0,-2.0,1650846774290623.0
0.0,1.0,1.0,0.0,-1.0,-1.0,-1.0,0.0,1650846774290623.0
1.0,4.0,-2.0,-3.0,0.0,1.0,1.0,3.0,1650846774302618.0
-4.0,0.0,1.0,-1.0,-2.0,-4.0,-1.0,-1.0,1650846774302618.0
1.0,-1.0,-4.0,0.0,2.0,0.0,1.0,2.0,1650846774311568.0
-2.0,-2.0,3.0,-1.0,1.0,2.0,2.0,0.0,1650846774311568.0
-4.0,-12.0,-11.0,-8.0,-6.0,-5.0,-1.0,-4.0,1650846774326534.0
0.0,9.0,3.0,0.0,0.0,1.0,1.0,-2.0,1650846774326534.0
-2.0,-5.0,-4.0,0.0,-1.0,-3.0,-2.0,-2.0,1650846774328523.0
1.0,7.0,0.0,3.0,1.0,0.0,-2.0,1.0,1650846774328523.0
0.0,-3.0,-1.0,-2.0,-3.0,0.0,1.0,1.0,1650846774349587.0
0.0,0.0,6.0,4.0,3.0,-1.0,-2.0,-2.0,1650846774349587.0
-1.0,-3.0,-2.0,-5.0,-3.0,-2.0,-2.0,0.0,1650846774350597.0
-3.0,3.0,18.0,3.0,3.0,0.0,0.0,-1.0,1650846774350597.0
0.0,-2.0,-18.0,3.0,5.0,2.0,-1.0,-2.0,1650846774363216.0
1.0,7.0,15.0,5.0,-2.0,0.0,1.0,1.0,1650846774363216.0
0.0,-2.0,0.0,0.0,2.0,1.0,1.0,1.0,1650846774371758.0
1.0,-7.0,-14.0,-6.0,-4.0,-2.0,-1.0,1.0,1650846774371758.0
0.0,6.0,9.0,-3.0,-2.0,-2.0,0.0,0.0,1650846774386745.0
-5.0,-17.0,-27.0,-6.0,-1.0,-1.0,-1.0,-1.0,1650846774386745.0
1.0,0.0,12.0,3.0,-1.0,0.0,3.0,-1.0,1650846774387716.0
1.0,-1.0,-12.0,3.0,1.0,1.0,0.0,-1.0,1650846774387716.0
0.0,7.0,42.0,6.0,2.0,-1.0,-1.0,1.0,1650846774408687.0
1.0,-2.0,-28.0,-5.0,-4.0,-1.0,0.0,0.0,1650846774408687.0
-4.0,0.0,-1.0,-2.0,0.0,-2.0,-1.0,-2.0,1650846774410663.0
1.0,3.0,7.0,1.0,2.0,1.0,-2.0,0.0,1650846774410663.0
-5.0,-8.0,-5.0,3.0,-2.0,-1.0,-1.0,-3.0,1650846774422651.0
1.0,5.0,10.0,1.0,1.0,0.0,1.0,0.0,1650846774422651.0
1.0,0.0,-5.0,-1.0,3.0,3.0,-1.0,0.0,1650846774431598.0
0.0,-2.0,-7.0,-4.0,-3.0,-2.0,-1.0,0.0,1650846774431598.0
-3.0,-8.0,-19.0,-3.0,-2.0,-2.0,-3.0,-3.0,1650846774446628.0
0.0,-2.0,12.0,1.0,-3.0,1.0,1.0,-1.0,1650846774446628.0
0.0,2.0,9.0,6.0,0.0,1.0,1.0,0.0,1650846774448579.0
-2.0,-5.0,-18.0,-6.0,-3.0,-1.0,-1.0,-2.0,1650846774448579.0
3.0,7.0,5.0,0.0,0.0,0.0,-3.0,1.0,1650846774468833.0
0.0,3.0,-1.0,-3.0,1.0,-1.0,0.0,1.0,1650846774468833.0
-2.0,-4.0,-7.0,-4.0,-3.0,-4.0,-1.0,0.0,1650846774470827.0
-4.0,-8.0,4.0,1.0,0.0,0.0,1.0,-1.0,1650846774470827.0
0.0,5.0,7.0,3.0,-1.0,0.0,0.0,1.0,1650846774482823.0
-1.0,-8.0,-7.0,-8.0,-4.0,-4.0,-2.0,0.0,1650846774482823.0
0.0,4.0,11.0,2.0,-3.0,-4.0,-2.0,-1.0,1650846774491773.0
1.0,-2.0,-11.0,1.0,3.0,0.0,-1.0,-1.0,1650846774491773.0
1.0,0.0,-1.0,-6.0,2.0,-1.0,1.0,-1.0,1650846774506760.0
0.0,0.0,5.0,4.0,0.0,-2.0,-2.0,-2.0,1650846774506760.0
-4.0,-3.0,-9.0,-7.0,-5.0,-3.0,-3.0,-2.0,1650846774507729.0
-1.0,0.0,7.0,3.0,-1.0,-4.0,-3.0,-2.0,1650846774507729.0
4.0,2.0,3.0,5.0,4.0,8.0,5.0,2.0,1650846774528706.0
-1.0,1.0,-3.0,-7.0,-4.0,-4.0,-5.0,0.0,1650846774528706.0
0.0,-4.0,-6.0,-1.0,3.0,2.0,3.0,1.0,1650846774530668.0
-3.0,1.0,4.0,-5.0,-4.0,-2.0,-2.0,-1.0,1650846774530668.0
3.0,3.0,6.0,20.0,4.0,1.0,3.0,0.0,1650846774551732.0
1.0,-2.0,-3.0,-7.0,-2.0,-1.0,0.0,3.0,1650846774551732.0
-1.0,-2.0,-2.0,-2.0,-5.0,-2.0,-4.0,-3.0,1650846774552729.0
0.0,0.0,4.0,-3.0,1.0,0.0,3.0,2.0,1650846774552729.0
0.0,2.0,-1.0,-1.0,3.0,-3.0,-3.0,-2.0,1650846774566892.0
0.0,-2.0,1.0,4.0,-1.0,1.0,2.0,1.0,1650846774566892.0
0.0,1.0,-1.0,-2.0,-3.0,-1.0,-1.0,1.0,1650846774567827.0
1.0,-1.0,0.0,8.0,5.0,2.0,0.0,0.0,1650846774567827.0
-2.0,-1.0,-6.0,-9.0,-6.0,-5.0,-3.0,-3.0,1650846774588798.0
0.0,3.0,3.0,2.0,5.0,2.0,2.0,-1.0,1650846774588798.0
1.0,1.0,2.0,0.0,2.0,3.0,0.0,-1.0,1650846774590766.0
0.0,0.0,0.0,-5.0,-7.0,-2.0,0.0,-1.0,1650846774590766.0
-4.0,-5.0,-3.0,3.0,1.0,2.0,-1.0,-1.0,1650846774611710.0
-1.0,3.0,5.0,10.0,3.0,-1.0,-1.0,-1.0,1650846774611710.0
-1.0,0.0,0.0,0.0,-4.0,0.0,-1.0,-1.0,1650846774613708.0
0.0,-3.0,-5.0,-4.0,7.0,2.0,-1.0,2.0,1650846774613708.0
2.0,1.0,-1.0,-2.0,-2.0,-1.0,-2.0,1.0,1650846774626670.0
-2.0,-3.0,-7.0,-8.0,-5.0,-6.0,-3.0,-1.0,1650846774626670.0
-1.0,-1.0,0.0,6.0,3.0,1.0,-2.0,-2.0,1650846774628666.0
1.0,-1.0,1.0,-3.0,-5.0,-3.0,1.0,0.0,1650846774628666.0
-1.0,-1.0,-1.0,-7.0,-6.0,-3.0,-2.0,-2.0,1650846774648677.0
0.0,1.0,2.0,5.0,2.0,3.0,1.0,-1.0,1650846774648677.0
0.0,-1.0,-2.0,-1.0,-2.0,-3.0,0.0,0.0,1650846774650611.0
0.0,2.0,-2.0,-4.0,-7.0,-3.0,-3.0,0.0,1650846774650611.0
-1.0,-2.0,2.0,-2.0,3.0,1.0,0.0,0.0,1650846774671578.0
-4.0,-1.0,0.0,-3.0,-4.0,-1.0,0.0,-1.0,1650846774671578.0
3.0,4.0,-1.0,-2.0,2.0,0.0,4.0,0.0,1650846774673544.0
-3.0,-8.0,-1.0,5.0,0.0,1.0,0.0,1.0,1650846774673544.0
0.0,0.0,-3.0,-1.0,-2.0,0.0,-4.0,-2.0,1650846774686538.0
1.0,0.0,5.0,2.0,3.0,2.0,1.0,0.0,1650846774686538.0
-3.0,-2.0,-4.0,-3.0,3.0,1.0,1.0,0.0,1650846774688504.0
-1.0,2.0,-1.0,2.0,-5.0,-3.0,1.0,0.0,1650846774688504.0
0.0,1.0,-2.0,-3.0,3.0,1.0,3.0,1.0,1650846774709475.0
-2.0,-3.0,0.0,9.0,5.0,1.0,-3.0,-2.0,1650846774709475.0
2.0,1.0,0.0,-2.0,-1.0,-5.0,-3.0,1.0,1650846774710446.0
0.0,0.0,-2.0,-8.0,-4.0,-3.0,-3.0,-1.0,1650846774710446.0
0.0,0.0,-2.0,4.0,1.0,-5.0,-4.0,-1.0,1650846774731456.0
0.0,3.0,-2.0,-10.0,1.0,11.0,8.0,1.0,1650846774731456.0
-1.0,1.0,2.0,3.0,-2.0,0.0,0.0,3.0,1650846774733384.0
0.0,0.0,0.0,2.0,3.0,3.0,-1.0,-1.0,1650846774733384.0
2.0,6.0,2.0,-8.0,-1.0,-1.0,2.0,0.0,1650846774746393.0
2.0,-2.0,-1.0,4.0,0.0,-1.0,-1.0,1.0,1650846774746393.0
-6.0,-13.0,1.0,3.0,-4.0,-4.0,-4.0,-3.0,1650846774752360.0
1.0,5.0,-18.0,-6.0,0.0,1.0,-1.0,-1.0,1650846774752360.0
-5.0,-12.0,2.0,0.0,-3.0,0.0,-2.0,-1.0,1650846774769287.0
2.0,4.0,-1.0,3.0,2.0,-2.0,-4.0,-1.0,1650846774769287.0
3.0,2.0,2.0,0.0,2.0,3.0,9.0,6.0,1650846774770296.0
-1.0,5.0,8.0,-3.0,-4.0,-8.0,-11.0,-5.0,1650846774770296.0
-2.0,-4.0,-8.0,1.0,-1.0,2.0,1.0,0.0,1650846774791228.0
0.0,1.0,1.0,-5.0,-4.0,-1.0,1.0,1.0,1650846774791228.0
2.0,2.0,-2.0,-2.0,-3.0,-2.0,-3.0,-3.0,1650846774793239.0
-3.0,-14.0,-32.0,-3.0,-3.0,-1.0,-1.0,-2.0,1650846774793239.0
0.0,15.0,33.0,5.0,0.0,-1.0,-1.0,1.0,1650846774806216.0
-4.0,-32.0,-34.0,-11.0,-2.0,-4.0,1.0,1.0,1650846774806216.0
3.0,14.0,28.0,3.0,-2.0,0.0,-5.0,-5.0,1650846774813173.0
-2.0,-15.0,-30.0,2.0,2.0,0.0,2.0,-2.0,1650846774813173.0
2.0,6.0,5.0,0.0,-1.0,-2.0,0.0,0.0,1650846774829130.0
0.0,9.0,9.0,-2.0,-2.0,1.0,4.0,1.0,1650846774829130.0
-3.0,-5.0,7.0,-4.0,-5.0,-4.0,-7.0,0.0,1650846774831123.0
-2.0,-1.0,0.0,1.0,4.0,1.0,-5.0,-4.0,1650846774831123.0
-2.0,-3.0,-1.0,-1.0,1.0,-1.0,-4.0,-6.0,1650846774851069.0
3.0,4.0,-8.0,6.0,4.0,3.0,5.0,4.0,1650846774851069.0
3.0,-5.0,-27.0,-6.0,-1.0,0.0,5.0,10.0,1650846774853064.0
-2.0,6.0,30.0,-3.0,-5.0,-3.0,-7.0,-5.0,1650846774853064.0
1.0,1.0,-30.0,3.0,3.0,4.0,2.0,-4.0,1650846774866033.0
3.0,8.0,18.0,3.0,-3.0,-3.0,-4.0,1.0,1650846774866033.0
1.0,5.0,-2.0,-2.0,4.0,9.0,9.0,2.0,1650846774873010.0
-1.0,-1.0,14.0,17.0,1.0,-4.0,5.0,0.0,1650846774873010.0
-3.0,0.0,-1.0,-4.0,-8.0,-8.0,-17.0,-6.0,1650846774888967.0
5.0,14.0,12.0,3.0,3.0,4.0,12.0,3.0,1650846774888967.0
-5.0,-24.0,-65.0,-26.0,-15.0,-9.0,-17.0,-5.0,1650846774890962.0
-5.0,3.0,41.0,-5.0,-1.0,-1.0,1.0,-2.0,1650846774890962.0
3.0,-2.0,2.0,8.0,8.0,6.0,9.0,8.0,1650846774911906.0
-7.0,-19.0,13.0,12.0,-1.0,-3.0,-8.0,-11.0,1650846774911906.0
6.0,42.0,3.0,2.0,1.0,-1.0,-3.0,3.0,1650846774912905.0
-2.0,-17.0,13.0,-7.0,-3.0,3.0,5.0,0.0,1650846774912905.0
2.0,11.0,-37.0,-20.0,-9.0,-6.0,-5.0,-3.0,1650846774925868.0
-2.0,3.0,-10.0,-34.0,-18.0,-6.0,-2.0,-2.0,1650846774925868.0
-1.0,-19.0,28.0,19.0,15.0,6.0,9.0,-4.0,1650846774932852.0
1.0,-8.0,-1.0,56.0,26.0,8.0,6.0,5.0,1650846774932852.0
-1.0,6.0,-12.0,-19.0,-5.0,-3.0,-12.0,-8.0,1650846774948809.0
-2.0,9.0,3.0,1.0,-7.0,-6.0,-10.0,-2.0,1650846774948809.0
-6.0,-11.0,-7.0,-31.0,-25.0,-10.0,1.0,-5.0,1650846774950802.0
3.0,4.0,6.0,12.0,28.0,9.0,5.0,9.0,1650846774950802.0
3.0,6.0,-1.0,7.0,3.0,3.0,21.0,6.0,1650846774971745.0
2.0,-6.0,5.0,-7.0,2.0,2.0,-6.0,0.0,1650846774971745.0
-5.0,15.0,-1.0,-5.0,-6.0,-10.0,-29.0,-18.0,1650846774972743.0
5.0,-3.0,-16.0,-10.0,0.0,12.0,13.0,7.0,1650846774972743.0
-2.0,-8.0,11.0,11.0,1.0,-2.0,8.0,5.0,1650846774985713.0
1.0,9.0,1.0,6.0,4.0,5.0,33.0,15.0,1650846774985713.0
-7.0,-9.0,16.0,-4.0,1.0,-9.0,-16.0,-7.0,1650846774992692.0
-4.0,-7.0,-10.0,2.0,-11.0,-11.0,-20.0,-10.0,1650846774992692.0
-3.0,-9.0,3.0,-20.0,-9.0,-3.0,-6.0,-2.0,1650846775008647.0
-1.0,-6.0,-57.0,-7.0,-2.0,0.0,9.0,5.0,1650846775008647.0
-4.0,-21.0,-31.0,-30.0,-10.0,0.0,1.0,-6.0,1650846775010643.0
12.0,41.0,36.0,51.0,37.0,25.0,37.0,23.0,1650846775010643.0
-10.0,-26.0,9.0,-20.0,-23.0,-22.0,-38.0,-19.0,1650846775031590.0
-1.0,6.0,24.0,36.0,24.0,6.0,-4.0,-6.0,1650846775031590.0
7.0,27.0,-15.0,-49.0,-7.0,3.0,11.0,12.0,1650846775033581.0
-11.0,-38.0,12.0,28.0,-14.0,-3.0,4.0,-7.0,1650846775033581.0
5.0,-6.0,-24.0,2.0,18.0,18.0,26.0,11.0,1650846775045549.0
-7.0,4.0,38.0,-11.0,-13.0,-12.0,1.0,-5.0,1650846775045549.0
4.0,11.0,8.0,50.0,21.0,14.0,9.0,7.0,1650846775054525.0
-1.0,-2.0,-32.0,-65.0,-30.0,-13.0,-9.0,-2.0,1650846775054525.0
-1.0,4.0,22.0,35.0,14.0,10.0,15.0,4.0,1650846775069484.0
1.0,-22.0,-30.0,-11.0,-6.0,-1.0,4.0,5.0,1650846775069484.0
-1.0,11.0,45.0,9.0,0.0,-4.0,-7.0,-1.0,1650846775070481.0
3.0,-5.0,-30.0,-24.0,-18.0,-10.0,6.0,2.0,1650846775070481.0
-6.0,-3.0,-4.0,-48.0,-12.0,-15.0,-28.0,-7.0,1650846775091426.0
1.0,8.0,17.0,70.0,26.0,11.0,15.0,9.0,1650846775091426.0
2.0,-7.0,-2.0,-33.0,-7.0,-4.0,1.0,-4.0,1650846775093421.0
0.0,36.0,-6.0,10.0,-12.0,-1.0,-27.0,-20.0,1650846775093421.0
-1.0,-10.0,-19.0,-47.0,-7.0,-1.0,6.0,5.0,1650846775105389.0
7.0,14.0,48.0,15.0,12.0,8.0,14.0,8.0,1650846775105389.0
-6.0,-17.0,-4.0,-19.0,-15.0,-16.0,-38.0,-13.0,1650846775114372.0
-8.0,-2.0,-24.0,-15.0,3.0,-4.0,8.0,-7.0,1650846775114372.0
11.0,12.0,32.0,5.0,-4.0,0.0,6.0,5.0,1650846775129324.0
-1.0,24.0,10.0,1.0,9.0,5.0,-31.0,-14.0,1650846775129324.0
-3.0,-33.0,-26.0,22.0,2.0,2.0,24.0,8.0,1650846775130322.0
5.0,12.0,17.0,-34.0,-9.0,-4.0,7.0,8.0,1650846775130322.0
-9.0,-5.0,6.0,33.0,10.0,0.0,-4.0,-5.0,1650846775152263.0
-4.0,-22.0,-22.0,-13.0,-7.0,-8.0,1.0,1.0,1650846775152263.0
-4.0,-42.0,20.0,28.0,12.0,6.0,5.0,-3.0,1650846775157250.0
3.0,68.0,-11.0,-32.0,-14.0,-9.0,-23.0,-8.0,1650846775157250.0
6.0,-10.0,18.0,82.0,44.0,24.0,27.0,18.0,1650846775165295.0
0.0,-17.0,-35.0,-34.0,-22.0,-5.0,-18.0,-4.0,1650846775165295.0
-3.0,7.0,-9.0,4.0,8.0,5.0,11.0,0.0,1650846775174206.0
-2.0,-23.0,29.0,8.0,12.0,3.0,-11.0,-5.0,1650846775174206.0
-5.0,-4.0,-32.0,-32.0,-26.0,-12.0,-3.0,-5.0,1650846775189192.0
1.0,11.0,22.0,34.0,2.0,1.0,8.0,0.0,1650846775189192.0
3.0,3.0,-3.0,18.0,6.0,0.0,-4.0,3.0,1650846775190162.0
0.0,-9.0,-25.0,4.0,8.0,2.0,5.0,0.0,1650846775190162.0
-1.0,13.0,31.0,-13.0,-13.0,-4.0,-8.0,-3.0,1650846775211107.0
-14.0,-38.0,-59.0,-31.0,-19.0,-13.0,-21.0,-16.0,1650846775211107.0
21.0,43.0,15.0,6.0,3.0,21.0,65.0,38.0,1650846775213102.0
-15.0,-22.0,-6.0,-4.0,-23.0,-29.0,-57.0,-25.0,1650846775213102.0
0.0,4.0,41.0,27.0,20.0,10.0,10.0,-3.0,1650846775225068.0
-5.0,-13.0,-38.0,-30.0,-7.0,-14.0,-25.0,-11.0,1650846775225068.0
3.0,-23.0,11.0,-4.0,-19.0,-5.0,2.0,5.0,1650846775234224.0
7.0,31.0,-24.0,-23.0,1.0,11.0,33.0,18.0,1650846775234224.0
0.0,-29.0,-11.0,9.0,24.0,6.0,-19.0,-4.0,1650846775249239.0
-5.0,35.0,43.0,-13.0,-10.0,2.0,4.0,-6.0,1650846775249239.0
-7.0,-9.0,-52.0,-20.0,3.0,-1.0,-5.0,-3.0,1650846775251167.0
1.0,4.0,47.0,-3.0,-9.0,0.0,1.0,1.0,1650846775251167.0
6.0,4.0,-46.0,11.0,-7.0,3.0,26.0,12.0,1650846775271141.0
5.0,11.0,13.0,11.0,18.0,9.0,-4.0,-7.0,1650846775271141.0
-4.0,15.0,7.0,-23.0,-16.0,3.0,26.0,11.0,1650846775273121.0
-10.0,-43.0,-28.0,-43.0,-12.0,-8.0,-19.0,-14.0,1650846775273121.0
-5.0,22.0,37.0,49.0,12.0,-4.0,-25.0,-18.0,1650846775285139.0
8.0,-8.0,-62.0,-49.0,-9.0,-1.0,20.0,15.0,1650846775285139.0
-9.0,20.0,74.0,93.0,59.0,9.0,-36.0,-20.0,1650846775294052.0
9.0,-25.0,4.0,-2.0,9.0,10.0,25.0,16.0,1650846775294052.0
4.0,4.0,-16.0,-30.0,-13.0,4.0,15.0,12.0,1650846775309039.0
-7.0,-4.0,8.0,-28.0,-25.0,-14.0,-12.0,-9.0,1650846775309039.0
1.0,-19.0,-42.0,-9.0,-12.0,-5.0,4.0,2.0,1650846775311020.0
-6.0,4.0,33.0,48.0,48.0,6.0,-12.0,-8.0,1650846775311020.0
5.0,27.0,4.0,59.0,15.0,4.0,-2.0,2.0,1650846775332017.0
6.0,-20.0,18.0,-13.0,-6.0,-1.0,4.0,4.0,1650846775332017.0
3.0,25.0,-39.0,-47.0,-23.0,-10.0,-4.0,-5.0,1650846775332948.0
0.0,-11.0,45.0,73.0,23.0,13.0,26.0,18.0,1650846775332948.0
-10.0,-34.0,-57.0,-74.0,-33.0,-14.0,6.0,-6.0,1650846775344916.0
1.0,9.0,17.0,32.0,30.0,10.0,-2.0,2.0,1650846775344916.0
7.0,45.0,28.0,-4.0,-3.0,-10.0,-18.0,-12.0,1650846775353891.0
-11.0,-24.0,-57.0,-35.0,-18.0,9.0,17.0,5.0,1650846775353891.0
-1.0,18.0,32.0,0.0,-2.0,-2.0,-34.0,-20.0,1650846775368851.0
-4.0,8.0,-24.0,-3.0,-5.0,0.0,5.0,3.0,1650846775368851.0
2.0,2.0,30.0,22.0,12.0,12.0,15.0,12.0,1650846775370847.0
-8.0,-36.0,1.0,-12.0,-18.0,-15.0,-35.0,-23.0,1650846775370847.0
6.0,60.0,4.0,-40.0,-14.0,-4.0,-14.0,-11.0,1650846775391818.0
1.0,9.0,62.0,29.0,2.0,0.0,12.0,7.0,1650846775391818.0
-19.0,-75.0,-87.0,-11.0,-11.0,-8.0,-6.0,-10.0,1650846775392808.0
11.0,50.0,30.0,22.0,7.0,7.0,18.0,6.0,1650846775392808.0
3.0,-20.0,-4.0,-24.0,-5.0,-1.0,-5.0,6.0,1650846775404782.0
-7.0,-11.0,-44.0,3.0,3.0,-6.0,-10.0,-10.0,1650846775404782.0
3.0,-13.0,22.0,14.0,13.0,6.0,4.0,4.0,1650846775413798.0
6.0,23.0,-25.0,-32.0,-19.0,-9.0,-23.0,-9.0,1650846775413798.0
-2.0,-40.0,7.0,23.0,0.0,-2.0,11.0,3.0,1650846775428701.0
8.0,7.0,-4.0,-25.0,-2.0,10.0,22.0,16.0,1650846775428701.0
-7.0,-22.0,-5.0,14.0,3.0,-4.0,-13.0,-7.0,1650846775430687.0
4.0,24.0,-10.0,-14.0,-13.0,-9.0,2.0,-1.0,1650846775430687.0
8.0,-3.0,-2.0,-37.0,-7.0,9.0,24.0,15.0,1650846775458725.0
-18.0,-24.0,-23.0,31.0,7.0,-14.0,-54.0,-39.0,1650846775458725.0
-14.0,-4.0,6.0,-19.0,-9.0,-1.0,5.0,-4.0,1650846775460694.0
10.0,15.0,-24.0,-20.0,-13.0,-2.0,-2.0,5.0,1650846775460694.0
1.0,5.0,24.0,-14.0,2.0,3.0,32.0,19.0,1650846775465684.0
-6.0,-3.0,30.0,77.0,23.0,8.0,2.0,-4.0,1650846775465684.0
6.0,-24.0,10.0,-47.0,-15.0,3.0,1.0,6.0,1650846775474655.0
-2.0,19.0,6.0,60.0,53.0,17.0,4.0,0.0,1650846775474655.0
-3.0,-12.0,33.0,-3.0,-17.0,-7.0,13.0,4.0,1650846775488646.0
1.0,-6.0,-36.0,-36.0,-16.0,-8.0,-3.0,4.0,1650846775488646.0
-7.0,4.0,-4.0,-33.0,-28.0,-17.0,-24.0,-20.0,1650846775490614.0
4.0,1.0,47.0,71.0,28.0,14.0,24.0,16.0,1650846775490614.0
-11.0,-35.0,-21.0,-12.0,-4.0,-9.0,-11.0,-6.0,1650846775511557.0
6.0,23.0,17.0,-29.0,-13.0,-6.0,1.0,3.0,1650846775511557.0
24.0,72.0,20.0,15.0,15.0,12.0,9.0,14.0,1650846775513563.0
-9.0,-67.0,-30.0,-18.0,-25.0,-15.0,-9.0,-1.0,1650846775513563.0
-5.0,20.0,11.0,76.0,57.0,13.0,-6.0,-11.0,1650846775533622.0
15.0,17.0,40.0,12.0,0.0,7.0,29.0,20.0,1650846775533622.0
-12.0,-42.0,-55.0,-54.0,-23.0,-21.0,-50.0,-28.0,1650846775535619.0
12.0,49.0,37.0,65.0,29.0,11.0,25.0,15.0,1650846775535619.0
-6.0,-26.0,-21.0,-23.0,-16.0,3.0,15.0,8.0,1650846775548889.0
-10.0,-9.0,-12.0,-61.0,-34.0,-24.0,-49.0,-26.0,1650846775548889.0
7.0,5.0,33.0,90.0,40.0,18.0,28.0,19.0,1650846775555639.0
3.0,10.0,5.0,-92.0,-24.0,-10.0,-8.0,-2.0,1650846775555639.0
-4.0,-29.0,-40.0,6.0,-8.0,-7.0,-15.0,-8.0,1650846775571597.0
7.0,-8.0,17.0,2.0,1.0,9.0,20.0,18.0,1650846775571597.0
-13.0,22.0,-30.0,-23.0,-16.0,-11.0,-44.0,-34.0,1650846775573584.0
-10.0,-65.0,-44.0,-42.0,-26.0,-7.0,1.0,-7.0,1650846775573584.0
26.0,69.0,20.0,65.0,50.0,27.0,20.0,31.0,1650846775594507.0
-14.0,-18.0,-24.0,-41.0,-26.0,-29.0,-34.0,-19.0,1650846775594507.0
10.0,26.0,62.0,4.0,-2.0,7.0,25.0,11.0,1650846775596503.0
-21.0,-33.0,-44.0,-10.0,-12.0,-6.0,-2.0,-8.0,1650846775596503.0
-1.0,-1.0,-17.0,27.0,43.0,6.0,-18.0,-18.0,1650846775609495.0
-4.0,-4.0,-10.0,-3.0,-4.0,11.0,14.0,2.0,1650846775609495.0
1.0,-2.0,36.0,10.0,3.0,0.0,17.0,14.0,1650846775610465.0
-4.0,-20.0,-21.0,-12.0,5.0,0.0,-10.0,-10.0,1650846775610465.0
-2.0,29.0,-20.0,-84.0,-56.0,-23.0,-4.0,-2.0,1650846775631478.0
-7.0,-20.0,36.0,15.0,3.0,8.0,23.0,6.0,1650846775631478.0
6.0,20.0,-53.0,-7.0,37.0,-3.0,-32.0,-10.0,1650846775633430.0
-7.0,-12.0,-8.0,-25.0,-24.0,-6.0,6.0,-1.0,1650846775633430.0
-3.0,-16.0,-5.0,-59.0,-46.0,-17.0,1.0,-4.0,1650846775654456.0
5.0,-25.0,63.0,80.0,77.0,35.0,-5.0,-6.0,1650846775654456.0
-7.0,-26.0,-36.0,-38.0,-19.0,-5.0,35.0,24.0,1650846775655345.0
18.0,51.0,26.0,24.0,11.0,0.0,2.0,12.0,1650846775655345.0
-21.0,-31.0,-1.0,-10.0,-16.0,-15.0,-49.0,-32.0,1650846775669371.0
-5.0,0.0,12.0,-18.0,-6.0,2.0,10.0,-3.0,1650846775669371.0
6.0,-1.0,-10.0,-15.0,-8.0,-3.0,-4.0,-4.0,1650846775675319.0
2.0,7.0,32.0,29.0,29.0,14.0,12.0,7.0,1650846775675319.0
2.0,14.0,-6.0,16.0,-14.0,-10.0,-6.0,8.0,1650846775691248.0
0.0,2.0,-19.0,-71.0,-28.0,-12.0,-15.0,-6.0,1650846775691248.0
0.0,-25.0,-2.0,59.0,40.0,15.0,26.0,15.0,1650846775693252.0
-11.0,9.0,34.0,-64.0,-47.0,-29.0,-48.0,-34.0,1650846775693252.0
1.0,-33.0,-53.0,69.0,34.0,17.0,46.0,24.0,1650846775714256.0
2.0,-17.0,21.0,23.0,-2.0,-8.0,-17.0,-3.0,1650846775714256.0
-2.0,44.0,-40.0,-15.0,-4.0,-1.0,-2.0,-12.0,1650846775715211.0
9.0,-8.0,13.0,-17.0,-1.0,11.0,19.0,22.0,1650846775715211.0
-7.0,7.0,16.0,-8.0,-13.0,-2.0,-6.0,-13.0,1650846775728177.0
-1.0,22.0,-55.0,-27.0,-8.0,-3.0,17.0,2.0,1650846775728177.0
-1.0,-32.0,49.0,-15.0,10.0,8.0,20.0,8.0,1650846775735199.0
-6.0,-11.0,-55.0,50.0,-3.0,-7.0,-28.0,-19.0,1650846775735199.0
9.0,37.0,65.0,-18.0,0.0,0.0,4.0,4.0,1650846775752118.0
-1.0,-22.0,-52.0,-12.0,-8.0,-1.0,-1.0,2.0,1650846775752118.0
15.0,55.0,41.0,0.0,-28.0,-6.0,11.0,6.0,1650846775753097.0
7.0,-18.0,-3.0,-11.0,15.0,6.0,9.0,9.0,1650846775753097.0
10.0,58.0,37.0,29.0,14.0,7.0,-5.0,6.0,1650846775774175.0
3.0,18.0,47.0,22.0,9.0,8.0,8.0,3.0,1650846775774175.0
-16.0,-46.0,-80.0,-33.0,-17.0,-11.0,-26.0,-17.0,1650846775776142.0
1.0,-52.0,-17.0,-59.0,-27.0,-11.0,10.0,7.0,1650846775776142.0
-7.0,4.0,25.0,-4.0,12.0,10.0,-15.0,-23.0,1650846775788138.0
17.0,16.0,-5.0,-37.0,13.0,10.0,42.0,38.0,1650846775788138.0
0.0,26.0,19.0,1.0,-11.0,-2.0,1.0,7.0,1650846775795091.0
-18.0,-1.0,-21.0,-16.0,-2.0,-13.0,-45.0,-31.0,1650846775795091.0
-2.0,-26.0,-5.0,-38.0,-19.0,-12.0,9.0,5.0,1650846775811049.0
2.0,10.0,21.0,98.0,33.0,10.0,14.0,2.0,1650846775811049.0
8.0,-1.0,37.0,24.0,13.0,9.0,3.0,4.0,1650846775813044.0
-9.0,-10.0,-44.0,-15.0,-17.0,-9.0,-31.0,-24.0,1650846775813044.0
1.0,-17.0,-8.0,-71.0,-14.0,10.0,28.0,17.0,1650846775834056.0
-4.0,-20.0,-37.0,41.0,-5.0,-11.0,-31.0,-11.0,1650846775834056.0
-5.0,12.0,73.0,90.0,85.0,32.0,31.0,11.0,1650846775836002.0
7.0,35.0,22.0,-10.0,4.0,4.0,1.0,2.0,1650846775836002.0
-5.0,-20.0,-30.0,-18.0,-7.0,-7.0,-11.0,-8.0,1650846775848972.0
3.0,9.0,-20.0,-42.0,-25.0,-6.0,-1.0,-2.0,1650846775848972.0
-9.0,-2.0,10.0,20.0,-14.0,-4.0,-13.0,-15.0,1650846775854987.0
26.0,47.0,84.0,53.0,46.0,33.0,49.0,37.0,1650846775854987.0
-5.0,-9.0,-18.0,6.0,-8.0,-11.0,-3.0,-1.0,1650846775871943.0
-10.0,-6.0,-9.0,-15.0,-7.0,-9.0,-23.0,-14.0,1650846775871943.0
-4.0,-23.0,-37.0,-23.0,-27.0,-11.0,-8.0,-7.0,1650846775872911.0
7.0,15.0,21.0,3.0,13.0,12.0,29.0,19.0,1650846775872911.0
-2.0,7.0,7.0,31.0,5.0,-7.0,-39.0,-23.0,1650846775893867.0
5.0,12.0,5.0,-13.0,3.0,5.0,13.0,8.0,1650846775893867.0
-3.0,-14.0,-15.0,-25.0,-12.0,-7.0,-11.0,-5.0,1650846775895835.0
1.0,29.0,18.0,5.0,-13.0,-8.0,16.0,13.0,1650846775895835.0
4.0,23.0,27.0,-23.0,-12.0,-7.0,-4.0,3.0,1650846775908799.0
-11.0,-38.0,-49.0,-9.0,-6.0,-4.0,0.0,-3.0,1650846775908799.0
-2.0,3.0,6.0,64.0,35.0,9.0,-6.0,-4.0,1650846775915788.0
-1.0,14.0,-3.0,-19.0,-14.0,-5.0,1.0,2.0,1650846775915788.0
-1.0,-8.0,-8.0,3.0,-1.0,1.0,8.0,2.0,1650846775931806.0
-1.0,-1.0,20.0,6.0,9.0,4.0,3.0,-1.0,1650846775931806.0
6.0,-1.0,-4.0,-25.0,-8.0,-5.0,-1.0,2.0,1650846775932764.0
-3.0,-11.0,-3.0,4.0,-1.0,-4.0,-9.0,-6.0,1650846775932764.0
0.0,-10.0,-10.0,20.0,12.0,7.0,0.0,-3.0,1650846775953706.0
-2.0,-2.0,-6.0,-44.0,-26.0,-13.0,-15.0,-7.0,1650846775953706.0
5.0,20.0,-8.0,4.0,-10.0,3.0,8.0,6.0,1650846775955686.0
-4.0,-31.0,12.0,20.0,15.0,-1.0,-8.0,-7.0,1650846775955686.0
-13.0,-44.0,-34.0,-12.0,-13.0,-15.0,-11.0,-7.0,1650846775968667.0
11.0,64.0,15.0,-5.0,7.0,24.0,20.0,8.0,1650846775968667.0
0.0,6.0,19.0,-19.0,-17.0,-16.0,-12.0,-2.0,1650846775975648.0
-3.0,-14.0,-21.0,-4.0,-5.0,1.0,-7.0,-8.0,1650846775975648.0
-2.0,-6.0,1.0,8.0,1.0,-21.0,-8.0,0.0,1650846775991663.0
4.0,9.0,18.0,5.0,7.0,32.0,25.0,6.0,1650846775991663.0
-2.0,-20.0,-12.0,-17.0,-3.0,7.0,-13.0,7.0,1650846775993659.0
-16.0,10.0,-3.0,3.0,-4.0,-5.0,3.0,-24.0,1650846775993659.0
6.0,-26.0,-13.0,-2.0,3.0,16.0,11.0,3.0,1650846776013605.0
2.0,-23.0,12.0,7.0,-1.0,-18.0,-12.0,2.0,1650846776013605.0
0.0,32.0,-28.0,-14.0,-8.0,-8.0,-13.0,-9.0,1650846776015600.0
4.0,25.0,15.0,0.0,1.0,2.0,1.0,1.0,1650846776015600.0
-2.0,3.0,8.0,16.0,4.0,1.0,2.0,-1.0,1650846776027597.0
-2.0,7.0,-8.0,-3.0,0.0,-8.0,-9.0,-2.0,1650846776027597.0
-6.0,-16.0,-6.0,-20.0,-11.0,1.0,3.0,-17.0,1650846776036584.0
-1.0,15.0,-5.0,0.0,0.0,-7.0,-3.0,7.0,1650846776036584.0
-4.0,-20.0,2.0,7.0,4.0,7.0,3.0,-1.0,1650846776051403.0
-1.0,9.0,14.0,9.0,1.0,-3.0,-3.0,3.0,1650846776051403.0
1.0,-20.0,-16.0,-22.0,-11.0,-16.0,0.0,1.0,1650846776053332.0
-4.0,-3.0,-18.0,-6.0,1.0,3.0,3.0,5.0,1650846776053332.0
9.0,30.0,14.0,4.0,-1.0,6.0,0.0,-1.0,1650846776074447.0
-3.0,1.0,-4.0,2.0,2.0,-2.0,-3.0,1.0,1650846776074447.0
1.0,12.0,6.0,0.0,-3.0,-16.0,-19.0,-12.0,1650846776075445.0
-4.0,-37.0,-12.0,-5.0,5.0,32.0,26.0,1.0,1650846776075445.0
1.0,15.0,-13.0,-10.0,0.0,-7.0,-1.0,2.0,1650846776087413.0
-3.0,-24.0,6.0,5.0,1.0,-7.0,-7.0,-2.0,1650846776087413.0
3.0,20.0,18.0,7.0,-3.0,-10.0,0.0,2.0,1650846776096400.0
-3.0,-6.0,-4.0,-3.0,-4.0,-2.0,-9.0,-1.0,1650846776096400.0
-1.0,6.0,-41.0,-8.0,-4.0,-2.0,-3.0,-2.0,1650846776111348.0
3.0,39.0,28.0,9.0,6.0,4.0,3.0,-4.0,1650846776111348.0
-1.0,-41.0,-22.0,-10.0,-5.0,3.0,3.0,3.0,1650846776113345.0
-7.0,-16.0,5.0,6.0,-6.0,-11.0,-7.0,-1.0,1650846776113345.0
5.0,1.0,9.0,9.0,8.0,10.0,9.0,5.0,1650846776133815.0
1.0,2.0,0.0,-6.0,3.0,-2.0,-5.0,-6.0,1650846776133815.0
-4.0,-5.0,1.0,-11.0,-8.0,2.0,6.0,2.0,1650846776135814.0
6.0,6.0,7.0,28.0,8.0,0.0,-2.0,3.0,1650846776135814.0
-2.0,3.0,4.0,-12.0,-8.0,-1.0,-3.0,-2.0,1650846776148137.0
-1.0,11.0,-13.0,-13.0,-10.0,-7.0,-4.0,-4.0,1650846776148137.0
-3.0,-3.0,13.0,2.0,5.0,4.0,4.0,2.0,1650846776156821.0
3.0,-2.0,-11.0,-9.0,-6.0,-4.0,-2.0,1.0,1650846776156821.0
-3.0,-1.0,3.0,-3.0,1.0,0.0,-4.0,-2.0,1650846776171840.0
0.0,14.0,5.0,3.0,-2.0,-4.0,-1.0,-3.0,1650846776171840.0
-3.0,-43.0,-13.0,-8.0,-3.0,4.0,5.0,2.0,1650846776172810.0
1.0,13.0,1.0,-4.0,-3.0,-6.0,-5.0,-2.0,1650846776172810.0
-1.0,-2.0,-1.0,4.0,1.0,4.0,1.0,1.0,1650846776193774.0
1.0,-2.0,-18.0,-6.0,-7.0,-11.0,-3.0,-2.0,1650846776193774.0
-2.0,1.0,-5.0,-11.0,-2.0,14.0,3.0,0.0,1650846776195749.0
-1.0,-6.0,4.0,2.0,4.0,-8.0,-3.0,-1.0,1650846776195749.0
-3.0,-12.0,3.0,7.0,2.0,0.0,0.0,2.0,1650846776207744.0
-2.0,-13.0,-9.0,-7.0,-3.0,1.0,-8.0,-11.0,1650846776207744.0
4.0,11.0,16.0,10.0,0.0,-5.0,-1.0,1.0,1650846776217690.0
-3.0,-2.0,-7.0,-5.0,1.0,-2.0,-6.0,-3.0,1650846776217690.0
4.0,18.0,5.0,-2.0,0.0,5.0,4.0,2.0,1650846776231691.0
-4.0,-18.0,-1.0,3.0,1.0,-1.0,0.0,0.0,1650846776231691.0
-1.0,-18.0,-6.0,-3.0,0.0,-3.0,-2.0,1.0,1650846776233679.0
3.0,22.0,14.0,0.0,1.0,4.0,2.0,2.0,1650846776233679.0
-3.0,-21.0,-6.0,-1.0,-5.0,-6.0,-2.0,-3.0,1650846776253594.0
1.0,4.0,-2.0,-1.0,0.0,0.0,0.0,1.0,1650846776253594.0
0.0,31.0,8.0,4.0,4.0,6.0,2.0,0.0,1650846776255588.0
-5.0,-14.0,-5.0,-1.0,-1.0,-3.0,-2.0,-1.0,1650846776255588.0
-3.0,-4.0,-2.0,2.0,0.0,-5.0,-3.0,-2.0,1650846776267596.0
0.0,-8.0,3.0,-4.0,-5.0,0.0,2.0,2.0,1650846776267596.0
-1.0,-2.0,-2.0,-2.0,0.0,-1.0,-1.0,0.0,1650846776276545.0
2.0,-7.0,1.0,-4.0,-2.0,-1.0,-1.0,1.0,1650846776276545.0
1.0,8.0,-6.0,9.0,11.0,3.0,2.0,0.0,1650846776299496.0
-2.0,-9.0,9.0,0.0,-3.0,-3.0,0.0,1.0,1650846776299496.0
-2.0,0.0,3.0,4.0,1.0,1.0,0.0,-1.0,1650846776300480.0
-4.0,0.0,-1.0,-7.0,-3.0,-1.0,-2.0,0.0,1650846776300480.0
-1.0,7.0,8.0,-5.0,-3.0,-2.0,0.0,-1.0,1650846776314432.0
1.0,-3.0,-7.0,3.0,3.0,2.0,1.0,1.0,1650846776314432.0
0.0,-8.0,2.0,-5.0,-3.0,-2.0,-2.0,-1.0,1650846776315432.0
6.0,9.0,-3.0,3.0,2.0,3.0,0.0,0.0,1650846776315432.0
1.0,23.0,8.0,0.0,-3.0,-1.0,1.0,-1.0,1650846776327430.0
-3.0,3.0,-2.0,2.0,1.0,0.0,2.0,-1.0,1650846776327430.0
1.0,5.0,-2.0,3.0,0.0,2.0,1.0,1.0,1650846776336372.0
-4.0,-14.0,-10.0,-3.0,0.0,-2.0,0.0,-2.0,1650846776336372.0
4.0,2.0,11.0,0.0,0.0,0.0,-1.0,0.0,1650846776351434.0
-3.0,1.0,-6.0,-8.0,-4.0,-2.0,-1.0,-2.0,1650846776351434.0
6.0,10.0,4.0,1.0,2.0,-3.0,3.0,7.0,1650846776353389.0
-2.0,-11.0,-3.0,1.0,3.0,1.0,1.0,1.0,1650846776353389.0
-1.0,2.0,0.0,-4.0,-5.0,-3.0,-2.0,0.0,1650846776374345.0
2.0,5.0,0.0,-3.0,-1.0,1.0,0.0,-1.0,1650846776374345.0
-5.0,-17.0,6.0,12.0,3.0,2.0,1.0,-2.0,1650846776375330.0
-4.0,-12.0,-11.0,-7.0,0.0,-1.0,-2.0,-2.0,1650846776375330.0
1.0,22.0,6.0,1.0,0.0,2.0,1.0,1.0,1650846776387332.0
2.0,-8.0,1.0,-4.0,-1.0,-2.0,0.0,2.0,1650846776387332.0
-2.0,-11.0,-5.0,6.0,0.0,-2.0,-1.0,-3.0,1650846776396301.0
1.0,-2.0,3.0,2.0,-4.0,3.0,-1.0,1.0,1650846776396301.0
-3.0,-1.0,-2.0,1.0,0.0,1.0,0.0,-1.0,1650846776411234.0
1.0,1.0,-4.0,1.0,0.0,1.0,0.0,1.0,1650846776411234.0
-3.0,16.0,9.0,-3.0,-2.0,-3.0,-1.0,-1.0,1650846776413229.0
7.0,13.0,-3.0,3.0,1.0,-4.0,-2.0,0.0,1650846776413229.0
-3.0,-7.0,0.0,-6.0,-3.0,-1.0,-1.0,0.0,1650846776434212.0
-2.0,-3.0,-5.0,5.0,3.0,1.0,-1.0,-2.0,1650846776434212.0
2.0,-1.0,0.0,-2.0,-1.0,0.0,-2.0,0.0,1650846776436170.0
0.0,10.0,4.0,-2.0,-1.0,-1.0,0.0,0.0,1650846776436170.0
-2.0,-13.0,-2.0,1.0,-2.0,0.0,-2.0,-1.0,1650846776456198.0
-1.0,10.0,-3.0,-4.0,-2.0,-2.0,-1.0,1.0,1650846776456198.0
-1.0,13.0,3.0,5.0,2.0,2.0,1.0,-2.0,1650846776458166.0
1.0,-2.0,-3.0,-5.0,0.0,1.0,-1.0,1.0,1650846776458166.0
1.0,-2.0,-12.0,-5.0,-3.0,-2.0,0.0,-2.0,1650846776471159.0
-3.0,-17.0,9.0,4.0,1.0,1.0,-2.0,1.0,1650846776471159.0
-1.0,-1.0,3.0,4.0,3.0,-1.0,0.0,-1.0,1650846776473113.0
-1.0,-4.0,-8.0,-8.0,-3.0,-1.0,0.0,0.0,1650846776473113.0
3.0,22.0,2.0,-2.0,-3.0,2.0,2.0,0.0,1650846776494076.0
0.0,-22.0,-6.0,1.0,0.0,-1.0,-1.0,1.0,1650846776494076.0
-1.0,-6.0,-10.0,-4.0,-2.0,-1.0,0.0,0.0,1650846776500041.0
-2.0,-2.0,13.0,5.0,0.0,-3.0,-1.0,-2.0,1650846776500041.0
-3.0,-9.0,-3.0,0.0,2.0,7.0,1.0,0.0,1650846776517037.0
-3.0,0.0,-3.0,1.0,-1.0,-1.0,0.0,-2.0,1650846776517037.0
1.0,5.0,-6.0,-6.0,-1.0,0.0,0.0,0.0,1650846776517994.0
0.0,-1.0,-2.0,-4.0,0.0,-2.0,3.0,0.0,1650846776517994.0
0.0,-10.0,-2.0,-1.0,-7.0,-4.0,-1.0,-1.0,1650846776531995.0
2.0,10.0,5.0,3.0,9.0,4.0,1.0,1.0,1650846776531995.0
-2.0,-3.0,2.0,-5.0,-1.0,1.0,-2.0,0.0,1650846776532975.0
0.0,12.0,4.0,1.0,-2.0,-3.0,-1.0,-1.0,1650846776532975.0
0.0,-13.0,-2.0,-2.0,0.0,-2.0,-1.0,-1.0,1650846776553917.0
-1.0,7.0,-10.0,-5.0,-5.0,0.0,0.0,-2.0,1650846776553917.0
-2.0,-12.0,-3.0,-3.0,-3.0,-5.0,-2.0,-1.0,1650846776555913.0
-2.0,-17.0,-10.0,0.0,0.0,3.0,0.0,-3.0,1650846776555913.0
4.0,47.0,30.0,10.0,6.0,2.0,-1.0,0.0,1650846776576405.0
1.0,-5.0,-14.0,-6.0,-6.0,-3.0,-2.0,-2.0,1650846776576405.0
0.0,4.0,-2.0,-1.0,-3.0,-3.0,-2.0,-2.0,1650846776578379.0
0.0,13.0,6.0,3.0,0.0,0.0,-1.0,-1.0,1650846776578379.0
-4.0,-40.0,-20.0,-4.0,-3.0,-2.0,-1.0,0.0,1650846776591354.0
-4.0,11.0,4.0,0.0,0.0,0.0,1.0,-1.0,1650846776591354.0
4.0,27.0,12.0,2.0,-1.0,0.0,1.0,-1.0,1650846776597344.0
1.0,-1.0,-3.0,2.0,-1.0,0.0,-1.0,4.0,1650846776597344.0
-2.0,-2.0,-2.0,0.0,-1.0,2.0,-2.0,-1.0,1650846776614284.0
-2.0,-8.0,-2.0,-1.0,-1.0,-3.0,1.0,0.0,1650846776614284.0
1.0,7.0,1.0,3.0,0.0,1.0,0.0,2.0,1650846776615295.0
-4.0,-15.0,-5.0,2.0,3.0,1.0,-2.0,0.0,1650846776615295.0
2.0,6.0,-1.0,-6.0,-1.0,-3.0,0.0,0.0,1650846776636264.0
-1.0,-12.0,-10.0,-2.0,-5.0,1.0,0.0,0.0,1650846776636264.0
0.0,27.0,17.0,2.0,-1.0,-1.0,0.0,-3.0,1650846776638220.0
1.0,-5.0,-6.0,-2.0,-2.0,1.0,1.0,-2.0,1650846776638220.0
-2.0,-8.0,-5.0,5.0,1.0,-3.0,-2.0,0.0,1650846776651225.0
1.0,10.0,2.0,-3.0,-5.0,0.0,-2.0,0.0,1650846776651225.0
0.0,-7.0,-5.0,-4.0,1.0,1.0,-1.0,-2.0,1650846776657168.0
2.0,7.0,-2.0,0.0,-1.0,-1.0,-1.0,0.0,1650846776657168.0
-1.0,-4.0,1.0,-8.0,2.0,-2.0,0.0,2.0,1650846776674123.0
-3.0,1.0,3.0,14.0,2.0,-1.0,1.0,-1.0,1650846776674123.0
-2.0,-11.0,-10.0,-6.0,-2.0,-1.0,-2.0,-1.0,1650846776676118.0
0.0,-6.0,5.0,-2.0,-2.0,0.0,-1.0,-1.0,1650846776676118.0
-1.0,3.0,-4.0,-1.0,2.0,3.0,0.0,-2.0,1650846776696064.0
3.0,6.0,4.0,-2.0,-2.0,-2.0,0.0,1.0,1650846776696064.0
-3.0,-16.0,1.0,0.0,-2.0,-1.0,0.0,0.0,1650846776698061.0
-1.0,-1.0,-4.0,1.0,-4.0,-2.0,-2.0,0.0,1650846776698061.0
-3.0,3.0,1.0,1.0,1.0,1.0,1.0,-2.0,1650846776711060.0
0.0,1.0,6.0,0.0,-2.0,-2.0,0.0,0.0,1650846776711060.0
-2.0,-7.0,0.0,0.0,1.0,1.0,1.0,0.0,1650846776718126.0
-3.0,-12.0,-1.0,0.0,2.0,-1.0,-1.0,-2.0,1650846776718126.0
-2.0,-10.0,-4.0,2.0,-1.0,0.0,0.0,-2.0,1650846776734084.0
-1.0,-2.0,-1.0,-2.0,0.0,-1.0,-2.0,-1.0,1650846776734084.0
3.0,0.0,-3.0,1.0,1.0,1.0,1.0,-2.0,1650846776736069.0
0.0,6.0,3.0,-2.0,0.0,0.0,0.0,1.0,1650846776736069.0
0.0,-1.0,2.0,3.0,2.0,-1.0,-1.0,-2.0,1650846776756983.0
-6.0,-13.0,-4.0,-5.0,-2.0,-1.0,-1.0,0.0,1650846776756983.0
1.0,8.0,-3.0,-1.0,1.0,-1.0,2.0,1.0,1650846776757980.0
0.0,2.0,0.0,0.0,0.0,-1.0,0.0,0.0,1650846776757980.0
0.0,-4.0,0.0,0.0,-3.0,-2.0,-3.0,-2.0,1650846776770981.0
4.0,2.0,5.0,-2.0,0.0,0.0,-1.0,0.0,1650846776770981.0
-4.0,-9.0,-2.0,2.0,0.0,1.0,-1.0,-1.0,1650846776777955.0
0.0,8.0,4.0,1.0,4.0,-2.0,0.0,2.0,1650846776777955.0
0.0,0.0,-3.0,-2.0,-4.0,-3.0,0.0,1.0,1650846776793912.0
-1.0,-7.0,1.0,1.0,1.0,2.0,0.0,-2.0,1650846776793912.0
0.0,-2.0,-5.0,-3.0,0.0,-1.0,-1.0,0.0,1650846776795880.0
0.0,0.0,-2.0,-3.0,-1.0,-2.0,-2.0,0.0,1650846776795880.0
-1.0,3.0,4.0,-1.0,-2.0,-1.0,-1.0,1.0,1650846776816848.0
-1.0,0.0,1.0,0.0,0.0,-3.0,0.0,-3.0,1650846776816848.0
0.0,-6.0,2.0,2.0,0.0,0.0,-3.0,-1.0,1650846776817856.0
1.0,9.0,-4.0,-3.0,-1.0,-1.0,-1.0,-1.0,1650846776817856.0
-2.0,0.0,-2.0,-1.0,-1.0,-1.0,0.0,1.0,1650846776830807.0
0.0,-1.0,-3.0,-1.0,1.0,-1.0,-2.0,1.0,1650846776830807.0
-2.0,-4.0,-9.0,-3.0,-4.0,-1.0,-3.0,-1.0,1650846776837795.0
-3.0,3.0,14.0,4.0,0.0,0.0,0.0,-3.0,1650846776837795.0
1.0,-1.0,-2.0,0.0,0.0,1.0,-1.0,0.0,1650846776853764.0
0.0,4.0,1.0,0.0,1.0,0.0,0.0,0.0,1650846776853764.0
-1.0,-12.0,1.0,1.0,2.0,0.0,1.0,0.0,1650846776855720.0
1.0,7.0,-3.0,-2.0,-2.0,1.0,1.0,0.0,1650846776855720.0
0.0,-6.0,4.0,2.0,-1.0,0.0,1.0,-3.0,1650846776875687.0
-1.0,-5.0,-4.0,-4.0,-2.0,-2.0,-1.0,0.0,1650846776875687.0
1.0,21.0,4.0,0.0,1.0,1.0,-1.0,1.0,1650846776884642.0
-4.0,-38.0,-11.0,-2.0,-1.0,0.0,-2.0,-2.0,1650846776884642.0
-4.0,-2.0,-1.0,-2.0,-3.0,-5.0,-1.0,-2.0,1650846776890654.0
3.0,7.0,-1.0,-1.0,-1.0,3.0,0.0,-2.0,1650846776890654.0
-2.0,-1.0,-4.0,0.0,0.0,0.0,-1.0,-1.0,1650846776897629.0
0.0,1.0,0.0,0.0,-4.0,-2.0,-1.0,1.0,1650846776897629.0
1.0,6.0,0.0,-2.0,-2.0,1.0,-3.0,0.0,1650846776914569.0
-2.0,-6.0,-1.0,1.0,0.0,-1.0,1.0,2.0,1650846776914569.0
1.0,-2.0,0.0,0.0,-1.0,0.0,-1.0,-2.0,1650846776915560.0
2.0,13.0,-1.0,-2.0,-4.0,-1.0,-2.0,-2.0,1650846776915560.0
2.0,-4.0,-8.0,1.0,2.0,1.0,0.0,0.0,1650846776936537.0
-4.0,14.0,6.0,-4.0,-4.0,-2.0,-1.0,0.0,1650846776936537.0
-3.0,-19.0,1.0,1.0,-1.0,-2.0,-1.0,-2.0,1650846776938518.0
0.0,2.0,-5.0,0.0,3.0,1.0,2.0,-1.0,1650846776938518.0
-1.0,-11.0,0.0,-1.0,0.0,0.0,-3.0,1.0,1650846776950510.0
-1.0,5.0,-8.0,-2.0,0.0,-1.0,-2.0,0.0,1650846776950510.0
-1.0,13.0,0.0,-4.0,-2.0,-2.0,0.0,-1.0,1650846776959443.0
0.0,-24.0,-3.0,1.0,-2.0,-1.0,0.0,0.0,1650846776959443.0
-1.0,6.0,-2.0,-3.0,1.0,-1.0,0.0,-1.0,1650846776974464.0
0.0,-11.0,1.0,3.0,2.0,-2.0,-1.0,0.0,1650846776974464.0
-1.0,1.0,-1.0,0.0,0.0,0.0,0.0,0.0,1650846776975461.0
0.0,10.0,2.0,0.0,-1.0,2.0,1.0,1.0,1650846776975461.0
1.0,2.0,1.0,0.0,-1.0,0.0,2.0,-1.0,1650846776996425.0
2.0,1.0,1.0,0.0,-2.0,-4.0,-1.0,-1.0,1650846776996425.0
-1.0,-7.0,-7.0,0.0,3.0,2.0,1.0,-1.0,1650846776998401.0
-1.0,12.0,6.0,1.0,1.0,-2.0,-2.0,-1.0,1650846776998401.0
-2.0,-2.0,-2.0,0.0,-1.0,-1.0,-1.0,-1.0,1650846777010388.0
-2.0,-1.0,-2.0,1.0,3.0,1.0,0.0,1.0,1650846777010388.0
2.0,9.0,1.0,1.0,-2.0,3.0,2.0,1.0,1650846777019377.0
-7.0,-39.0,-12.0,-2.0,-2.0,-1.0,-2.0,-1.0,1650846777019377.0
1.0,14.0,6.0,-3.0,-3.0,-4.0,-2.0,0.0,1650846777034318.0
1.0,12.0,0.0,0.0,3.0,-1.0,-1.0,1.0,1650846777034318.0
-4.0,-10.0,-1.0,-1.0,-2.0,-2.0,0.0,0.0,1650846777035330.0
1.0,10.0,1.0,-1.0,1.0,0.0,-1.0,2.0,1650846777035330.0
-1.0,-8.0,-3.0,1.0,-2.0,0.0,1.0,-1.0,1650846777056264.0
-1.0,-26.0,-6.0,-1.0,-1.0,0.0,1.0,-1.0,1650846777056264.0
4.0,28.0,8.0,0.0,-2.0,-2.0,0.0,1.0,1650846777058240.0
-1.0,9.0,2.0,1.0,3.0,0.0,1.0,-3.0,1650846777058240.0
-1.0,-7.0,-1.0,-2.0,-1.0,-2.0,-1.0,0.0,1650846777070246.0
0.0,0.0,-1.0,-2.0,-2.0,0.0,0.0,-2.0,1650846777070246.0
-3.0,-12.0,1.0,0.0,-1.0,-1.0,-1.0,-2.0,1650846777079206.0
-2.0,-2.0,0.0,0.0,0.0,-2.0,0.0,0.0,1650846777079206.0
1.0,6.0,0.0,-1.0,2.0,2.0,0.0,-1.0,1650846777094164.0
-1.0,15.0,1.0,-1.0,-2.0,2.0,1.0,-2.0,1650846777094164.0
-2.0,-5.0,-2.0,-2.0,-2.0,-3.0,-2.0,0.0,1650846777096143.0
0.0,6.0,2.0,2.0,0.0,2.0,1.0,1.0,1650846777096143.0
1.0,0.0,1.0,2.0,0.0,0.0,1.0,1.0,1650846777117100.0
-1.0,-18.0,-5.0,-1.0,3.0,0.0,0.0,2.0,1650846777117100.0
-1.0,-8.0,-5.0,-1.0,-3.0,-5.0,-3.0,-1.0,1650846777118080.0
3.0,11.0,-3.0,-1.0,0.0,-1.0,-1.0,-1.0,1650846777118080.0
-4.0,-7.0,7.0,4.0,1.0,3.0,0.0,-1.0,1650846777130081.0
1.0,11.0,1.0,3.0,1.0,2.0,-3.0,-1.0,1650846777130081.0
-1.0,-9.0,-6.0,-4.0,-2.0,0.0,-1.0,0.0,1650846777139023.0
0.0,2.0,-1.0,-3.0,-1.0,-3.0,-1.0,-1.0,1650846777139023.0
-1.0,-8.0,-6.0,-2.0,-1.0,0.0,-1.0,0.0,1650846777154016.0
0.0,9.0,4.0,2.0,-2.0,-3.0,-2.0,-2.0,1650846777154016.0
-1.0,-3.0,1.0,0.0,1.0,1.0,4.0,2.0,1650846777155978.0
1.0,3.0,0.0,-3.0,-3.0,2.0,-2.0,-2.0,1650846777155978.0
1.0,-4.0,-2.0,-3.0,-2.0,-1.0,1.0,0.0,1650846777176280.0
0.0,2.0,0.0,1.0,0.0,2.0,2.0,0.0,1650846777176280.0
-2.0,-4.0,-2.0,-1.0,1.0,0.0,-1.0,-1.0,1650846777178255.0
-1.0,-3.0,0.0,1.0,-1.0,-1.0,0.0,0.0,1650846777178255.0
-4.0,-3.0,-1.0,3.0,0.0,-3.0,0.0,-2.0,1650846777189759.0
0.0,-2.0,1.0,-2.0,0.0,0.0,0.0,1.0,1650846777189759.0
1.0,9.0,0.0,0.0,-1.0,0.0,-1.0,0.0,1650846777198754.0
-2.0,-16.0,-2.0,-2.0,-4.0,-1.0,-2.0,-1.0,1650846777198754.0
-2.0,5.0,-2.0,1.0,2.0,-1.0,-2.0,-1.0,1650846777213732.0
-1.0,0.0,-3.0,-2.0,0.0,-3.0,0.0,-4.0,1650846777213732.0
-2.0,-4.0,-1.0,2.0,-2.0,-1.0,-1.0,0.0,1650846777215705.0
1.0,8.0,2.0,-1.0,1.0,-2.0,0.0,0.0,1650846777215705.0
-1.0,0.0,0.0,-3.0,-3.0,-2.0,-2.0,-1.0,1650846777236674.0
-1.0,-6.0,-1.0,-1.0,-2.0,-2.0,0.0,0.0,1650846777236674.0
-1.0,4.0,0.0,0.0,3.0,3.0,0.0,-3.0,1650846777238660.0
0.0,2.0,1.0,2.0,0.0,2.0,-1.0,-2.0,1650846777238660.0
1.0,-2.0,-1.0,0.0,-2.0,-3.0,-1.0,0.0,1650846777250637.0
-1.0,0.0,-2.0,-1.0,-5.0,-2.0,2.0,-1.0,1650846777250637.0
0.0,-2.0,3.0,2.0,-1.0,1.0,-2.0,-2.0,1650846777259602.0
3.0,4.0,0.0,-1.0,-1.0,-1.0,-1.0,1.0,1650846777259602.0
3.0,1.0,0.0,2.0,6.0,2.0,-1.0,0.0,1650846777274547.0
-1.0,-3.0,-4.0,-2.0,-1.0,-3.0,0.0,-2.0,1650846777274547.0
-3.0,-3.0,1.0,-2.0,-3.0,-3.0,-1.0,-2.0,1650846777275538.0
-1.0,2.0,3.0,-1.0,0.0,1.0,0.0,-1.0,1650846777275538.0
-4.0,-2.0,-3.0,0.0,-3.0,-4.0,0.0,0.0,1650846777296475.0
-1.0,0.0,1.0,-2.0,-1.0,0.0,-2.0,0.0,1650846777296475.0
1.0,0.0,-1.0,-2.0,-2.0,-2.0,0.0,1.0,1650846777298486.0
0.0,4.0,-1.0,3.0,0.0,-1.0,1.0,0.0,1650846777298486.0
-1.0,-1.0,-5.0,-7.0,-3.0,-2.0,0.0,-2.0,1650846777310437.0
1.0,-2.0,1.0,2.0,0.0,0.0,-1.0,0.0,1650846777310437.0
1.0,0.0,-2.0,0.0,1.0,-1.0,0.0,-2.0,1650846777319454.0
-1.0,-1.0,2.0,0.0,1.0,0.0,-3.0,-1.0,1650846777319454.0
-1.0,-2.0,-1.0,-1.0,-4.0,-2.0,2.0,0.0,1650846777334416.0
-2.0,0.0,-1.0,-1.0,0.0,-2.0,1.0,0.0,1650846777334416.0
-3.0,-4.0,1.0,1.0,0.0,-1.0,-1.0,1.0,1650846777335414.0
1.0,1.0,-3.0,-5.0,-3.0,-1.0,0.0,-2.0,1650846777335414.0
-1.0,0.0,2.0,0.0,5.0,4.0,-1.0,-2.0,1650846777356378.0
-2.0,-4.0,-1.0,-1.0,-3.0,-4.0,-2.0,-2.0,1650846777356378.0
2.0,2.0,0.0,2.0,1.0,1.0,-1.0,-2.0,1650846777358353.0
-2.0,1.0,-5.0,1.0,0.0,-2.0,0.0,1.0,1650846777358353.0
-1.0,-2.0,3.0,1.0,-1.0,5.0,1.0,0.0,1650846777370387.0
-1.0,2.0,0.0,1.0,-1.0,1.0,-1.0,-2.0,1650846777370387.0
3.0,1.0,-3.0,-6.0,1.0,1.0,-2.0,1.0,1650846777379298.0
-2.0,-1.0,-1.0,-2.0,0.0,-4.0,-5.0,-1.0,1650846777379298.0
1.0,1.0,0.0,3.0,-1.0,-1.0,-2.0,0.0,1650846777393291.0
-1.0,-1.0,0.0,0.0,-2.0,-1.0,-1.0,-1.0,1650846777393291.0
-1.0,1.0,-1.0,1.0,-1.0,0.0,1.0,1.0,1650846777402284.0
1.0,-1.0,1.0,2.0,4.0,3.0,2.0,0.0,1650846777402284.0
1.0,-1.0,-3.0,-3.0,0.0,-1.0,-2.0,1.0,1650846777416198.0
-2.0,-2.0,-2.0,-3.0,-1.0,-1.0,-1.0,-1.0,1650846777416198.0
0.0,-1.0,1.0,1.0,-2.0,-4.0,0.0,-1.0,1650846777418193.0
-4.0,-1.0,-1.0,-4.0,-5.0,-1.0,1.0,-2.0,1650846777418193.0
-3.0,-4.0,-4.0,-1.0,1.0,0.0,-1.0,-1.0,1650846777439277.0
1.0,1.0,-2.0,1.0,0.0,-3.0,-1.0,1.0,1650846777439277.0
-1.0,0.0,-1.0,0.0,0.0,0.0,0.0,-3.0,1650846777440268.0
0.0,1.0,1.0,3.0,3.0,5.0,1.0,0.0,1650846777440268.0
0.0,-2.0,-4.0,-4.0,-3.0,-3.0,1.0,0.0,1650846777454210.0
2.0,1.0,0.0,-1.0,0.0,1.0,-2.0,0.0,1650846777454210.0
1.0,3.0,1.0,3.0,0.0,-4.0,-3.0,1.0,1650846777455207.0
-1.0,1.0,-2.0,-6.0,-5.0,1.0,2.0,-1.0,1650846777455207.0
1.0,1.0,-1.0,5.0,6.0,1.0,1.0,-1.0,1650846777476852.0
-4.0,-5.0,-3.0,-9.0,-7.0,-3.0,-2.0,-2.0,1650846777476852.0
1.0,2.0,1.0,-1.0,-1.0,-2.0,1.0,1.0,1650846777477825.0
0.0,-2.0,-2.0,10.0,1.0,-3.0,-1.0,-1.0,1650846777477825.0
1.0,2.0,2.0,-4.0,-5.0,-2.0,0.0,2.0,1650846777498767.0
3.0,2.0,-1.0,3.0,6.0,3.0,1.0,1.0,1650846777498767.0
-1.0,-5.0,-2.0,-3.0,-2.0,0.0,0.0,0.0,1650846777500761.0
3.0,3.0,1.0,-5.0,-6.0,-2.0,-1.0,0.0,1650846777500761.0
-4.0,-4.0,-4.0,-4.0,-3.0,-2.0,-3.0,-1.0,1650846777513757.0
-3.0,0.0,1.0,3.0,2.0,1.0,-1.0,-2.0,1650846777513757.0
-1.0,-3.0,-2.0,-5.0,-6.0,0.0,0.0,-1.0,1650846777515722.0
2.0,1.0,-1.0,2.0,7.0,1.0,-1.0,1.0,1650846777515722.0
-1.0,0.0,8.0,3.0,1.0,0.0,-2.0,-2.0,1650846777536733.0
1.0,-2.0,-6.0,-5.0,-7.0,-3.0,-1.0,-2.0,1650846777536733.0
-1.0,0.0,-1.0,-1.0,3.0,5.0,6.0,0.0,1650846777538664.0
-5.0,-4.0,-2.0,-5.0,-9.0,-7.0,-5.0,0.0,1650846777538664.0
2.0,0.0,0.0,-4.0,2.0,0.0,-1.0,0.0,1650846777558606.0
-3.0,-3.0,0.0,1.0,-2.0,0.0,-1.0,-1.0,1650846777558606.0
1.0,3.0,-1.0,2.0,3.0,2.0,2.0,0.0,1650846777560601.0
0.0,0.0,1.0,-1.0,1.0,0.0,-2.0,-2.0,1650846777560601.0
-3.0,-2.0,-4.0,1.0,-2.0,-2.0,-4.0,-4.0,1650846777573631.0
1.0,7.0,5.0,7.0,4.0,4.0,3.0,1.0,1650846777573631.0
-5.0,-10.0,-5.0,-3.0,1.0,-4.0,-4.0,-4.0,1650846777580547.0
-1.0,-2.0,2.0,-2.0,1.0,5.0,5.0,4.0,1650846777580547.0
3.0,3.0,1.0,1.0,-2.0,0.0,0.0,1.0,1650846777596654.0
0.0,-2.0,-2.0,-4.0,3.0,1.0,-4.0,-1.0,1650846777596654.0
0.0,2.0,4.0,-1.0,-2.0,-2.0,-1.0,0.0,1650846777598623.0
-1.0,0.0,-2.0,-6.0,-3.0,-2.0,-2.0,-3.0,1650846777598623.0
-1.0,5.0,1.0,5.0,-2.0,1.0,4.0,-1.0,1650846777619645.0
-1.0,-2.0,-2.0,-8.0,-6.0,1.0,-1.0,0.0,1650846777619645.0
-2.0,1.0,3.0,4.0,3.0,1.0,-1.0,2.0,1650846777620652.0
-4.0,-7.0,-4.0,-8.0,0.0,-5.0,-4.0,-2.0,1650846777620652.0
2.0,5.0,1.0,3.0,-4.0,1.0,0.0,2.0,1650846777633621.0
3.0,4.0,-1.0,-6.0,-2.0,-2.0,2.0,0.0,1650846777633621.0
-5.0,-7.0,-8.0,3.0,-2.0,-2.0,-4.0,-3.0,1650846777640590.0
1.0,3.0,2.0,3.0,1.0,1.0,0.0,-1.0,1650846777640590.0
-1.0,-1.0,-1.0,-2.0,-1.0,-5.0,-2.0,-1.0,1650846777656656.0
0.0,2.0,-3.0,-2.0,-5.0,-3.0,2.0,1.0,1650846777656656.0
0.0,1.0,1.0,0.0,-1.0,-4.0,-1.0,1.0,1650846777658635.0
3.0,2.0,-1.0,3.0,3.0,12.0,5.0,2.0,1650846777658635.0
-2.0,-3.0,-2.0,-2.0,-3.0,-1.0,2.0,-1.0,1650846777678698.0
1.0,1.0,-1.0,4.0,5.0,-1.0,-2.0,-3.0,1650846777678698.0
1.0,-1.0,2.0,-2.0,-4.0,-1.0,1.0,0.0,1650846777680694.0
-1.0,0.0,2.0,6.0,-4.0,-6.0,-4.0,0.0,1650846777680694.0
0.0,-2.0,-2.0,-2.0,1.0,0.0,-2.0,0.0,1650846777693657.0
-1.0,-3.0,1.0,0.0,2.0,0.0,5.0,2.0,1650846777693657.0
-4.0,-1.0,-4.0,-2.0,-3.0,-3.0,-13.0,-9.0,1650846777700717.0
-1.0,-5.0,-3.0,2.0,0.0,-2.0,4.0,0.0,1650846777700717.0
2.0,1.0,4.0,2.0,1.0,3.0,4.0,0.0,1650846777716598.0
-1.0,-2.0,1.0,2.0,0.0,-2.0,-3.0,-2.0,1650846777716598.0
0.0,-3.0,-3.0,-3.0,-2.0,-4.0,-2.0,0.0,1650846777718599.0
-5.0,-5.0,1.0,1.0,-2.0,-4.0,-9.0,-6.0,1650846777718599.0
2.0,4.0,-2.0,1.0,4.0,6.0,6.0,3.0,1650846777739545.0
-6.0,-12.0,-10.0,-1.0,-1.0,-2.0,-5.0,-2.0,1650846777739545.0
1.0,4.0,12.0,0.0,-1.0,3.0,5.0,-1.0,1650846777740539.0
2.0,4.0,0.0,0.0,-4.0,-6.0,1.0,2.0,1650846777740539.0
-2.0,-1.0,5.0,-1.0,-3.0,0.0,-4.0,-2.0,1650846777753816.0
1.0,5.0,7.0,4.0,4.0,1.0,-2.0,0.0,1650846777753816.0
-2.0,-2.0,-4.0,-1.0,1.0,3.0,0.0,-1.0,1650846777759836.0
1.0,2.0,-1.0,-3.0,-2.0,-2.0,2.0,5.0,1650846777759836.0
-1.0,-1.0,7.0,-3.0,-2.0,-5.0,-6.0,-4.0,1650846777776875.0
3.0,3.0,-2.0,2.0,0.0,1.0,6.0,3.0,1650846777776875.0
-4.0,-2.0,-2.0,1.0,1.0,-2.0,0.0,0.0,1650846777777868.0
0.0,-1.0,-5.0,-4.0,3.0,3.0,3.0,-1.0,1650846777777868.0
-4.0,-4.0,14.0,2.0,-1.0,-5.0,-5.0,0.0,1650846777798780.0
-2.0,-2.0,-27.0,1.0,-4.0,1.0,-1.0,-1.0,1650846777798780.0
1.0,-2.0,-1.0,-4.0,-2.0,-1.0,3.0,1.0,1650846777800776.0
-1.0,1.0,8.0,7.0,2.0,0.0,-1.0,-2.0,1650846777800776.0
-2.0,0.0,7.0,20.0,6.0,1.0,0.0,0.0,1650846777813763.0
2.0,-1.0,-8.0,-35.0,-18.0,-5.0,5.0,2.0,1650846777813763.0
-4.0,-5.0,0.0,10.0,-5.0,-1.0,-3.0,-1.0,1650846777820728.0
5.0,4.0,-5.0,-6.0,12.0,5.0,-2.0,1.0,1650846777820728.0
-1.0,4.0,5.0,-10.0,-9.0,-5.0,-2.0,0.0,1650846777836722.0
-1.0,-8.0,-4.0,3.0,5.0,3.0,4.0,4.0,1650846777836722.0
2.0,3.0,-4.0,-18.0,-21.0,-5.0,8.0,3.0,1650846777837711.0
0.0,-5.0,0.0,-3.0,-4.0,-1.0,-10.0,-5.0,1650846777837711.0
-3.0,0.0,12.0,5.0,0.0,-5.0,0.0,-1.0,1650846777858642.0
-2.0,-3.0,-36.0,-24.0,-9.0,-3.0,5.0,-1.0,1650846777858642.0
2.0,1.0,0.0,-12.0,-1.0,4.0,-11.0,-5.0,1650846777860625.0
3.0,8.0,35.0,67.0,22.0,6.0,-3.0,2.0,1650846777860625.0
2.0,-6.0,3.0,-3.0,19.0,11.0,11.0,8.0,1650846777873601.0
-5.0,-5.0,-6.0,2.0,-9.0,-7.0,-7.0,-5.0,1650846777873601.0
3.0,-1.0,-5.0,-14.0,-3.0,-2.0,5.0,2.0,1650846777880118.0
-1.0,-6.0,-24.0,-26.0,-14.0,-3.0,3.0,1.0,1650846777880118.0
-5.0,-5.0,20.0,-5.0,-6.0,-1.0,-7.0,-8.0,1650846777896200.0
2.0,18.0,16.0,38.0,16.0,6.0,-10.0,-7.0,1650846777896200.0
0.0,-9.0,3.0,17.0,14.0,9.0,13.0,10.0,1650846777898175.0
2.0,-3.0,-8.0,-17.0,-6.0,-4.0,-3.0,-3.0,1650846777898175.0
0.0,12.0,-27.0,-44.0,-24.0,-7.0,3.0,0.0,1650846777919177.0
0.0,-13.0,28.0,34.0,31.0,14.0,15.0,9.0,1650846777919177.0
-4.0,2.0,-22.0,8.0,-5.0,-10.0,-14.0,-11.0,1650846777921180.0
-3.0,-1.0,26.0,-10.0,-9.0,-3.0,8.0,-1.0,1650846777921180.0
4.0,1.0,-31.0,-13.0,-6.0,0.0,-13.0,-5.0,1650846777933143.0
2.0,-4.0,4.0,-22.0,-15.0,-11.0,-10.0,-4.0,1650846777933143.0
-1.0,16.0,14.0,15.0,6.0,4.0,1.0,-1.0,1650846777942119.0
2.0,-1.0,10.0,-24.0,-7.0,-2.0,-6.0,3.0,1650846777942119.0
-3.0,-12.0,-24.0,31.0,5.0,1.0,9.0,3.0,1650846777956121.0
5.0,8.0,9.0,2.0,10.0,9.0,25.0,15.0,1650846777956121.0
-10.0,-8.0,-11.0,-13.0,-7.0,-16.0,-56.0,-27.0,1650846777958077.0
-3.0,6.0,2.0,-8.0,-2.0,-2.0,12.0,2.0,1650846777958077.0
-2.0,-6.0,-4.0,-3.0,-7.0,-4.0,-13.0,-9.0,1650846777979273.0
-8.0,-6.0,-2.0,-1.0,0.0,-2.0,-11.0,-11.0,1650846777979273.0
9.0,9.0,17.0,4.0,9.0,9.0,26.0,16.0,1650846777981039.0
-2.0,0.0,-25.0,-10.0,-5.0,2.0,10.0,5.0,1650846777981039.0
-4.0,-4.0,-2.0,-3.0,-10.0,-7.0,-7.0,-4.0,1650846777993015.0
3.0,9.0,18.0,35.0,24.0,8.0,0.0,1.0,1650846777993015.0
3.0,-7.0,-32.0,-2.0,6.0,8.0,24.0,15.0,1650846778001963.0
-2.0,0.0,5.0,4.0,-4.0,-4.0,-3.0,-6.0,1650846778001963.0
4.0,7.0,8.0,-7.0,2.0,3.0,10.0,2.0,1650846778017035.0
-6.0,-9.0,-12.0,-26.0,-18.0,-10.0,-9.0,-5.0,1650846778017035.0
2.0,9.0,23.0,30.0,-6.0,-3.0,7.0,3.0,1650846778018033.0
-6.0,-7.0,-13.0,-14.0,-6.0,-1.0,-12.0,-7.0,1650846778018033.0
3.0,-1.0,-10.0,14.0,12.0,0.0,-1.0,-1.0,1650846778038976.0
0.0,0.0,9.0,-14.0,-15.0,-4.0,17.0,9.0,1650846778038976.0
-8.0,-2.0,-6.0,-6.0,-5.0,-19.0,-41.0,-23.0,1650846778040970.0
-1.0,-7.0,-8.0,3.0,-3.0,5.0,20.0,6.0,1650846778040970.0
4.0,6.0,17.0,-2.0,-3.0,-3.0,-14.0,-2.0,1650846778053006.0
-1.0,1.0,-6.0,-20.0,-1.0,3.0,-2.0,-6.0,1650846778053006.0
0.0,0.0,-1.0,2.0,7.0,3.0,13.0,5.0,1650846778061915.0
0.0,-8.0,-6.0,10.0,2.0,0.0,-8.0,-1.0,1650846778061915.0
-1.0,7.0,22.0,0.0,0.0,1.0,-10.0,-2.0,1650846778076902.0
1.0,-8.0,-19.0,5.0,9.0,3.0,6.0,4.0,1650846778076902.0
6.0,1.0,-25.0,-9.0,2.0,9.0,7.0,4.0,1650846778077877.0
3.0,19.0,32.0,8.0,-2.0,-8.0,-10.0,-1.0,1650846778077877.0
0.0,1.0,7.0,-6.0,0.0,7.0,15.0,7.0,1650846778098883.0
-2.0,2.0,3.0,-12.0,-11.0,-9.0,-13.0,-7.0,1650846778098883.0
0.0,-12.0,13.0,4.0,6.0,8.0,26.0,10.0,1650846778100812.0
-6.0,-11.0,-58.0,-19.0,-8.0,-5.0,-2.0,-6.0,1650846778100812.0
-4.0,-5.0,-7.0,-13.0,-8.0,-5.0,10.0,1.0,1650846778112806.0
5.0,9.0,21.0,-6.0,-14.0,-5.0,-31.0,-10.0,1650846778112806.0
-3.0,-10.0,7.0,33.0,29.0,9.0,3.0,2.0,1650846778121756.0
1.0,6.0,12.0,-2.0,-2.0,3.0,8.0,0.0,1650846778121756.0
-2.0,-2.0,-21.0,-10.0,-5.0,-6.0,-8.0,-2.0,1650846778136781.0
-7.0,-24.0,-12.0,-20.0,-17.0,-7.0,9.0,2.0,1650846778136781.0
0.0,7.0,17.0,2.0,-2.0,1.0,3.0,-2.0,1650846778137712.0
-13.0,-30.0,-9.0,0.0,2.0,-13.0,-67.0,-31.0,1650846778137712.0
7.0,36.0,3.0,9.0,3.0,-1.0,11.0,4.0,1650846778158658.0
0.0,-2.0,-4.0,-6.0,-7.0,-1.0,8.0,5.0,1650846778158658.0
-10.0,-7.0,0.0,-12.0,4.0,-4.0,-8.0,-12.0,1650846778166635.0
12.0,5.0,14.0,16.0,13.0,11.0,46.0,25.0,1650846778166635.0
-15.0,4.0,11.0,37.0,12.0,-5.0,-42.0,-24.0,1650846778172620.0
-4.0,-42.0,-17.0,-14.0,-9.0,-4.0,-5.0,-5.0,1650846778172620.0
2.0,10.0,-2.0,5.0,-2.0,7.0,11.0,4.0,1650846778181598.0
