EMG_s0,EMG_s1,EMG_s2,EMG_s3,EMG_s4,EMG_s5,EMG_s6,EMG_s7,timestamp
-1.0,-1.0,0.0,0.0,-3.0,-3.0,-3.0,0.0,1650847677551770.0
-4.0,-3.0,1.0,0.0,3.0,3.0,1.0,0.0,1650847677551770.0
-1.0,-2.0,5.0,0.0,1.0,-1.0,0.0,0.0,1650847677552720.0
-1.0,-1.0,-1.0,1.0,0.0,-2.0,-1.0,1.0,1650847677552720.0
-2.0,-1.0,0.0,-4.0,2.0,4.0,3.0,0.0,1650847677552720.0
0.0,1.0,-1.0,-2.0,0.0,2.0,0.0,0.0,1650847677552720.0
2.0,1.0,2.0,2.0,1.0,0.0,0.0,2.0,1650847677553701.0
2.0,2.0,0.0,-2.0,0.0,0.0,1.0,-2.0,1650847677553701.0
0.0,4.0,1.0,1.0,0.0,2.0,0.0,0.0,1650847677560707.0
2.0,1.0,-2.0,0.0,-1.0,0.0,0.0,0.0,1650847677560707.0
0.0,-1.0,4.0,-1.0,1.0,2.0,-2.0,0.0,1650847677574673.0
-3.0,1.0,3.0,2.0,1.0,1.0,0.0,1.0,1650847677574673.0
1.0,-3.0,-7.0,-7.0,-3.0,-4.0,-2.0,1.0,1650847677578665.0
0.0,-1.0,3.0,0.0,-1.0,-2.0,-2.0,0.0,1650847677578665.0
-1.0,2.0,-2.0,-1.0,-1.0,1.0,1.0,0.0,1650847677594970.0
1.0,-1.0,3.0,0.0,2.0,0.0,0.0,-3.0,1650847677594970.0
0.0,0.0,-3.0,2.0,2.0,0.0,-1.0,0.0,1650847677602892.0
0.0,0.0,-2.0,-2.0,-2.0,0.0,0.0,1.0,1650847677602892.0
-1.0,-2.0,-3.0,-1.0,-3.0,0.0,1.0,-2.0,1650847677617911.0
0.0,0.0,-3.0,-2.0,-2.0,0.0,0.0,-1.0,1650847677617911.0
-1.0,-2.0,0.0,0.0,-1.0,2.0,-2.0,-1.0,1650847677625904.0
-1.0,0.0,2.0,3.0,-2.0,-2.0,-2.0,-1.0,1650847677625904.0
1.0,0.0,-8.0,-4.0,-4.0,-4.0,-1.0,1.0,1650847677638923.0
-2.0,0.0,3.0,1.0,1.0,3.0,0.0,0.0,1650847677638923.0
1.0,-4.0,-4.0,-3.0,-2.0,-3.0,-2.0,1.0,1650847677680894.0
-2.0,-1.0,3.0,8.0,4.0,1.0,-1.0,0.0,1650847677680894.0
0.0,1.0,-2.0,-1.0,-3.0,-3.0,-1.0,-1.0,1650847677680894.0
-1.0,-2.0,-7.0,-8.0,-6.0,-4.0,-2.0,0.0,1650847677680894.0
2.0,4.0,3.0,4.0,4.0,6.0,4.0,1.0,1650847677683884.0
-1.0,-1.0,-4.0,-8.0,-2.0,1.0,1.0,-2.0,1650847677683884.0
-1.0,-2.0,1.0,-1.0,-2.0,-3.0,-3.0,-3.0,1650847677684895.0
2.0,3.0,-1.0,3.0,2.0,-1.0,0.0,1.0,1650847677684895.0
-2.0,-3.0,2.0,-2.0,-8.0,-8.0,-3.0,-2.0,1650847677691891.0
2.0,3.0,0.0,-3.0,-8.0,4.0,3.0,-1.0,1650847677691891.0
-5.0,-16.0,-10.0,-8.0,7.0,3.0,-5.0,-3.0,1650847677698871.0
-4.0,-22.0,-6.0,4.0,2.0,-2.0,-4.0,-3.0,1650847677698871.0
5.0,27.0,13.0,15.0,5.0,3.0,7.0,3.0,1650847677705826.0
6.0,7.0,4.0,-2.0,0.0,-6.0,0.0,2.0,1650847677705826.0
-3.0,-5.0,-3.0,-4.0,-15.0,-7.0,0.0,-1.0,1650847677722779.0
-1.0,0.0,-1.0,-4.0,2.0,2.0,0.0,-4.0,1650847677722779.0
0.0,2.0,-4.0,-7.0,-2.0,-1.0,-2.0,-2.0,1650847677729299.0
-1.0,-1.0,2.0,3.0,-1.0,0.0,-1.0,1.0,1650847677729299.0
-5.0,-7.0,-7.0,-6.0,-2.0,1.0,0.0,0.0,1650847677752889.0
3.0,11.0,8.0,1.0,2.0,1.0,-1.0,0.0,1650847677752889.0
-3.0,-9.0,-3.0,0.0,0.0,-2.0,-1.0,-2.0,1650847677753820.0
-1.0,2.0,-6.0,-5.0,-2.0,-1.0,-1.0,-2.0,1650847677753820.0
2.0,5.0,3.0,4.0,2.0,2.0,3.0,1.0,1650847677766955.0
-1.0,1.0,0.0,1.0,-2.0,-2.0,0.0,0.0,1650847677766955.0
-2.0,-2.0,-1.0,1.0,0.0,1.0,-3.0,-2.0,1650847677767955.0
-2.0,-1.0,3.0,2.0,1.0,-1.0,-3.0,-1.0,1650847677767955.0
3.0,10.0,9.0,10.0,7.0,3.0,2.0,0.0,1650847677789962.0
1.0,4.0,-2.0,-4.0,-3.0,0.0,1.0,1.0,1650847677789962.0
-4.0,-15.0,-13.0,-18.0,-11.0,-4.0,-2.0,-2.0,1650847677790893.0
-4.0,-8.0,-11.0,-18.0,-7.0,-4.0,-5.0,-3.0,1650847677790893.0
8.0,25.0,29.0,40.0,12.0,2.0,1.0,3.0,1650847677812866.0
-1.0,-9.0,-8.0,-6.0,7.0,6.0,4.0,4.0,1650847677812866.0
2.0,6.0,9.0,17.0,6.0,-2.0,-1.0,1.0,1650847677812866.0
-5.0,-9.0,-6.0,-7.0,0.0,-1.0,-2.0,-4.0,1650847677812866.0
-2.0,-6.0,-9.0,-15.0,-6.0,-4.0,-3.0,-2.0,1650847677826827.0
-1.0,-4.0,-5.0,-5.0,-5.0,-1.0,3.0,2.0,1650847677826827.0
3.0,3.0,1.0,-2.0,-6.0,-2.0,-5.0,-3.0,1650847677827794.0
-4.0,-2.0,8.0,17.0,7.0,2.0,-5.0,-5.0,1650847677827794.0
1.0,-3.0,-3.0,-4.0,1.0,-1.0,4.0,5.0,1650847677849890.0
-2.0,-4.0,2.0,1.0,-1.0,-3.0,-3.0,-4.0,1650847677849890.0
6.0,11.0,2.0,-6.0,1.0,-1.0,2.0,4.0,1650847677850821.0
-7.0,-25.0,-15.0,-7.0,-4.0,-4.0,-4.0,-4.0,1650847677850821.0
-9.0,-18.0,-11.0,-5.0,-3.0,1.0,-8.0,-3.0,1650847677872829.0
-4.0,-3.0,-5.0,-9.0,-5.0,-5.0,6.0,-4.0,1650847677872829.0
-1.0,1.0,1.0,3.0,3.0,5.0,2.0,1.0,1650847677873760.0
5.0,22.0,11.0,4.0,3.0,1.0,1.0,0.0,1650847677873760.0
0.0,-4.0,-13.0,-18.0,-8.0,-6.0,-8.0,-1.0,1650847677886792.0
0.0,-3.0,0.0,1.0,-4.0,0.0,4.0,1.0,1650847677886792.0
-2.0,3.0,3.0,2.0,-4.0,-5.0,-7.0,-2.0,1650847677887723.0
-5.0,-15.0,-12.0,-2.0,2.0,4.0,3.0,1.0,1650847677887723.0
5.0,11.0,7.0,6.0,5.0,6.0,5.0,1.0,1650847677909793.0
1.0,10.0,-3.0,-9.0,-7.0,-3.0,-5.0,-2.0,1650847677909793.0
-3.0,-9.0,-6.0,-6.0,2.0,0.0,1.0,-1.0,1650847677909793.0
1.0,2.0,3.0,3.0,-3.0,-2.0,2.0,2.0,1650847677909793.0
2.0,7.0,0.0,-5.0,-3.0,-1.0,2.0,0.0,1650847677932802.0
-3.0,-4.0,3.0,11.0,4.0,0.0,-4.0,-1.0,1650847677932802.0
-6.0,-16.0,-9.0,-8.0,-4.0,-2.0,-1.0,-2.0,1650847677933758.0
2.0,4.0,0.0,-1.0,-1.0,-2.0,1.0,0.0,1650847677933758.0
0.0,3.0,6.0,8.0,5.0,2.0,3.0,-3.0,1650847677946760.0
-3.0,-4.0,-3.0,2.0,-3.0,-3.0,-7.0,-3.0,1650847677946760.0
2.0,-1.0,-6.0,-6.0,0.0,1.0,1.0,0.0,1650847677947694.0
4.0,19.0,15.0,5.0,2.0,2.0,2.0,1.0,1650847677947694.0
-1.0,-5.0,-7.0,-8.0,-5.0,-3.0,-1.0,-1.0,1650847677968974.0
6.0,9.0,9.0,7.0,2.0,1.0,1.0,3.0,1650847677968974.0
1.0,2.0,0.0,0.0,1.0,1.0,-1.0,0.0,1650847677969914.0
-7.0,-22.0,-12.0,-2.0,-6.0,-5.0,-3.0,-1.0,1650847677969914.0
-1.0,3.0,5.0,-6.0,-2.0,0.0,-1.0,-2.0,1650847677993004.0
4.0,10.0,7.0,8.0,-1.0,-1.0,-3.0,0.0,1650847677993004.0
-3.0,-12.0,-13.0,-7.0,1.0,1.0,5.0,2.0,1650847677993990.0
1.0,6.0,10.0,20.0,9.0,3.0,2.0,3.0,1650847677993990.0
-3.0,-4.0,-4.0,-1.0,0.0,0.0,0.0,-1.0,1650847678007018.0
-3.0,-6.0,-11.0,-13.0,-4.0,-2.0,-1.0,-2.0,1650847678007018.0
-2.0,4.0,13.0,12.0,0.0,-2.0,-6.0,-6.0,1650847678007953.0
4.0,7.0,-3.0,-8.0,-3.0,-2.0,7.0,4.0,1650847678007953.0
-5.0,-11.0,-11.0,-9.0,-2.0,0.0,-2.0,-1.0,1650847678038041.0
1.0,5.0,5.0,-8.0,-1.0,0.0,-5.0,2.0,1650847678038041.0
-6.0,-23.0,-6.0,29.0,17.0,5.0,1.0,-1.0,1650847678038041.0
3.0,10.0,2.0,-17.0,-4.0,1.0,-15.0,-5.0,1650847678038041.0
4.0,19.0,14.0,27.0,1.0,-1.0,7.0,0.0,1650847678053080.0
4.0,-21.0,2.0,-8.0,-13.0,-6.0,20.0,13.0,1650847678053080.0
3.0,52.0,8.0,-7.0,6.0,0.0,-17.0,-5.0,1650847678053080.0
-4.0,-9.0,0.0,4.0,4.0,5.0,16.0,-9.0,1650847678053080.0
-10.0,-69.0,-20.0,-15.0,-3.0,2.0,-3.0,2.0,1650847678067215.0
13.0,59.0,19.0,18.0,-4.0,-3.0,13.0,8.0,1650847678067215.0
10.0,-3.0,-4.0,-20.0,-20.0,-3.0,13.0,13.0,1650847678067215.0
2.0,-1.0,0.0,22.0,19.0,-5.0,-55.0,-13.0,1650847678067215.0
5.0,17.0,4.0,-25.0,2.0,13.0,31.0,0.0,1650847678090332.0
-24.0,-43.0,-28.0,15.0,15.0,2.0,30.0,-4.0,1650847678090332.0
7.0,2.0,10.0,5.0,2.0,-8.0,-18.0,-4.0,1650847678091264.0
9.0,28.0,-6.0,-19.0,-24.0,-18.0,-8.0,1.0,1650847678091264.0
-8.0,-23.0,-21.0,-21.0,-13.0,-8.0,-57.0,-10.0,1650847678112368.0
7.0,7.0,15.0,13.0,14.0,17.0,6.0,5.0,1650847678112368.0
-3.0,-7.0,-8.0,-6.0,-3.0,15.0,111.0,37.0,1650847678113369.0
6.0,-4.0,5.0,7.0,9.0,12.0,-13.0,15.0,1650847678113369.0
-5.0,14.0,3.0,7.0,0.0,-11.0,-30.0,-21.0,1650847678126335.0
-4.0,-30.0,-16.0,-20.0,-15.0,-24.0,-73.0,-8.0,1650847678126335.0
-5.0,-14.0,-10.0,-10.0,-14.0,-9.0,12.0,-8.0,1650847678142420.0
-19.0,-8.0,4.0,24.0,3.0,-1.0,-4.0,-24.0,1650847678142420.0
-4.0,-10.0,1.0,0.0,-4.0,-1.0,7.0,7.0,1650847678149445.0
3.0,8.0,9.0,-5.0,30.0,30.0,28.0,3.0,1650847678149445.0
11.0,9.0,-8.0,0.0,-9.0,-18.0,1.0,20.0,1650847678150377.0
-4.0,-17.0,-1.0,-17.0,-17.0,-13.0,4.0,3.0,1650847678150377.0
14.0,54.0,8.0,13.0,4.0,0.0,-12.0,-11.0,1650847678173429.0
-22.0,6.0,5.0,28.0,0.0,-9.0,-28.0,-23.0,1650847678173429.0
-16.0,-80.0,-23.0,-12.0,7.0,15.0,-6.0,-5.0,1650847678174428.0
14.0,21.0,-9.0,-24.0,-15.0,3.0,22.0,12.0,1650847678174428.0
-12.0,-13.0,24.0,45.0,15.0,-8.0,-14.0,-3.0,1650847678186459.0
18.0,13.0,9.0,-1.0,10.0,15.0,33.0,14.0,1650847678186459.0
-15.0,-2.0,-5.0,-18.0,-7.0,-3.0,-21.0,-10.0,1650847678194438.0
-4.0,-43.0,-29.0,11.0,-6.0,-10.0,-33.0,-10.0,1650847678194438.0
6.0,52.0,5.0,-30.0,-17.0,-2.0,62.0,27.0,1650847678209398.0
34.0,34.0,4.0,12.0,2.0,-10.0,-40.0,-8.0,1650847678209398.0
-46.0,-20.0,17.0,3.0,-7.0,-3.0,-45.0,-35.0,1650847678210329.0
-4.0,7.0,2.0,11.0,29.0,15.0,75.0,31.0,1650847678210329.0
-1.0,25.0,1.0,7.0,-11.0,-13.0,-26.0,-16.0,1650847678233013.0
11.0,-23.0,-1.0,0.0,11.0,15.0,0.0,14.0,1650847678233013.0
5.0,-13.0,-16.0,-1.0,-6.0,-10.0,-55.0,-25.0,1650847678233801.0
-21.0,26.0,14.0,-22.0,-14.0,-7.0,19.0,-9.0,1650847678233801.0
-4.0,-63.0,-10.0,12.0,11.0,9.0,-7.0,13.0,1650847678247133.0
-35.0,-2.0,-12.0,-23.0,-15.0,-13.0,39.0,-2.0,1650847678247133.0
32.0,22.0,24.0,38.0,10.0,-3.0,-33.0,-18.0,1650847678254183.0
-31.0,-59.0,-12.0,-34.0,-1.0,14.0,0.0,-7.0,1650847678254183.0
14.0,7.0,7.0,21.0,22.0,4.0,-10.0,2.0,1650847678269104.0
5.0,77.0,11.0,11.0,-1.0,-7.0,-14.0,-6.0,1650847678269104.0
33.0,-14.0,22.0,36.0,29.0,22.0,66.0,47.0,1650847678270074.0
0.0,-5.0,-8.0,17.0,0.0,-1.0,-12.0,-4.0,1650847678270074.0
-4.0,-39.0,-6.0,-23.0,-10.0,-1.0,12.0,4.0,1650847678294011.0
6.0,-19.0,-19.0,-7.0,-6.0,1.0,-24.0,-10.0,1650847678294011.0
-6.0,50.0,7.0,-10.0,-5.0,-4.0,-1.0,-8.0,1650847678295008.0
5.0,-68.0,-3.0,17.0,4.0,-9.0,27.0,16.0,1650847678295008.0
6.0,27.0,5.0,-5.0,-2.0,2.0,-6.0,3.0,1650847678306006.0
-2.0,-13.0,7.0,8.0,-5.0,-11.0,-26.0,-9.0,1650847678306006.0
-28.0,-4.0,-5.0,-9.0,-6.0,7.0,3.0,-34.0,1650847678313984.0
26.0,-3.0,3.0,-13.0,-11.0,-16.0,-46.0,23.0,1650847678313984.0
11.0,-1.0,-4.0,14.0,13.0,22.0,89.0,23.0,1650847678328943.0
-16.0,-66.0,-20.0,-7.0,-7.0,-15.0,-3.0,-8.0,1650847678328943.0
8.0,42.0,5.0,-15.0,-8.0,-4.0,-38.0,-10.0,1650847678329914.0
2.0,47.0,5.0,8.0,8.0,7.0,-18.0,-14.0,1650847678329914.0
-14.0,-22.0,-12.0,-15.0,-19.0,0.0,36.0,9.0,1650847678352880.0
10.0,-10.0,-4.0,-43.0,-5.0,-6.0,-1.0,8.0,1650847678352880.0
-17.0,-19.0,-5.0,26.0,3.0,-2.0,-22.0,-14.0,1650847678352880.0
2.0,25.0,-22.0,10.0,23.0,16.0,38.0,-1.0,1650847678352880.0
-6.0,18.0,2.0,-19.0,-20.0,-14.0,-13.0,7.0,1650847678365819.0
-14.0,-4.0,1.0,8.0,1.0,13.0,21.0,7.0,1650847678365819.0
4.0,1.0,-7.0,-37.0,-24.0,-16.0,-22.0,-5.0,1650847678374794.0
-8.0,-30.0,-3.0,-43.0,-16.0,-3.0,5.0,-9.0,1650847678374794.0
-9.0,-22.0,-5.0,12.0,15.0,4.0,-25.0,-23.0,1650847678389820.0
27.0,18.0,11.0,-16.0,-15.0,3.0,57.0,47.0,1650847678389820.0
-12.0,-58.0,-20.0,6.0,13.0,-1.0,1.0,7.0,1650847678389820.0
13.0,64.0,8.0,-27.0,-22.0,-3.0,-10.0,-15.0,1650847678389820.0
14.0,75.0,19.0,6.0,8.0,0.0,-32.0,9.0,1650847678412758.0
-22.0,-49.0,-15.0,4.0,-7.0,-1.0,37.0,-8.0,1650847678412758.0
16.0,-6.0,5.0,4.0,14.0,6.0,-2.0,11.0,1650847678413689.0
-11.0,29.0,9.0,22.0,-1.0,-2.0,-23.0,-23.0,1650847678413689.0
-8.0,-24.0,0.0,-4.0,0.0,-9.0,-33.0,-28.0,1650847678426716.0
-2.0,-14.0,5.0,8.0,2.0,1.0,21.0,34.0,1650847678426716.0
-11.0,34.0,1.0,-4.0,-4.0,1.0,14.0,-4.0,1650847678434700.0
-3.0,-48.0,4.0,2.0,6.0,3.0,-2.0,3.0,1650847678434700.0
8.0,33.0,1.0,7.0,0.0,-6.0,-23.0,-15.0,1650847678449742.0
3.0,-2.0,0.0,1.0,-1.0,-1.0,-12.0,-7.0,1650847678449742.0
6.0,-9.0,-1.0,15.0,15.0,2.0,14.0,22.0,1650847678449742.0
4.0,43.0,15.0,-16.0,-9.0,-4.0,-7.0,-5.0,1650847678449742.0
4.0,-24.0,-20.0,-19.0,-9.0,-11.0,-5.0,4.0,1650847678471744.0
-8.0,-3.0,1.0,19.0,13.0,11.0,4.0,-13.0,1650847678471744.0
-2.0,-3.0,-10.0,-24.0,-22.0,-12.0,-22.0,-3.0,1650847678479793.0
1.0,-5.0,27.0,5.0,5.0,-4.0,3.0,-9.0,1650847678479793.0
3.0,32.0,-8.0,11.0,4.0,6.0,17.0,10.0,1650847678494900.0
24.0,36.0,23.0,34.0,14.0,-2.0,-63.0,-22.0,1650847678494900.0
-17.0,15.0,0.0,4.0,6.0,6.0,15.0,11.0,1650847678495831.0
-3.0,-46.0,-12.0,5.0,-9.0,-9.0,7.0,-3.0,1650847678495831.0
-3.0,16.0,-7.0,-33.0,4.0,3.0,-6.0,-14.0,1650847678509793.0
11.0,32.0,11.0,-4.0,-5.0,3.0,3.0,5.0,1650847678509793.0
-2.0,-29.0,-6.0,-3.0,-9.0,-7.0,-2.0,-7.0,1650847678509793.0
0.0,15.0,0.0,4.0,2.0,1.0,-33.0,-17.0,1650847678509793.0
-8.0,5.0,-7.0,-7.0,-15.0,-5.0,23.0,4.0,1650847678532297.0
7.0,-37.0,-6.0,-5.0,11.0,10.0,3.0,9.0,1650847678532297.0
-4.0,-6.0,-3.0,-4.0,5.0,-7.0,-29.0,-16.0,1650847678533295.0
-3.0,16.0,2.0,10.0,3.0,2.0,33.0,26.0,1650847678533295.0
-5.0,-83.0,-14.0,-11.0,-11.0,-4.0,10.0,3.0,1650847678555328.0
-12.0,28.0,9.0,25.0,-3.0,-11.0,-26.0,-33.0,1650847678555328.0
7.0,-7.0,-2.0,-14.0,-2.0,2.0,16.0,2.0,1650847678555328.0
5.0,-28.0,-19.0,21.0,15.0,3.0,-8.0,3.0,1650847678555328.0
13.0,34.0,11.0,-9.0,-7.0,2.0,2.0,0.0,1650847678569854.0
-34.0,-11.0,-23.0,-36.0,-28.0,-15.0,-19.0,-13.0,1650847678569854.0
7.0,-12.0,1.0,-16.0,0.0,9.0,39.0,29.0,1650847678569854.0
17.0,34.0,31.0,83.0,39.0,24.0,18.0,-3.0,1650847678569854.0
-2.0,-8.0,6.0,-9.0,-14.0,-7.0,24.0,9.0,1650847678593005.0
-26.0,-23.0,-12.0,-13.0,8.0,-2.0,7.0,-3.0,1650847678593005.0
16.0,43.0,15.0,26.0,5.0,-1.0,-15.0,-3.0,1650847678593005.0
-1.0,-30.0,-18.0,-26.0,-11.0,1.0,10.0,7.0,1650847678593005.0
8.0,0.0,5.0,4.0,9.0,12.0,29.0,22.0,1650847678615187.0
-1.0,-11.0,4.0,9.0,-4.0,-4.0,-19.0,-15.0,1650847678615187.0
1.0,20.0,-3.0,-5.0,-1.0,-1.0,-2.0,-2.0,1650847678616119.0
-2.0,1.0,-3.0,-24.0,-11.0,-7.0,0.0,4.0,1650847678616119.0
1.0,-8.0,7.0,23.0,8.0,3.0,-18.0,-4.0,1650847678629151.0
-5.0,5.0,-1.0,-6.0,0.0,0.0,2.0,-14.0,1650847678629151.0
2.0,-10.0,-7.0,-9.0,-1.0,0.0,-4.0,6.0,1650847678630080.0
0.0,24.0,1.0,-22.0,-13.0,-5.0,-20.0,-6.0,1650847678630080.0
-3.0,-19.0,5.0,49.0,20.0,1.0,-8.0,0.0,1650847678651094.0
8.0,20.0,-1.0,0.0,-2.0,5.0,27.0,14.0,1650847678651094.0
5.0,5.0,-4.0,-16.0,-7.0,-2.0,8.0,2.0,1650847678660009.0
-1.0,15.0,1.0,-6.0,-5.0,-4.0,-22.0,-5.0,1650847678660009.0
0.0,-3.0,-7.0,-12.0,-9.0,-8.0,-9.0,-4.0,1650847678675029.0
16.0,9.0,2.0,-6.0,3.0,5.0,-8.0,15.0,1650847678675029.0
5.0,18.0,-3.0,-1.0,10.0,9.0,2.0,-19.0,1650847678676959.0
-7.0,-28.0,-8.0,17.0,-5.0,-8.0,34.0,20.0,1650847678676959.0
-1.0,10.0,26.0,27.0,14.0,7.0,-11.0,4.0,1650847678697968.0
4.0,-11.0,-18.0,-4.0,-2.0,0.0,-8.0,-10.0,1650847678697968.0
-2.0,-7.0,-3.0,-15.0,-14.0,-4.0,5.0,-3.0,1650847678698900.0
-1.0,3.0,-3.0,-14.0,0.0,4.0,-10.0,-3.0,1650847678698900.0
4.0,26.0,3.0,-3.0,-1.0,5.0,19.0,17.0,1650847678710934.0
4.0,2.0,1.0,0.0,-2.0,-2.0,0.0,0.0,1650847678710934.0
-7.0,-15.0,-5.0,2.0,1.0,-1.0,3.0,-2.0,1650847678719880.0
-1.0,-34.0,-4.0,-6.0,-6.0,-4.0,-1.0,5.0,1650847678719880.0
3.0,41.0,10.0,2.0,2.0,0.0,-1.0,-6.0,1650847678734862.0
-3.0,7.0,7.0,-3.0,0.0,1.0,-7.0,-4.0,1650847678734862.0
-2.0,-2.0,5.0,9.0,-1.0,-3.0,-2.0,-1.0,1650847678736799.0
-2.0,-10.0,-1.0,2.0,2.0,2.0,6.0,8.0,1650847678736799.0
-2.0,-3.0,-11.0,-17.0,-10.0,-11.0,-14.0,-14.0,1650847678758071.0
-6.0,1.0,-1.0,-2.0,1.0,-3.0,-4.0,-5.0,1650847678758071.0
2.0,-1.0,1.0,11.0,5.0,9.0,8.0,8.0,1650847678759070.0
1.0,6.0,2.0,0.0,-2.0,-5.0,-4.0,-4.0,1650847678759070.0
-8.0,-14.0,-11.0,-9.0,-1.0,-1.0,-6.0,-11.0,1650847678771367.0
1.0,-1.0,9.0,-2.0,-6.0,-16.0,-2.0,3.0,1650847678771367.0
3.0,7.0,9.0,11.0,6.0,13.0,-1.0,4.0,1650847678780275.0
0.0,-3.0,-3.0,-9.0,-6.0,-1.0,9.0,3.0,1650847678780275.0
-5.0,-19.0,-19.0,-8.0,2.0,5.0,-9.0,-4.0,1650847678794920.0
2.0,-5.0,-7.0,3.0,0.0,0.0,3.0,-9.0,1650847678794920.0
0.0,-4.0,13.0,4.0,-5.0,-15.0,2.0,30.0,1650847678800903.0
10.0,5.0,23.0,15.0,27.0,70.0,24.0,-17.0,1650847678800903.0
5.0,-18.0,-19.0,-9.0,-7.0,-12.0,-12.0,-21.0,1650847678817901.0
-12.0,-1.0,-1.0,-3.0,-3.0,-3.0,1.0,-4.0,1650847678817901.0
-4.0,-2.0,-6.0,-7.0,-2.0,4.0,1.0,-4.0,1650847678818830.0
25.0,38.0,80.0,31.0,3.0,-14.0,-4.0,18.0,1650847678818830.0
-16.0,-35.0,-71.0,-13.0,-6.0,-3.0,-2.0,0.0,1650847678830862.0
-2.0,-10.0,-67.0,-56.0,-11.0,-5.0,-6.0,-9.0,1650847678830862.0
-5.0,2.0,61.0,25.0,-4.0,-12.0,-12.0,-11.0,1650847678839901.0
-17.0,-27.0,-88.0,-26.0,-7.0,-14.0,-4.0,3.0,1650847678839901.0
-2.0,7.0,98.0,22.0,5.0,12.0,3.0,2.0,1650847678854908.0
0.0,22.0,-12.0,4.0,-4.0,-8.0,-5.0,1.0,1650847678854908.0
-4.0,-13.0,-48.0,-15.0,-6.0,-3.0,1.0,2.0,1650847678856837.0
-1.0,5.0,7.0,-5.0,-3.0,-3.0,-4.0,-4.0,1650847678856837.0
-1.0,-12.0,-30.0,2.0,1.0,-7.0,-6.0,-5.0,1650847678877958.0
3.0,-20.0,15.0,21.0,5.0,8.0,6.0,9.0,1650847678877958.0
-4.0,7.0,-35.0,-22.0,-2.0,3.0,2.0,-5.0,1650847678878890.0
2.0,21.0,38.0,17.0,-2.0,-11.0,-10.0,0.0,1650847678878890.0
0.0,7.0,13.0,21.0,8.0,5.0,5.0,-5.0,1650847678890886.0
-3.0,-38.0,-49.0,-13.0,-3.0,5.0,8.0,13.0,1650847678890886.0
5.0,19.0,28.0,0.0,-3.0,-1.0,-2.0,-11.0,1650847678899756.0
-8.0,-1.0,-20.0,-26.0,-7.0,-10.0,-8.0,-3.0,1650847678899756.0
-20.0,9.0,31.0,7.0,-1.0,-2.0,-1.0,3.0,1650847678915328.0
35.0,4.0,84.0,40.0,8.0,11.0,6.0,8.0,1650847678915328.0
2.0,-1.0,-50.0,-15.0,-4.0,-10.0,-6.0,-2.0,1650847678916260.0
-3.0,-28.0,-61.0,-10.0,-2.0,-4.0,-1.0,-3.0,1650847678916260.0
14.0,13.0,11.0,-12.0,-1.0,2.0,6.0,10.0,1650847678937361.0
-19.0,3.0,22.0,2.0,-2.0,-2.0,-1.0,-6.0,1650847678937361.0
10.0,8.0,26.0,11.0,5.0,3.0,1.0,3.0,1650847678939299.0
5.0,0.0,-9.0,-5.0,-3.0,-4.0,1.0,2.0,1650847678939299.0
-6.0,-9.0,-12.0,8.0,0.0,1.0,-2.0,-5.0,1650847678951434.0
-6.0,8.0,4.0,-8.0,-4.0,-3.0,-3.0,-3.0,1650847678951434.0
5.0,0.0,12.0,7.0,2.0,2.0,2.0,0.0,1650847678959829.0
-9.0,-2.0,2.0,0.0,-1.0,-1.0,-2.0,-2.0,1650847678959829.0
0.0,-12.0,-11.0,-9.0,1.0,-1.0,-2.0,-1.0,1650847678974840.0
6.0,12.0,-6.0,-7.0,-2.0,3.0,0.0,2.0,1650847678974840.0
-5.0,-6.0,5.0,4.0,2.0,1.0,2.0,-1.0,1650847678980865.0
-9.0,-10.0,-8.0,-3.0,-3.0,-3.0,-3.0,-5.0,1650847678980865.0
10.0,11.0,36.0,0.0,-3.0,-1.0,1.0,4.0,1650847678998588.0
-3.0,0.0,-17.0,2.0,1.0,-1.0,-1.0,-2.0,1650847678998588.0
-6.0,-7.0,-1.0,2.0,2.0,2.0,-1.0,-2.0,1650847679000600.0
-5.0,3.0,-20.0,9.0,-1.0,-4.0,-2.0,-1.0,1650847679000600.0
4.0,-2.0,-7.0,-21.0,-4.0,0.0,2.0,0.0,1650847679019717.0
-2.0,1.0,24.0,9.0,0.0,1.0,0.0,1.0,1650847679019717.0
-2.0,-4.0,4.0,7.0,3.0,1.0,1.0,-3.0,1650847679021644.0
3.0,6.0,18.0,-1.0,0.0,1.0,0.0,2.0,1650847679021644.0
-2.0,-6.0,-12.0,-1.0,-2.0,0.0,-1.0,-1.0,1650847679034675.0
-2.0,2.0,-15.0,-4.0,1.0,1.0,-2.0,-2.0,1650847679034675.0
1.0,-3.0,2.0,-8.0,-8.0,-2.0,-1.0,2.0,1650847679041640.0
1.0,7.0,25.0,24.0,11.0,3.0,0.0,2.0,1650847679041640.0
-3.0,-9.0,-22.0,-5.0,-1.0,0.0,-2.0,-1.0,1650847679057669.0
-2.0,3.0,7.0,1.0,-1.0,-1.0,0.0,-1.0,1650847679057669.0
0.0,-4.0,-8.0,-3.0,-2.0,1.0,1.0,0.0,1650847679059596.0
1.0,1.0,-8.0,-16.0,-9.0,-3.0,-2.0,-2.0,1650847679059596.0
1.0,-2.0,2.0,3.0,1.0,-3.0,-2.0,-1.0,1650847679080559.0
1.0,4.0,11.0,6.0,1.0,1.0,0.0,0.0,1650847679080559.0
-2.0,0.0,-3.0,6.0,1.0,-2.0,-2.0,-2.0,1650847679081540.0
-3.0,-1.0,-3.0,-6.0,-3.0,-2.0,-1.0,1.0,1650847679081540.0
0.0,0.0,-6.0,-6.0,-3.0,1.0,0.0,1.0,1650847679094570.0
-1.0,0.0,4.0,1.0,0.0,1.0,-1.0,-3.0,1650847679094570.0
-4.0,-5.0,-7.0,0.0,1.0,0.0,-1.0,-2.0,1650847679101549.0
0.0,-1.0,5.0,-1.0,-4.0,-2.0,0.0,-2.0,1650847679101549.0
0.0,-3.0,-2.0,-5.0,-2.0,0.0,0.0,2.0,1650847679117838.0
-3.0,2.0,0.0,3.0,0.0,-1.0,-1.0,0.0,1650847679117838.0
1.0,0.0,-34.0,-10.0,5.0,0.0,0.0,-1.0,1650847679118829.0
0.0,2.0,31.0,7.0,-1.0,-2.0,-1.0,-1.0,1650847679118829.0
-1.0,-4.0,-1.0,2.0,-2.0,1.0,-1.0,-1.0,1650847679139964.0
-2.0,-2.0,-13.0,-3.0,0.0,-1.0,-3.0,0.0,1650847679139964.0
0.0,1.0,2.0,-5.0,-2.0,-1.0,1.0,1.0,1650847679141645.0
1.0,3.0,1.0,-1.0,0.0,1.0,-1.0,-1.0,1650847679141645.0
1.0,-1.0,-4.0,5.0,1.0,1.0,3.0,-1.0,1650847679154801.0
-2.0,-6.0,-3.0,-6.0,-3.0,-1.0,-2.0,1.0,1650847679154801.0
1.0,4.0,7.0,2.0,0.0,-2.0,-1.0,-1.0,1650847679156730.0
-4.0,-7.0,3.0,0.0,-2.0,0.0,-1.0,-1.0,1650847679156730.0
0.0,2.0,-14.0,-9.0,-4.0,-4.0,-2.0,-3.0,1650847679178074.0
-1.0,4.0,14.0,5.0,2.0,-1.0,0.0,-1.0,1650847679178074.0
1.0,-1.0,6.0,5.0,2.0,1.0,1.0,0.0,1650847679179083.0
-1.0,-4.0,-4.0,-3.0,-2.0,-1.0,-2.0,-1.0,1650847679179083.0
-1.0,-5.0,-6.0,-3.0,-1.0,-1.0,-1.0,-2.0,1650847679199771.0
2.0,4.0,-13.0,-7.0,0.0,-2.0,0.0,1.0,1650847679199771.0
-2.0,0.0,17.0,4.0,-3.0,-4.0,-1.0,-3.0,1650847679206779.0
1.0,2.0,-6.0,-2.0,1.0,2.0,1.0,0.0,1650847679206779.0
0.0,-3.0,-5.0,-3.0,1.0,0.0,0.0,-2.0,1650847679214796.0
-3.0,-4.0,7.0,2.0,-4.0,-3.0,-2.0,-2.0,1650847679214796.0
0.0,-1.0,3.0,2.0,-2.0,0.0,-1.0,2.0,1650847679221717.0
-1.0,0.0,-6.0,-7.0,-1.0,-2.0,0.0,-1.0,1650847679221717.0
0.0,3.0,6.0,12.0,1.0,0.0,2.0,1.0,1650847679237874.0
-4.0,-10.0,-14.0,-1.0,-1.0,1.0,-1.0,-1.0,1650847679237874.0
0.0,-1.0,6.0,-2.0,-2.0,-2.0,-2.0,-2.0,1650847679238812.0
1.0,5.0,-5.0,-7.0,-2.0,-3.0,0.0,-1.0,1650847679238812.0
-3.0,-4.0,15.0,-2.0,0.0,1.0,-1.0,-2.0,1650847679259831.0
-3.0,-9.0,-36.0,-5.0,-4.0,-1.0,-1.0,-1.0,1650847679259831.0
-1.0,0.0,8.0,2.0,1.0,0.0,1.0,-1.0,1650847679261825.0
2.0,4.0,-2.0,0.0,0.0,0.0,-1.0,2.0,1650847679261825.0
1.0,0.0,4.0,-1.0,-1.0,-2.0,-3.0,0.0,1650847679274843.0
1.0,4.0,7.0,-3.0,1.0,0.0,0.0,0.0,1650847679274843.0
0.0,-2.0,-6.0,-4.0,-2.0,0.0,1.0,-3.0,1650847679280842.0
-2.0,-6.0,-3.0,0.0,-1.0,1.0,0.0,-1.0,1650847679280842.0
-4.0,-5.0,-5.0,-1.0,-1.0,-1.0,-4.0,-1.0,1650847679297931.0
1.0,8.0,12.0,5.0,0.0,1.0,1.0,1.0,1650847679297931.0
-1.0,-4.0,-4.0,-1.0,0.0,-2.0,1.0,1.0,1650847679298940.0
1.0,3.0,4.0,3.0,0.0,1.0,0.0,-3.0,1650847679298940.0
1.0,1.0,0.0,-5.0,-2.0,-1.0,1.0,1.0,1650847679319836.0
1.0,-2.0,-4.0,-1.0,-1.0,0.0,0.0,0.0,1650847679319836.0
-2.0,-4.0,-4.0,-2.0,0.0,0.0,0.0,1.0,1650847679321864.0
-2.0,1.0,-3.0,3.0,-1.0,-2.0,-1.0,0.0,1650847679321864.0
0.0,1.0,4.0,4.0,2.0,-1.0,0.0,-1.0,1650847679334863.0
2.0,1.0,9.0,1.0,0.0,0.0,0.0,0.0,1650847679334863.0
0.0,0.0,-2.0,-2.0,-2.0,0.0,0.0,0.0,1650847679340849.0
-3.0,-6.0,-7.0,-6.0,-1.0,-1.0,-3.0,-2.0,1650847679340849.0
1.0,7.0,9.0,7.0,1.0,-2.0,0.0,-1.0,1650847679357988.0
-2.0,-7.0,-14.0,-7.0,-3.0,-5.0,-1.0,-2.0,1650847679357988.0
-2.0,-4.0,-8.0,-2.0,-2.0,1.0,-1.0,-3.0,1650847679358912.0
2.0,3.0,1.0,-3.0,-2.0,0.0,1.0,1.0,1650847679358912.0
1.0,0.0,16.0,5.0,-2.0,0.0,0.0,0.0,1650847679380058.0
-2.0,0.0,4.0,0.0,5.0,3.0,0.0,-2.0,1650847679380058.0
-1.0,-3.0,-6.0,11.0,2.0,1.0,-1.0,-2.0,1650847679382010.0
0.0,-2.0,-2.0,-8.0,-6.0,-2.0,0.0,-1.0,1650847679382010.0
-3.0,-2.0,-12.0,-6.0,0.0,0.0,-1.0,0.0,1650847679394017.0
0.0,1.0,6.0,6.0,1.0,1.0,-2.0,1.0,1650847679394017.0
-2.0,-2.0,-1.0,-4.0,-2.0,-1.0,-1.0,-2.0,1650847679400961.0
0.0,3.0,4.0,2.0,1.0,1.0,0.0,1.0,1650847679400961.0
1.0,3.0,-3.0,-7.0,-4.0,-2.0,0.0,0.0,1650847679418011.0
-2.0,-5.0,-4.0,-1.0,-2.0,1.0,0.0,-1.0,1650847679418011.0
0.0,2.0,1.0,-2.0,1.0,-1.0,-1.0,-2.0,1650847679418957.0
-2.0,-4.0,5.0,4.0,-1.0,-3.0,-1.0,0.0,1650847679418957.0
0.0,-2.0,-7.0,-1.0,-1.0,-2.0,0.0,1.0,1650847679439794.0
0.0,0.0,8.0,-5.0,-1.0,-1.0,-1.0,0.0,1650847679439794.0
1.0,3.0,0.0,5.0,4.0,3.0,0.0,-1.0,1650847679442105.0
1.0,-3.0,-1.0,-5.0,1.0,-1.0,0.0,-1.0,1650847679442105.0
-2.0,-5.0,-12.0,-1.0,-2.0,0.0,-2.0,-1.0,1650847679463011.0
1.0,2.0,0.0,-1.0,0.0,0.0,0.0,0.0,1650847679463011.0
-3.0,-1.0,1.0,1.0,2.0,1.0,-1.0,1.0,1650847679463801.0
-3.0,-1.0,-3.0,1.0,-1.0,-1.0,-1.0,-1.0,1650847679463801.0
0.0,1.0,-2.0,-6.0,-1.0,-1.0,2.0,0.0,1650847679478013.0
3.0,4.0,14.0,-1.0,-3.0,0.0,1.0,1.0,1650847679478013.0
-2.0,-10.0,-17.0,-6.0,-4.0,-1.0,0.0,-2.0,1650847679478783.0
2.0,5.0,3.0,4.0,6.0,2.0,-1.0,1.0,1650847679478783.0
-2.0,-5.0,-4.0,1.0,-3.0,-1.0,-2.0,-2.0,1650847679499795.0
-1.0,3.0,2.0,-9.0,-5.0,-1.0,0.0,-2.0,1650847679499795.0
2.0,7.0,9.0,9.0,7.0,-1.0,0.0,1.0,1650847679501725.0
-5.0,-9.0,-4.0,6.0,2.0,0.0,-1.0,-2.0,1650847679501725.0
-1.0,3.0,-2.0,-3.0,-3.0,-2.0,-2.0,0.0,1650847679513756.0
-2.0,-2.0,-4.0,0.0,1.0,0.0,-1.0,-1.0,1650847679513756.0
0.0,3.0,5.0,-5.0,-4.0,0.0,-3.0,-1.0,1650847679522668.0
-1.0,-1.0,-5.0,-1.0,0.0,-1.0,0.0,-2.0,1650847679522668.0
2.0,1.0,2.0,-1.0,4.0,2.0,1.0,-1.0,1650847679537694.0
-4.0,-5.0,-7.0,1.0,-1.0,-1.0,0.0,-1.0,1650847679537694.0
-1.0,4.0,7.0,2.0,-1.0,-2.0,-1.0,0.0,1650847679538626.0
0.0,5.0,1.0,-1.0,-1.0,1.0,0.0,1.0,1650847679538626.0
-2.0,-5.0,-1.0,1.0,-1.0,0.0,0.0,1.0,1650847679559636.0
-1.0,-1.0,-2.0,3.0,0.0,0.0,-1.0,1.0,1650847679559636.0
0.0,0.0,1.0,0.0,-1.0,0.0,0.0,-1.0,1650847679561566.0
-2.0,-1.0,-1.0,-2.0,-4.0,0.0,0.0,-1.0,1650847679561566.0
2.0,-1.0,0.0,2.0,7.0,3.0,2.0,1.0,1650847679573598.0
1.0,-2.0,-5.0,-3.0,-3.0,-2.0,1.0,-1.0,1650847679573598.0
0.0,-1.0,0.0,-2.0,-3.0,-1.0,0.0,-2.0,1650847679582510.0
1.0,2.0,-2.0,-2.0,1.0,-5.0,-2.0,0.0,1650847679582510.0
-2.0,-1.0,-1.0,5.0,-1.0,0.0,2.0,-1.0,1650847679597965.0
-2.0,-3.0,2.0,-2.0,-1.0,0.0,-1.0,-2.0,1650847679597965.0
0.0,2.0,4.0,9.0,1.0,-2.0,-2.0,0.0,1650847679598926.0
-1.0,0.0,-4.0,-5.0,-5.0,0.0,-1.0,1.0,1650847679598926.0
0.0,0.0,-3.0,-5.0,-3.0,-2.0,-1.0,-1.0,1650847679619936.0
1.0,1.0,1.0,-2.0,-1.0,0.0,-2.0,0.0,1650847679619936.0
0.0,-1.0,-4.0,-3.0,-1.0,-1.0,-2.0,-2.0,1650847679621865.0
-1.0,-6.0,-1.0,-3.0,-1.0,-1.0,1.0,-1.0,1650847679621865.0
-1.0,2.0,4.0,0.0,0.0,-1.0,-2.0,-2.0,1650847679633831.0
-2.0,-2.0,-8.0,-6.0,-4.0,-3.0,0.0,0.0,1650847679633831.0
-2.0,-4.0,1.0,3.0,3.0,2.0,1.0,0.0,1650847679642808.0
1.0,7.0,3.0,2.0,-1.0,-1.0,-2.0,0.0,1650847679642808.0
-3.0,-9.0,-6.0,-2.0,-1.0,0.0,-1.0,-2.0,1650847679657829.0
0.0,2.0,3.0,0.0,0.0,-2.0,1.0,1.0,1650847679657829.0
-3.0,-2.0,-6.0,-5.0,-4.0,-2.0,-3.0,1.0,1650847679658765.0
-1.0,-4.0,-3.0,0.0,0.0,0.0,1.0,0.0,1650847679658765.0
0.0,2.0,2.0,2.0,0.0,-1.0,-1.0,-1.0,1650847679679851.0
1.0,3.0,-2.0,0.0,-1.0,0.0,0.0,0.0,1650847679679851.0
0.0,-2.0,-2.0,0.0,4.0,0.0,1.0,1.0,1650847679681876.0
-1.0,2.0,7.0,2.0,-2.0,-1.0,-2.0,0.0,1650847679681876.0
-1.0,-1.0,1.0,2.0,-1.0,-1.0,-1.0,0.0,1650847679693883.0
1.0,0.0,-2.0,1.0,-1.0,-2.0,0.0,-2.0,1650847679693883.0
-2.0,-1.0,3.0,-5.0,-3.0,-1.0,-1.0,-2.0,1650847679702791.0
0.0,-1.0,-2.0,-4.0,0.0,1.0,-1.0,0.0,1650847679702791.0
-1.0,-1.0,-2.0,-2.0,-1.0,0.0,0.0,0.0,1650847679717752.0
0.0,0.0,-2.0,1.0,2.0,-1.0,-2.0,1.0,1650847679717752.0
1.0,2.0,0.0,-4.0,-5.0,-2.0,0.0,0.0,1650847679718776.0
-2.0,-5.0,-12.0,-5.0,1.0,1.0,0.0,-1.0,1650847679718776.0
0.0,0.0,12.0,4.0,-2.0,1.0,-1.0,-1.0,1650847679739842.0
-1.0,2.0,-7.0,4.0,5.0,1.0,0.0,0.0,1650847679739842.0
0.0,5.0,3.0,-4.0,-5.0,-1.0,-1.0,0.0,1650847679741862.0
1.0,-3.0,1.0,7.0,6.0,2.0,2.0,1.0,1650847679741862.0
0.0,4.0,-7.0,-11.0,-1.0,0.0,-2.0,1.0,1650847679753872.0
-3.0,-4.0,-1.0,3.0,2.0,0.0,0.0,-1.0,1650847679753872.0
-1.0,-3.0,-1.0,1.0,0.0,-1.0,0.0,-2.0,1650847679770377.0
-1.0,1.0,-4.0,-1.0,-4.0,-3.0,-1.0,-1.0,1650847679770377.0
0.0,1.0,-3.0,-6.0,-6.0,0.0,-1.0,0.0,1650847679778075.0
-2.0,-1.0,5.0,3.0,5.0,4.0,0.0,-1.0,1650847679778075.0
1.0,3.0,-2.0,1.0,2.0,0.0,0.0,1.0,1650847679779075.0
-3.0,-7.0,-1.0,-4.0,-4.0,-4.0,-1.0,-1.0,1650847679779075.0
0.0,-2.0,-5.0,-4.0,-1.0,0.0,1.0,-1.0,1650847679800368.0
0.0,-4.0,-1.0,9.0,3.0,-2.0,0.0,1.0,1650847679800368.0
1.0,1.0,3.0,-4.0,-2.0,0.0,-1.0,1.0,1650847679801299.0
2.0,3.0,3.0,4.0,1.0,3.0,-2.0,-2.0,1650847679801299.0
-2.0,-4.0,-3.0,-2.0,1.0,-1.0,-1.0,0.0,1650847679814264.0
-1.0,2.0,-2.0,-6.0,-6.0,-2.0,0.0,-2.0,1650847679814264.0
-1.0,-3.0,-3.0,1.0,0.0,-1.0,0.0,-2.0,1650847679822322.0
-2.0,2.0,3.0,-2.0,-6.0,-4.0,0.0,-2.0,1650847679822322.0
0.0,-6.0,-9.0,-4.0,-2.0,-2.0,-1.0,0.0,1650847679838022.0
1.0,4.0,-6.0,1.0,0.0,3.0,1.0,0.0,1650847679838022.0
-2.0,8.0,29.0,7.0,-3.0,-2.0,-1.0,-3.0,1650847679839022.0
-2.0,-4.0,-14.0,-5.0,-2.0,0.0,-1.0,-3.0,1650847679839022.0
-1.0,-1.0,0.0,4.0,0.0,-2.0,1.0,0.0,1650847679859075.0
-1.0,1.0,-2.0,-5.0,-4.0,-2.0,-1.0,-2.0,1650847679859075.0
0.0,-2.0,-8.0,-3.0,0.0,1.0,0.0,0.0,1650847679868053.0
1.0,2.0,6.0,3.0,3.0,0.0,-2.0,1.0,1650847679868053.0
0.0,0.0,1.0,1.0,-1.0,-2.0,-1.0,-1.0,1650847679874058.0
0.0,-3.0,0.0,-2.0,-1.0,0.0,-2.0,1.0,1650847679874058.0
0.0,-2.0,-9.0,-2.0,2.0,3.0,0.0,2.0,1650847679883019.0
-1.0,0.0,7.0,0.0,-4.0,0.0,-2.0,-1.0,1650847679883019.0
1.0,2.0,-3.0,5.0,4.0,-1.0,1.0,-2.0,1650847679898018.0
-1.0,0.0,4.0,-2.0,-2.0,-2.0,-1.0,-2.0,1650847679898018.0
-1.0,-3.0,-7.0,0.0,0.0,1.0,1.0,1.0,1650847679898983.0
-2.0,-1.0,-1.0,1.0,1.0,-2.0,0.0,-2.0,1650847679898983.0
-1.0,1.0,2.0,0.0,1.0,1.0,1.0,1.0,1650847679919980.0
-1.0,0.0,-2.0,-4.0,-5.0,-3.0,1.0,0.0,1650847679919980.0
-2.0,1.0,2.0,1.0,0.0,-1.0,-1.0,-1.0,1650847679921909.0
1.0,-3.0,-8.0,-4.0,-2.0,-1.0,0.0,1.0,1650847679921909.0
0.0,2.0,2.0,0.0,-2.0,-1.0,0.0,1.0,1650847679933940.0
-1.0,-3.0,0.0,-2.0,1.0,1.0,-2.0,0.0,1650847679933940.0
2.0,-1.0,-8.0,-6.0,-2.0,-2.0,-2.0,1.0,1650847679942853.0
0.0,3.0,4.0,1.0,2.0,0.0,1.0,0.0,1650847679942853.0
-2.0,-5.0,1.0,2.0,0.0,2.0,-2.0,-2.0,1650847679957879.0
-1.0,-1.0,0.0,-1.0,-2.0,-1.0,0.0,-1.0,1650847679957879.0
-2.0,-5.0,-6.0,-2.0,0.0,-1.0,0.0,0.0,1650847679958823.0
1.0,3.0,12.0,2.0,1.0,1.0,1.0,-1.0,1650847679958823.0
-1.0,3.0,-11.0,10.0,4.0,-1.0,0.0,0.0,1650847679979799.0
1.0,1.0,1.0,-2.0,-2.0,1.0,-1.0,1.0,1650847679979799.0
-2.0,-1.0,7.0,2.0,2.0,0.0,-1.0,-2.0,1650847679981726.0
-1.0,-3.0,-10.0,-7.0,-2.0,-3.0,-3.0,1.0,1650847679981726.0
2.0,0.0,1.0,-5.0,-3.0,-1.0,0.0,-2.0,1650847680002939.0
1.0,3.0,3.0,3.0,1.0,1.0,-1.0,-1.0,1650847680002939.0
-1.0,-6.0,-11.0,-3.0,-2.0,-2.0,-1.0,-1.0,1650847680003870.0
-1.0,-1.0,-1.0,-1.0,-2.0,1.0,0.0,0.0,1650847680003870.0
0.0,1.0,1.0,-3.0,-1.0,0.0,-3.0,0.0,1650847680017853.0
-1.0,-3.0,-2.0,1.0,0.0,-2.0,-1.0,0.0,1650847680017853.0
0.0,-1.0,-1.0,0.0,0.0,0.0,0.0,-2.0,1650847680018843.0
0.0,1.0,3.0,4.0,2.0,1.0,0.0,2.0,1650847680018843.0
-2.0,0.0,1.0,-2.0,-2.0,-2.0,-1.0,-3.0,1650847680040282.0
0.0,1.0,2.0,1.0,1.0,0.0,1.0,-1.0,1650847680040282.0
-1.0,-3.0,-1.0,-4.0,-1.0,1.0,-1.0,-1.0,1650847680041220.0
-1.0,-3.0,-4.0,2.0,0.0,1.0,0.0,-1.0,1650847680041220.0
-2.0,-1.0,-3.0,-2.0,-3.0,-2.0,0.0,-1.0,1650847680062987.0
-1.0,-2.0,-1.0,-1.0,1.0,-2.0,-1.0,-2.0,1650847680062987.0
2.0,2.0,-1.0,0.0,1.0,1.0,-1.0,0.0,1650847680063773.0
0.0,-1.0,-1.0,2.0,3.0,0.0,-1.0,0.0,1650847680063773.0
0.0,-1.0,1.0,-3.0,-3.0,-3.0,-2.0,-1.0,1650847680084746.0
0.0,-2.0,4.0,1.0,-2.0,1.0,1.0,1.0,1650847680084746.0
-1.0,-4.0,-4.0,-3.0,-3.0,-2.0,0.0,-2.0,1650847680086715.0
-1.0,2.0,-1.0,-1.0,-2.0,0.0,-1.0,0.0,1650847680086715.0
-1.0,-1.0,1.0,3.0,1.0,0.0,0.0,-1.0,1650847680099746.0
0.0,-1.0,-3.0,-3.0,-1.0,0.0,-2.0,1.0,1650847680099746.0
-1.0,-2.0,-2.0,1.0,-1.0,-3.0,-1.0,2.0,1650847680101675.0
-1.0,-1.0,-4.0,-6.0,-4.0,-2.0,-2.0,-1.0,1650847680101675.0
0.0,1.0,3.0,2.0,2.0,2.0,1.0,-2.0,1650847680122771.0
0.0,-3.0,-3.0,1.0,0.0,0.0,0.0,0.0,1650847680122771.0
0.0,1.0,8.0,3.0,-1.0,-1.0,1.0,0.0,1650847680123709.0
-1.0,0.0,-3.0,-3.0,0.0,-2.0,-1.0,-1.0,1650847680123709.0
1.0,-2.0,-11.0,-4.0,-3.0,-1.0,-1.0,0.0,1650847680136734.0
-3.0,3.0,-2.0,-4.0,-2.0,-2.0,-2.0,-2.0,1650847680136734.0
1.0,0.0,4.0,2.0,-2.0,0.0,-3.0,0.0,1650847680143715.0
0.0,-2.0,-2.0,0.0,5.0,0.0,0.0,-2.0,1650847680143715.0
0.0,0.0,2.0,1.0,2.0,3.0,0.0,1.0,1650847680160054.0
-1.0,-2.0,-7.0,-8.0,-2.0,1.0,0.0,-1.0,1650847680160054.0
0.0,1.0,-1.0,5.0,-4.0,-4.0,-1.0,-2.0,1650847680161983.0
1.0,4.0,13.0,11.0,-1.0,1.0,-1.0,0.0,1650847680161983.0
-2.0,-4.0,0.0,3.0,4.0,0.0,-3.0,1.0,1650847680183026.0
-1.0,-4.0,-1.0,-4.0,-4.0,-3.0,0.0,-1.0,1650847680183026.0
-1.0,1.0,-10.0,-7.0,0.0,-1.0,0.0,0.0,1650847680184786.0
-2.0,-3.0,0.0,-7.0,-4.0,-1.0,0.0,-2.0,1650847680184786.0
-2.0,-3.0,-2.0,2.0,-4.0,-3.0,-2.0,-3.0,1650847680196742.0
1.0,1.0,1.0,0.0,-1.0,0.0,-2.0,-2.0,1650847680196742.0
2.0,2.0,2.0,-4.0,3.0,2.0,0.0,0.0,1650847680203767.0
-3.0,-8.0,-13.0,-19.0,-15.0,-6.0,-3.0,0.0,1650847680203767.0
-2.0,5.0,12.0,6.0,-3.0,-1.0,2.0,0.0,1650847680220423.0
2.0,-5.0,-15.0,-24.0,-4.0,-5.0,0.0,0.0,1650847680220423.0
3.0,18.0,13.0,-1.0,6.0,5.0,0.0,1.0,1650847680221365.0
-3.0,-10.0,12.0,33.0,12.0,5.0,1.0,1.0,1650847680221365.0
-2.0,-15.0,-3.0,6.0,14.0,4.0,2.0,0.0,1650847680243040.0
0.0,31.0,9.0,14.0,0.0,-2.0,5.0,-1.0,1650847680243040.0
1.0,-1.0,-7.0,0.0,-4.0,0.0,-2.0,-1.0,1650847680243966.0
0.0,2.0,-17.0,-26.0,-18.0,-8.0,-4.0,-3.0,1650847680243966.0
1.0,4.0,6.0,-9.0,-3.0,-1.0,-1.0,0.0,1650847680256932.0
-7.0,-21.0,-7.0,4.0,-5.0,-5.0,-4.0,-3.0,1650847680256932.0
-2.0,0.0,-2.0,-4.0,-2.0,-3.0,-3.0,-3.0,1650847680263982.0
3.0,7.0,10.0,16.0,10.0,4.0,2.0,-1.0,1650847680263982.0
0.0,3.0,-2.0,0.0,0.0,-1.0,1.0,1.0,1650847680279823.0
1.0,6.0,4.0,3.0,5.0,5.0,3.0,1.0,1650847680279823.0
-1.0,-1.0,3.0,-1.0,-4.0,-1.0,-1.0,-1.0,1650847680281820.0
3.0,9.0,4.0,3.0,2.0,0.0,0.0,-3.0,1650847680281820.0
-1.0,5.0,-2.0,-5.0,-1.0,-2.0,-4.0,-4.0,1650847680302833.0
-8.0,-32.0,-17.0,-8.0,-6.0,3.0,1.0,-2.0,1650847680302833.0
3.0,0.0,3.0,17.0,9.0,5.0,-1.0,6.0,1650847680303835.0
-3.0,-1.0,-2.0,-25.0,-8.0,-3.0,-2.0,0.0,1650847680303835.0
-4.0,-14.0,-25.0,-21.0,7.0,-4.0,-12.0,-5.0,1650847680315856.0
7.0,23.0,35.0,43.0,27.0,3.0,-5.0,-2.0,1650847680315856.0
1.0,-2.0,10.0,8.0,-5.0,-3.0,31.0,5.0,1650847680324851.0
-7.0,-18.0,-21.0,-13.0,-1.0,0.0,-7.0,-9.0,1650847680324851.0
-8.0,-12.0,-4.0,-10.0,-16.0,-6.0,-2.0,-2.0,1650847680339899.0
-1.0,0.0,-19.0,-35.0,-17.0,-7.0,-16.0,-3.0,1650847680339899.0
6.0,14.0,7.0,-2.0,9.0,0.0,-4.0,3.0,1650847680341853.0
12.0,37.0,27.0,19.0,8.0,2.0,3.0,5.0,1650847680341853.0
-8.0,-22.0,-17.0,-17.0,-14.0,-1.0,7.0,-8.0,1650847680362882.0
-6.0,-8.0,-6.0,1.0,0.0,-2.0,-3.0,-2.0,1650847680362882.0
-3.0,-5.0,-8.0,-11.0,-8.0,-1.0,-7.0,-8.0,1650847680363842.0
1.0,-16.0,-1.0,5.0,4.0,1.0,5.0,4.0,1650847680363842.0
-4.0,2.0,-6.0,-7.0,-3.0,-8.0,14.0,13.0,1650847680375785.0
3.0,5.0,23.0,22.0,9.0,-1.0,-30.0,-12.0,1650847680375785.0
-6.0,0.0,-21.0,9.0,3.0,-11.0,-17.0,-9.0,1650847680384828.0
-10.0,-54.0,-9.0,-10.0,8.0,1.0,-2.0,-7.0,1650847680384828.0
1.0,14.0,13.0,3.0,-3.0,-11.0,7.0,-5.0,1650847680399789.0
-1.0,29.0,26.0,23.0,13.0,6.0,16.0,-10.0,1650847680399789.0
-6.0,-22.0,-27.0,-16.0,-8.0,2.0,-16.0,-4.0,1650847680401717.0
-3.0,6.0,-5.0,-11.0,-14.0,-5.0,-43.0,-11.0,1650847680401717.0
17.0,51.0,12.0,-2.0,2.0,12.0,13.0,15.0,1650847680423637.0
-3.0,-36.0,-7.0,-1.0,-6.0,-2.0,11.0,-2.0,1650847680423637.0
2.0,3.0,8.0,12.0,7.0,2.0,5.0,3.0,1650847680424598.0
-1.0,5.0,-2.0,-12.0,5.0,-1.0,-34.0,-10.0,1650847680424598.0
-2.0,-7.0,-1.0,0.0,-2.0,1.0,21.0,1.0,1650847680436566.0
-1.0,-9.0,0.0,24.0,5.0,1.0,-4.0,11.0,1650847680436566.0
2.0,12.0,-1.0,-12.0,-6.0,1.0,16.0,4.0,1650847680451592.0
-5.0,-1.0,-7.0,1.0,1.0,5.0,22.0,-3.0,1650847680451592.0
1.0,3.0,4.0,2.0,-6.0,-12.0,-21.0,-9.0,1650847680459637.0
-1.0,-30.0,-26.0,-35.0,-11.0,-5.0,-6.0,1.0,1650847680459637.0
1.0,8.0,13.0,8.0,3.0,-6.0,30.0,15.0,1650847680461625.0
6.0,33.0,13.0,42.0,10.0,-4.0,-21.0,2.0,1650847680461625.0
7.0,5.0,5.0,-13.0,4.0,16.0,1.0,-11.0,1650847680482960.0
-14.0,-34.0,-27.0,-33.0,-35.0,-11.0,6.0,2.0,1650847680482960.0
-10.0,19.0,-1.0,-3.0,15.0,9.0,18.0,4.0,1650847680483805.0
8.0,-11.0,-9.0,-41.0,-29.0,-9.0,22.0,13.0,1650847680483805.0
-14.0,70.0,54.0,93.0,48.0,11.0,-34.0,-15.0,1650847680495843.0
16.0,-13.0,4.0,-10.0,3.0,14.0,-3.0,16.0,1650847680495843.0
-37.0,-28.0,-29.0,-42.0,-23.0,-10.0,-4.0,-19.0,1650847680505755.0
17.0,20.0,14.0,40.0,16.0,3.0,9.0,7.0,1650847680505755.0
-4.0,-9.0,6.0,6.0,7.0,-2.0,-8.0,3.0,1650847680519711.0
-2.0,29.0,61.0,21.0,8.0,1.0,-3.0,-17.0,1650847680519711.0
12.0,-25.0,-45.0,-24.0,5.0,13.0,1.0,11.0,1650847680521709.0
-14.0,-14.0,-15.0,-19.0,-15.0,-11.0,3.0,-14.0,1650847680521709.0
0.0,-66.0,-51.0,-31.0,-24.0,-19.0,-21.0,-8.0,1650847680542778.0
74.0,64.0,12.0,-11.0,-3.0,-7.0,37.0,36.0,1650847680542778.0
-3.0,8.0,23.0,14.0,-9.0,-4.0,-15.0,9.0,1650847680543749.0
-3.0,-15.0,3.0,22.0,20.0,13.0,41.0,31.0,1650847680543749.0
-11.0,-3.0,-43.0,-9.0,-8.0,2.0,-22.0,-31.0,1650847680556733.0
-38.0,-10.0,14.0,-28.0,-10.0,5.0,32.0,-4.0,1650847680556733.0
28.0,4.0,12.0,23.0,4.0,-7.0,-45.0,0.0,1650847680565692.0
58.0,24.0,-77.0,-41.0,-17.0,-11.0,38.0,7.0,1650847680565692.0
-13.0,-4.0,37.0,30.0,16.0,19.0,-30.0,-4.0,1650847680579761.0
-3.0,-14.0,-34.0,-11.0,5.0,-2.0,3.0,4.0,1650847680579761.0
-13.0,-5.0,35.0,49.0,8.0,2.0,18.0,6.0,1650847680581785.0
-16.0,13.0,26.0,14.0,10.0,2.0,-17.0,-12.0,1650847680581785.0
23.0,-29.0,-25.0,-43.0,-19.0,-8.0,7.0,7.0,1650847680601858.0
-37.0,17.0,-11.0,24.0,1.0,2.0,-15.0,-22.0,1650847680601858.0
12.0,15.0,38.0,11.0,8.0,3.0,-14.0,-7.0,1650847680608770.0
-8.0,-11.0,-23.0,-9.0,2.0,5.0,-26.0,-1.0,1650847680608770.0
3.0,-8.0,-5.0,-19.0,-4.0,-3.0,43.0,-6.0,1650847680615814.0
4.0,16.0,11.0,21.0,20.0,6.0,-34.0,-3.0,1650847680615814.0
-12.0,1.0,-19.0,-23.0,-10.0,-4.0,-9.0,-21.0,1650847680624727.0
-10.0,-15.0,10.0,-15.0,-14.0,-2.0,16.0,5.0,1650847680624727.0
3.0,10.0,-7.0,-17.0,-8.0,-14.0,-10.0,1.0,1650847680639899.0
-15.0,-33.0,7.0,50.0,25.0,10.0,25.0,14.0,1650847680639899.0
-4.0,-62.0,-41.0,-39.0,-21.0,-14.0,-19.0,-21.0,1650847680641828.0
-25.0,33.0,21.0,12.0,0.0,-7.0,-46.0,-32.0,1650847680641828.0
45.0,-18.0,-7.0,-22.0,-13.0,-1.0,30.0,32.0,1650847680662990.0
-18.0,49.0,-4.0,0.0,2.0,4.0,-5.0,-13.0,1650847680662990.0
8.0,-27.0,12.0,-13.0,-6.0,1.0,17.0,17.0,1650847680663933.0
-6.0,-26.0,-21.0,45.0,18.0,4.0,-1.0,-6.0,1650847680663933.0
9.0,27.0,36.0,-6.0,-13.0,0.0,-4.0,8.0,1650847680675970.0
11.0,9.0,-3.0,3.0,12.0,1.0,10.0,4.0,1650847680675970.0
13.0,11.0,-10.0,7.0,4.0,7.0,3.0,9.0,1650847680684942.0
1.0,-6.0,25.0,-11.0,-4.0,-2.0,-20.0,-7.0,1650847680684942.0
-31.0,29.0,7.0,39.0,24.0,15.0,28.0,13.0,1650847680700013.0
12.0,31.0,16.0,-31.0,-20.0,-4.0,-2.0,0.0,1650847680700013.0
-8.0,-32.0,1.0,43.0,17.0,3.0,-9.0,1.0,1650847680701969.0
-5.0,-12.0,6.0,-8.0,-6.0,-3.0,25.0,-11.0,1650847680701969.0
7.0,-10.0,1.0,-1.0,8.0,6.0,9.0,17.0,1650847680722952.0
8.0,6.0,10.0,-26.0,-9.0,-1.0,-9.0,10.0,1650847680722952.0
-13.0,-4.0,17.0,-3.0,-14.0,-5.0,6.0,-8.0,1650847680723883.0
8.0,-14.0,-62.0,-28.0,-2.0,4.0,4.0,14.0,1650847680723883.0
-16.0,-11.0,12.0,34.0,14.0,7.0,-15.0,-21.0,1650847680735906.0
15.0,-13.0,-10.0,-14.0,-5.0,-10.0,12.0,34.0,1650847680735906.0
-11.0,-13.0,7.0,-10.0,-7.0,3.0,32.0,-18.0,1650847680744826.0
-10.0,-5.0,11.0,-6.0,-4.0,-6.0,-22.0,-9.0,1650847680744826.0
-7.0,-12.0,-7.0,4.0,-6.0,-5.0,1.0,0.0,1650847680760246.0
3.0,-32.0,-32.0,-12.0,-2.0,-7.0,-54.0,-47.0,1650847680760246.0
-11.0,31.0,1.0,-8.0,-6.0,0.0,48.0,48.0,1650847680762230.0
1.0,-15.0,23.0,5.0,1.0,4.0,11.0,6.0,1650847680762230.0
23.0,22.0,-6.0,-6.0,-4.0,-4.0,-2.0,7.0,1650847680782334.0
17.0,-21.0,-6.0,-11.0,-9.0,-3.0,-8.0,-14.0,1650847680782334.0
-16.0,44.0,9.0,-6.0,-1.0,-8.0,-14.0,-13.0,1650847680784331.0
-14.0,33.0,68.0,37.0,2.0,0.0,-29.0,-17.0,1650847680784331.0
-2.0,-10.0,-48.0,-19.0,-12.0,1.0,73.0,57.0,1650847680796365.0
21.0,-15.0,-23.0,16.0,-7.0,-13.0,-22.0,-23.0,1650847680796365.0
7.0,6.0,-13.0,-16.0,-3.0,2.0,-28.0,-17.0,1650847680805275.0
4.0,-1.0,8.0,6.0,14.0,5.0,21.0,13.0,1650847680805275.0
-4.0,32.0,18.0,-5.0,-2.0,-3.0,-18.0,-12.0,1650847680820508.0
-15.0,2.0,16.0,27.0,5.0,6.0,29.0,14.0,1650847680820508.0
-6.0,-7.0,-13.0,-5.0,-1.0,0.0,-2.0,1.0,1650847680821505.0
-4.0,18.0,9.0,16.0,1.0,-4.0,-8.0,-15.0,1650847680821505.0
7.0,-33.0,-1.0,-6.0,-9.0,-12.0,-36.0,-25.0,1650847680842820.0
-25.0,-23.0,-13.0,0.0,12.0,12.0,5.0,5.0,1650847680842820.0
16.0,30.0,2.0,-3.0,-6.0,-6.0,-8.0,9.0,1650847680843816.0
5.0,-20.0,-2.0,2.0,11.0,8.0,11.0,-12.0,1650847680843816.0
-22.0,17.0,23.0,16.0,2.0,-2.0,-23.0,-4.0,1650847680855784.0
-1.0,15.0,7.0,-8.0,-10.0,-9.0,-12.0,-3.0,1650847680855784.0
27.0,-10.0,-33.0,-29.0,-7.0,-3.0,36.0,24.0,1650847680888610.0
-55.0,-14.0,-17.0,-7.0,-9.0,-5.0,10.0,-2.0,1650847680888610.0
11.0,-3.0,-2.0,-10.0,-7.0,-8.0,-8.0,-8.0,1650847680888916.0
1.0,12.0,16.0,-6.0,-3.0,6.0,17.0,26.0,1650847680888916.0
0.0,-12.0,0.0,-11.0,-6.0,-6.0,-19.0,-43.0,1650847680890942.0
17.0,17.0,12.0,11.0,16.0,16.0,51.0,58.0,1650847680890942.0
-22.0,4.0,-3.0,-2.0,2.0,2.0,-16.0,-38.0,1650847680902911.0
14.0,9.0,21.0,7.0,4.0,-1.0,-8.0,15.0,1650847680902911.0
3.0,-20.0,-41.0,-4.0,-12.0,-13.0,-63.0,-46.0,1650847680903880.0
16.0,25.0,-20.0,-48.0,-15.0,7.0,87.0,60.0,1650847680903880.0
-13.0,-34.0,4.0,26.0,17.0,2.0,-1.0,3.0,1650847680915847.0
12.0,18.0,5.0,1.0,-2.0,2.0,-7.0,-11.0,1650847680915847.0
-1.0,2.0,22.0,5.0,4.0,-1.0,4.0,23.0,1650847680924889.0
-27.0,18.0,-7.0,-1.0,-19.0,-18.0,-47.0,-53.0,1650847680924889.0
24.0,-80.0,-25.0,-45.0,-9.0,7.0,19.0,19.0,1650847680939849.0
-2.0,16.0,21.0,58.0,25.0,0.0,18.0,9.0,1650847680939849.0
10.0,33.0,3.0,17.0,10.0,0.0,-1.0,-1.0,1650847680941805.0
-2.0,-36.0,-6.0,5.0,2.0,-2.0,-25.0,-16.0,1650847680941805.0
-5.0,53.0,9.0,-5.0,-14.0,-7.0,-4.0,-6.0,1650847680962788.0
0.0,-4.0,8.0,13.0,13.0,14.0,21.0,16.0,1650847680962788.0
7.0,0.0,15.0,0.0,6.0,-1.0,-10.0,-7.0,1650847680963719.0
13.0,-27.0,-7.0,9.0,2.0,-6.0,-14.0,4.0,1650847680963719.0
3.0,10.0,-5.0,15.0,-4.0,0.0,0.0,3.0,1650847680992820.0
-33.0,-23.0,-22.0,-43.0,-17.0,-15.0,-70.0,-62.0,1650847680992820.0
18.0,-3.0,20.0,-10.0,2.0,1.0,76.0,42.0,1650847680993838.0
11.0,65.0,20.0,20.0,6.0,4.0,-27.0,1.0,1650847680993838.0
20.0,-7.0,-9.0,1.0,8.0,-5.0,-48.0,0.0,1650847680999801.0
-24.0,18.0,-4.0,-11.0,-12.0,-6.0,23.0,-2.0,1650847680999801.0
4.0,-19.0,-25.0,3.0,-1.0,11.0,21.0,20.0,1650847681001796.0
14.0,-7.0,3.0,-18.0,-19.0,-15.0,0.0,-8.0,1650847681001796.0
-15.0,-16.0,0.0,1.0,6.0,0.0,-3.0,-2.0,1650847681022807.0
1.0,-5.0,-6.0,-1.0,-7.0,-8.0,-34.0,-32.0,1650847681022807.0
-4.0,-1.0,-2.0,25.0,12.0,9.0,35.0,23.0,1650847681023737.0
3.0,-16.0,-8.0,-15.0,-10.0,-3.0,-11.0,9.0,1650847681023737.0
0.0,1.0,-3.0,-28.0,-13.0,-4.0,-17.0,-19.0,1650847681044849.0
-16.0,-25.0,-1.0,26.0,-3.0,-4.0,27.0,6.0,1650847681044849.0
8.0,40.0,19.0,-7.0,9.0,4.0,-9.0,14.0,1650847681046777.0
-13.0,-63.0,-57.0,-1.0,3.0,5.0,2.0,-2.0,1650847681046777.0
31.0,55.0,24.0,3.0,5.0,2.0,-2.0,2.0,1650847681059906.0
-10.0,4.0,-14.0,-35.0,-28.0,-6.0,3.0,-11.0,1650847681059906.0
3.0,-6.0,-16.0,11.0,24.0,3.0,-20.0,-13.0,1650847681066724.0
25.0,32.0,31.0,12.0,3.0,5.0,12.0,21.0,1650847681066724.0
-63.0,-9.0,-11.0,-16.0,-4.0,1.0,10.0,-11.0,1650847681089897.0
14.0,-5.0,0.0,23.0,10.0,12.0,30.0,28.0,1650847681089897.0
-1.0,4.0,1.0,-7.0,-4.0,-4.0,-17.0,-12.0,1650847681091852.0
-7.0,22.0,11.0,7.0,13.0,8.0,9.0,8.0,1650847681091852.0
-12.0,-36.0,-6.0,-9.0,-7.0,-1.0,-7.0,-2.0,1650847681104859.0
12.0,6.0,-3.0,-11.0,1.0,6.0,12.0,-5.0,1650847681104859.0
4.0,-20.0,7.0,25.0,5.0,9.0,33.0,20.0,1650847681106811.0
-1.0,33.0,14.0,5.0,-10.0,-8.0,-24.0,-27.0,1650847681106811.0
-1.0,13.0,-8.0,-3.0,-1.0,0.0,1.0,1.0,1650847681119903.0
3.0,-9.0,11.0,-5.0,11.0,-5.0,-7.0,12.0,1650847681119903.0
2.0,-21.0,-15.0,6.0,3.0,3.0,-7.0,2.0,1650847681125954.0
10.0,-2.0,-11.0,-24.0,-5.0,0.0,16.0,4.0,1650847681125954.0
-4.0,3.0,19.0,41.0,13.0,12.0,8.0,-11.0,1650847681142910.0
-14.0,-13.0,-25.0,-44.0,-19.0,-16.0,-37.0,-20.0,1650847681142910.0
-15.0,20.0,18.0,1.0,5.0,14.0,18.0,2.0,1650847681143839.0
13.0,-20.0,7.0,23.0,5.0,-9.0,6.0,13.0,1650847681143839.0
-14.0,-2.0,-18.0,-30.0,-17.0,-13.0,-12.0,-11.0,1650847681164850.0
13.0,-12.0,7.0,32.0,18.0,6.0,2.0,17.0,1650847681164850.0
-16.0,-7.0,-4.0,1.0,-14.0,-12.0,-32.0,-36.0,1650847681166778.0
-5.0,-16.0,-10.0,-18.0,-5.0,2.0,22.0,7.0,1650847681166778.0
10.0,15.0,9.0,4.0,4.0,-4.0,-2.0,6.0,1650847681179808.0
-5.0,-15.0,-11.0,-6.0,-13.0,1.0,10.0,8.0,1650847681179808.0
-6.0,-9.0,5.0,0.0,4.0,-1.0,-2.0,0.0,1650847681193839.0
-7.0,-14.0,-9.0,-17.0,-5.0,2.0,-13.0,-18.0,1650847681193839.0
0.0,14.0,11.0,26.0,4.0,-4.0,-12.0,-24.0,1650847681202840.0
9.0,9.0,-10.0,-15.0,-6.0,0.0,37.0,30.0,1650847681202840.0
-2.0,-9.0,-1.0,-6.0,-3.0,-2.0,-23.0,-14.0,1650847681203772.0
-3.0,-6.0,3.0,6.0,5.0,2.0,-16.0,-7.0,1650847681203772.0
8.0,-2.0,6.0,0.0,0.0,-8.0,12.0,19.0,1650847681224780.0
2.0,1.0,-3.0,4.0,8.0,15.0,15.0,-4.0,1650847681224780.0
-3.0,1.0,0.0,-5.0,-8.0,0.0,-15.0,-4.0,1650847681226717.0
-16.0,8.0,2.0,-2.0,1.0,1.0,0.0,-2.0,1650847681226717.0
13.0,8.0,2.0,8.0,6.0,6.0,9.0,17.0,1650847681239741.0
-4.0,-28.0,-17.0,-6.0,-1.0,-8.0,-11.0,-7.0,1650847681239741.0
-7.0,2.0,5.0,1.0,-4.0,-5.0,-4.0,-11.0,1650847681246679.0
2.0,3.0,1.0,-3.0,4.0,5.0,-6.0,5.0,1650847681246679.0
2.0,-6.0,-1.0,2.0,2.0,2.0,15.0,-3.0,1650847681262679.0
1.0,1.0,1.0,2.0,0.0,-7.0,-1.0,3.0,1650847681262679.0
-4.0,-3.0,-2.0,-8.0,-8.0,-11.0,-20.0,-3.0,1650847681264608.0
-4.0,1.0,-3.0,-1.0,-1.0,-9.0,-13.0,-9.0,1650847681264608.0
-1.0,-23.0,-5.0,4.0,3.0,3.0,11.0,9.0,1650847681284786.0
7.0,19.0,1.0,-10.0,0.0,14.0,11.0,2.0,1650847681284786.0
-9.0,-7.0,0.0,3.0,-4.0,-6.0,-8.0,-11.0,1650847681286742.0
-4.0,-22.0,-5.0,-8.0,-3.0,-7.0,0.0,-2.0,1650847681286742.0
9.0,-3.0,8.0,9.0,3.0,4.0,11.0,9.0,1650847681299746.0
-5.0,27.0,-2.0,-2.0,1.0,-8.0,-14.0,-5.0,1650847681299746.0
-1.0,-17.0,-2.0,-3.0,0.0,10.0,2.0,-1.0,1650847681306699.0
1.0,-5.0,11.0,2.0,0.0,5.0,6.0,-1.0,1650847681306699.0
1.0,6.0,-1.0,7.0,1.0,-2.0,8.0,8.0,1650847681323652.0
-6.0,-35.0,-17.0,-5.0,-3.0,-4.0,-12.0,-6.0,1650847681323652.0
4.0,35.0,7.0,-2.0,-1.0,-5.0,-1.0,-1.0,1650847681324614.0
-1.0,6.0,32.0,10.0,2.0,4.0,-1.0,-5.0,1650847681324614.0
2.0,4.0,8.0,11.0,3.0,5.0,5.0,4.0,1650847681344562.0
0.0,1.0,-8.0,-6.0,0.0,-3.0,-6.0,-3.0,1650847681344562.0
-3.0,-5.0,-14.0,-8.0,-4.0,-1.0,5.0,2.0,1650847681346557.0
1.0,11.0,19.0,10.0,9.0,11.0,9.0,1.0,1650847681346557.0
30.0,9.0,-12.0,19.0,4.0,4.0,6.0,28.0,1650847681359607.0
-38.0,-10.0,20.0,-22.0,-15.0,-14.0,-13.0,-30.0,1650847681359607.0
-4.0,-20.0,-55.0,-26.0,-6.0,-4.0,-6.0,5.0,1650847681366616.0
9.0,-4.0,7.0,8.0,7.0,6.0,7.0,-1.0,1650847681366616.0
5.0,33.0,58.0,9.0,4.0,0.0,3.0,-1.0,1650847681382958.0
14.0,-10.0,3.0,24.0,7.0,-2.0,-8.0,7.0,1650847681382958.0
7.0,16.0,25.0,17.0,-3.0,-7.0,-2.0,-6.0,1650847681383776.0
-25.0,-21.0,-54.0,-45.0,-18.0,0.0,3.0,-2.0,1650847681383776.0
-6.0,-19.0,-28.0,-11.0,2.0,-2.0,-2.0,-3.0,1650847681404725.0
6.0,11.0,-35.0,-6.0,2.0,-3.0,-1.0,6.0,1650847681404725.0
-9.0,-2.0,50.0,11.0,4.0,-2.0,-8.0,-10.0,1650847681406718.0
25.0,-3.0,-70.0,12.0,5.0,-3.0,-1.0,20.0,1650847681406718.0
-11.0,-17.0,-7.0,-23.0,-14.0,-7.0,-4.0,-7.0,1650847681419749.0
-19.0,-6.0,19.0,7.0,-3.0,1.0,1.0,-14.0,1650847681419749.0
10.0,12.0,-18.0,6.0,3.0,2.0,0.0,4.0,1650847681426693.0
3.0,25.0,40.0,10.0,3.0,-1.0,-4.0,-2.0,1650847681426693.0
-20.0,-19.0,-13.0,-3.0,-1.0,-1.0,-1.0,-2.0,1650847681442903.0
11.0,3.0,-8.0,3.0,1.0,2.0,3.0,5.0,1650847681442903.0
0.0,-9.0,18.0,-6.0,-1.0,1.0,1.0,0.0,1650847681443908.0
1.0,11.0,-10.0,-1.0,-5.0,-5.0,-3.0,-2.0,1650847681443908.0
-3.0,-14.0,-7.0,-6.0,-4.0,0.0,1.0,-2.0,1650847681464881.0
6.0,0.0,-18.0,-9.0,3.0,5.0,2.0,1.0,1650847681464881.0
1.0,17.0,45.0,7.0,2.0,0.0,0.0,3.0,1650847681466869.0
-4.0,-18.0,-27.0,-9.0,-4.0,-3.0,-6.0,-5.0,1650847681466869.0
-3.0,19.0,27.0,24.0,7.0,1.0,2.0,-8.0,1650847681478920.0
5.0,5.0,6.0,-3.0,-2.0,-1.0,3.0,5.0,1650847681478920.0
1.0,-6.0,-3.0,-4.0,-2.0,-1.0,-1.0,0.0,1650847681487293.0
4.0,22.0,-4.0,-2.0,-2.0,-4.0,-1.0,-4.0,1650847681487293.0
1.0,-12.0,25.0,7.0,6.0,6.0,2.0,1.0,1650847681501527.0
2.0,8.0,12.0,-4.0,-2.0,-1.0,-2.0,2.0,1650847681501527.0
-4.0,-9.0,-23.0,-6.0,-4.0,-3.0,-2.0,-1.0,1650847681510436.0
-2.0,9.0,13.0,-12.0,-3.0,-1.0,-2.0,-2.0,1650847681510436.0
-1.0,2.0,-18.0,-8.0,-4.0,1.0,1.0,-4.0,1650847681525462.0
3.0,10.0,19.0,8.0,3.0,3.0,-1.0,4.0,1650847681525462.0
3.0,4.0,28.0,18.0,4.0,1.0,0.0,0.0,1650847681526394.0
-7.0,-5.0,-34.0,-12.0,-3.0,-3.0,-4.0,-5.0,1650847681526394.0
1.0,-4.0,-33.0,-8.0,-1.0,-4.0,-1.0,0.0,1650847681539157.0
-3.0,-3.0,5.0,8.0,1.0,2.0,1.0,-4.0,1650847681539157.0
1.0,6.0,2.0,3.0,3.0,3.0,1.0,2.0,1650847681547742.0
0.0,15.0,-4.0,-6.0,-2.0,-1.0,-1.0,6.0,1650847681547742.0
-13.0,-1.0,19.0,2.0,-2.0,0.0,-1.0,-15.0,1650847681562845.0
3.0,0.0,8.0,2.0,-2.0,-1.0,0.0,3.0,1650847681562845.0
-2.0,-9.0,-51.0,-13.0,-2.0,-4.0,-4.0,-3.0,1650847681563855.0
-1.0,-12.0,28.0,11.0,0.0,0.0,-1.0,-2.0,1650847681563855.0
2.0,-1.0,-5.0,-5.0,-1.0,0.0,0.0,1.0,1650847681584909.0
3.0,8.0,9.0,5.0,1.0,1.0,0.0,1.0,1650847681584909.0
-4.0,-14.0,-7.0,-5.0,-3.0,-1.0,1.0,-3.0,1650847681586838.0
-1.0,5.0,12.0,2.0,0.0,-2.0,-1.0,-1.0,1650847681586838.0
-3.0,-3.0,-11.0,-9.0,-3.0,-2.0,0.0,-1.0,1650847681598871.0
4.0,-7.0,16.0,2.0,-1.0,0.0,0.0,2.0,1650847681598871.0
1.0,2.0,-35.0,-11.0,-3.0,-1.0,-1.0,-1.0,1650847681607782.0
-6.0,-17.0,39.0,22.0,3.0,0.0,-2.0,-5.0,1650847681607782.0
3.0,7.0,0.0,-11.0,-5.0,-4.0,-1.0,0.0,1650847681622807.0
-1.0,-11.0,-15.0,-4.0,-1.0,-1.0,0.0,1.0,1650847681622807.0
-2.0,2.0,5.0,1.0,2.0,-1.0,-2.0,-2.0,1650847681623739.0
0.0,-4.0,-5.0,-2.0,-2.0,-2.0,-1.0,-3.0,1650847681623739.0
3.0,1.0,10.0,1.0,0.0,0.0,0.0,1.0,1650847681644749.0
-1.0,4.0,-4.0,-2.0,-4.0,-1.0,-1.0,-1.0,1650847681644749.0
-1.0,-2.0,-7.0,-4.0,-1.0,1.0,1.0,0.0,1650847681646677.0
1.0,1.0,15.0,8.0,1.0,-1.0,0.0,0.0,1650847681646677.0
2.0,-2.0,-4.0,-3.0,-2.0,0.0,-2.0,0.0,1650847681658711.0
-2.0,-4.0,-13.0,2.0,2.0,-1.0,-1.0,-2.0,1650847681658711.0
-2.0,-3.0,-3.0,-8.0,-4.0,-3.0,-2.0,-2.0,1650847681667622.0
2.0,8.0,7.0,-2.0,0.0,0.0,-1.0,-4.0,1650847681667622.0
1.0,3.0,-6.0,-4.0,0.0,0.0,0.0,2.0,1650847681682760.0
-3.0,-2.0,2.0,0.0,-1.0,-2.0,-1.0,-2.0,1650847681682760.0
-4.0,-4.0,-16.0,-3.0,0.0,1.0,1.0,-2.0,1650847681683718.0
-1.0,-9.0,-8.0,-3.0,0.0,1.0,1.0,-3.0,1650847681683718.0
1.0,9.0,7.0,7.0,3.0,1.0,-2.0,-1.0,1650847681704743.0
-2.0,-9.0,-7.0,-5.0,-2.0,1.0,0.0,0.0,1650847681704743.0
2.0,-3.0,3.0,-2.0,-4.0,0.0,1.0,-1.0,1650847681706728.0
-1.0,5.0,5.0,7.0,-1.0,-3.0,1.0,-1.0,1650847681706728.0
-3.0,-13.0,-13.0,-3.0,0.0,2.0,-1.0,0.0,1650847681719130.0
-3.0,2.0,-5.0,-2.0,-2.0,-2.0,-1.0,0.0,1650847681719130.0
-1.0,3.0,14.0,2.0,-4.0,-2.0,-1.0,-1.0,1650847681728238.0
0.0,-7.0,-8.0,-2.0,-2.0,-1.0,-1.0,-2.0,1650847681728238.0
1.0,4.0,5.0,1.0,0.0,1.0,1.0,-1.0,1650847681742822.0
3.0,18.0,10.0,2.0,1.0,2.0,-1.0,-1.0,1650847681742822.0
-2.0,-16.0,-19.0,0.0,0.0,1.0,-2.0,-2.0,1650847681743752.0
0.0,1.0,11.0,5.0,0.0,-3.0,0.0,-1.0,1650847681743752.0
0.0,-6.0,-3.0,-8.0,-2.0,-1.0,-2.0,1.0,1650847681764780.0
1.0,10.0,0.0,3.0,0.0,0.0,-2.0,-2.0,1650847681764780.0
-2.0,5.0,11.0,4.0,2.0,-1.0,-1.0,0.0,1650847681766709.0
2.0,-2.0,1.0,-2.0,0.0,0.0,-1.0,0.0,1650847681766709.0
0.0,-1.0,-7.0,-4.0,-2.0,-2.0,1.0,-1.0,1650847681778743.0
-1.0,-9.0,-6.0,-1.0,1.0,0.0,1.0,1.0,1650847681778743.0
1.0,6.0,12.0,5.0,-1.0,-1.0,-2.0,0.0,1650847681787652.0
-2.0,-9.0,-20.0,-8.0,0.0,-2.0,3.0,1.0,1650847681787652.0
-1.0,7.0,20.0,7.0,-1.0,0.0,1.0,-1.0,1650847681802680.0
2.0,-5.0,0.0,3.0,1.0,-1.0,-1.0,-1.0,1650847681802680.0
1.0,3.0,-7.0,-8.0,-4.0,-1.0,0.0,-1.0,1650847681804608.0
-1.0,2.0,5.0,-1.0,2.0,1.0,1.0,0.0,1650847681804608.0
-2.0,-3.0,-9.0,-2.0,-2.0,-1.0,0.0,1.0,1650847681825561.0
-1.0,-4.0,-1.0,0.0,-1.0,0.0,-1.0,0.0,1650847681825561.0
-2.0,-1.0,3.0,5.0,1.0,2.0,0.0,0.0,1650847681826549.0
-1.0,-1.0,-2.0,-3.0,-4.0,0.0,-1.0,-1.0,1650847681826549.0
-1.0,3.0,-3.0,0.0,-1.0,-2.0,0.0,1.0,1650847681838517.0
2.0,-2.0,-5.0,-2.0,0.0,-2.0,1.0,0.0,1650847681838517.0
-1.0,-8.0,11.0,2.0,0.0,-2.0,-2.0,-1.0,1650847681847496.0
1.0,4.0,0.0,0.0,0.0,-1.0,-1.0,-2.0,1650847681847496.0
-1.0,-4.0,0.0,1.0,0.0,-2.0,-1.0,-2.0,1650847681862519.0
-2.0,-1.0,-4.0,-5.0,1.0,-1.0,1.0,0.0,1650847681862519.0
2.0,12.0,16.0,4.0,2.0,1.0,-1.0,3.0,1650847681864448.0
-4.0,-16.0,-26.0,-5.0,-2.0,0.0,-2.0,-1.0,1650847681864448.0
-1.0,1.0,2.0,-2.0,-3.0,-1.0,-1.0,-1.0,1650847681884845.0
1.0,3.0,-6.0,-3.0,-5.0,-3.0,-1.0,0.0,1650847681884845.0
1.0,1.0,7.0,0.0,0.0,-2.0,-2.0,1.0,1650847681886773.0
2.0,5.0,6.0,1.0,2.0,1.0,0.0,1.0,1650847681886773.0
0.0,1.0,-8.0,-1.0,1.0,1.0,0.0,1.0,1650847681907783.0
-3.0,-9.0,-6.0,-4.0,-2.0,0.0,-1.0,0.0,1650847681907783.0
-1.0,1.0,-8.0,-4.0,-3.0,-2.0,-2.0,-1.0,1650847681908714.0
0.0,3.0,17.0,2.0,-2.0,1.0,1.0,0.0,1650847681908714.0
0.0,0.0,-1.0,0.0,0.0,-1.0,0.0,-1.0,1650847681922678.0
1.0,5.0,11.0,4.0,2.0,2.0,-1.0,-1.0,1650847681922678.0
-5.0,-14.0,-13.0,-6.0,-2.0,-2.0,0.0,-2.0,1650847681923701.0
-2.0,4.0,-3.0,0.0,-1.0,-1.0,-2.0,1.0,1650847681923701.0
0.0,0.0,-2.0,-3.0,-1.0,0.0,-2.0,-1.0,1650847681944618.0
-1.0,-4.0,-3.0,0.0,-1.0,-1.0,0.0,-1.0,1650847681944618.0
-2.0,4.0,2.0,0.0,-1.0,0.0,-1.0,-2.0,1650847681946613.0
1.0,9.0,5.0,0.0,-3.0,0.0,-1.0,1.0,1650847681946613.0
-2.0,-7.0,2.0,4.0,1.0,-1.0,0.0,-2.0,1650847681968017.0
0.0,-1.0,-4.0,0.0,1.0,-1.0,0.0,1.0,1650847681968017.0
1.0,-2.0,-3.0,1.0,1.0,-2.0,1.0,1.0,1650847681969017.0
1.0,-4.0,-1.0,-3.0,-1.0,-2.0,1.0,-1.0,1650847681969017.0
-1.0,-3.0,-4.0,-1.0,-2.0,-2.0,-1.0,-2.0,1650847681982842.0
2.0,10.0,3.0,3.0,1.0,1.0,0.0,-1.0,1650847681982842.0
-2.0,-8.0,-3.0,-3.0,0.0,1.0,0.0,0.0,1650847681983773.0
-2.0,-4.0,2.0,1.0,0.0,-2.0,-1.0,-1.0,1650847681983773.0
0.0,-9.0,-11.0,-3.0,-1.0,-1.0,-2.0,0.0,1650847682004835.0
1.0,14.0,4.0,2.0,-1.0,-1.0,0.0,0.0,1650847682004835.0
-1.0,-1.0,-7.0,0.0,-2.0,-2.0,-1.0,-1.0,1650847682006793.0
-3.0,-2.0,16.0,4.0,-1.0,-3.0,-3.0,-2.0,1650847682006793.0
1.0,3.0,-7.0,-7.0,-2.0,0.0,2.0,0.0,1650847682027789.0
-1.0,-6.0,4.0,1.0,1.0,-1.0,0.0,-1.0,1650847682027789.0
3.0,7.0,13.0,3.0,1.0,0.0,2.0,-2.0,1650847682028789.0
-3.0,-6.0,-11.0,-1.0,3.0,2.0,1.0,0.0,1650847682028789.0
-2.0,-2.0,0.0,-3.0,-3.0,-3.0,-3.0,0.0,1650847682041820.0
-2.0,-3.0,-5.0,-5.0,-3.0,0.0,-2.0,-1.0,1650847682041820.0
0.0,1.0,-3.0,1.0,1.0,-1.0,-1.0,0.0,1650847682048801.0
0.0,1.0,2.0,-2.0,-1.0,-1.0,1.0,0.0,1650847682048801.0
0.0,3.0,3.0,5.0,2.0,1.0,-3.0,1.0,1650847682064907.0
-1.0,-4.0,0.0,-3.0,-2.0,-1.0,1.0,0.0,1650847682064907.0
0.0,-2.0,-4.0,-2.0,-2.0,0.0,1.0,-1.0,1650847682066863.0
2.0,-1.0,-2.0,-1.0,1.0,1.0,-1.0,1.0,1650847682066863.0
-1.0,1.0,-3.0,1.0,0.0,1.0,-2.0,-1.0,1650847682087788.0
-1.0,-4.0,-4.0,-2.0,-5.0,-3.0,-2.0,-3.0,1650847682087788.0
-3.0,2.0,-2.0,-1.0,0.0,0.0,0.0,-1.0,1650847682088788.0
-1.0,1.0,12.0,4.0,0.0,0.0,-1.0,1.0,1650847682088788.0
1.0,4.0,-6.0,2.0,1.0,1.0,1.0,-1.0,1650847682101864.0
-1.0,-8.0,-4.0,-2.0,-2.0,-1.0,-3.0,0.0,1650847682101864.0
-1.0,0.0,-2.0,-3.0,-2.0,1.0,0.0,0.0,1650847682109155.0
-2.0,-3.0,-9.0,-1.0,1.0,1.0,-1.0,-1.0,1650847682109155.0
-2.0,-6.0,4.0,-3.0,0.0,-3.0,0.0,-2.0,1650847682124805.0
-1.0,-4.0,3.0,1.0,-1.0,-1.0,-1.0,-1.0,1650847682124805.0
1.0,2.0,6.0,3.0,1.0,1.0,-1.0,1.0,1650847682126733.0
-3.0,0.0,-14.0,-6.0,-1.0,1.0,1.0,-1.0,1650847682126733.0
-3.0,-3.0,3.0,3.0,0.0,0.0,0.0,0.0,1650847682147870.0
1.0,3.0,-3.0,-2.0,-3.0,0.0,1.0,-1.0,1650847682147870.0
0.0,4.0,2.0,2.0,1.0,0.0,1.0,-2.0,1650847682148809.0
0.0,-5.0,-4.0,-4.0,-1.0,-2.0,0.0,-1.0,1650847682148809.0
0.0,0.0,1.0,-1.0,2.0,1.0,-2.0,-2.0,1650847682161836.0
-3.0,-7.0,1.0,-2.0,1.0,-1.0,-1.0,0.0,1650847682161836.0
-1.0,5.0,1.0,2.0,-1.0,-1.0,-3.0,-1.0,1650847682168914.0
1.0,5.0,0.0,-2.0,-3.0,-3.0,-1.0,0.0,1650847682168914.0
-2.0,-4.0,-6.0,-4.0,-3.0,-3.0,1.0,-1.0,1650847682184934.0
0.0,1.0,6.0,5.0,3.0,2.0,1.0,1.0,1650847682184934.0
0.0,-1.0,-3.0,-3.0,-1.0,0.0,-1.0,1.0,1650847682186892.0
-2.0,-4.0,-1.0,1.0,0.0,0.0,0.0,-1.0,1650847682186892.0
1.0,0.0,-1.0,-2.0,0.0,3.0,1.0,2.0,1650847682207983.0
-3.0,0.0,2.0,1.0,1.0,2.0,-2.0,-1.0,1650847682207983.0
-1.0,0.0,-5.0,-4.0,-1.0,-1.0,1.0,0.0,1650847682208917.0
-1.0,1.0,-3.0,0.0,-2.0,-4.0,-1.0,-2.0,1650847682208917.0
-1.0,-1.0,7.0,1.0,0.0,0.0,-2.0,0.0,1650847682221994.0
-1.0,0.0,-3.0,-1.0,1.0,-1.0,1.0,1.0,1650847682221994.0
-1.0,-2.0,-2.0,-1.0,-1.0,-1.0,-2.0,-1.0,1650847682228981.0
-1.0,0.0,1.0,-3.0,0.0,2.0,0.0,-1.0,1650847682228981.0
1.0,-1.0,-3.0,1.0,0.0,0.0,0.0,-1.0,1650847682244844.0
-3.0,1.0,-3.0,0.0,1.0,-1.0,-1.0,-2.0,1650847682244844.0
-1.0,-2.0,2.0,-2.0,-3.0,-1.0,0.0,-1.0,1650847682246799.0
1.0,-4.0,-1.0,0.0,0.0,0.0,1.0,2.0,1650847682246799.0
1.0,5.0,5.0,4.0,0.0,-2.0,0.0,-2.0,1650847682268004.0
-1.0,-4.0,-12.0,-7.0,-1.0,1.0,1.0,-2.0,1650847682268004.0
-1.0,-2.0,-2.0,-2.0,-2.0,-5.0,-2.0,-2.0,1650847682268926.0
0.0,0.0,2.0,4.0,5.0,1.0,-1.0,0.0,1650847682268926.0
-1.0,1.0,7.0,4.0,-3.0,-1.0,-2.0,0.0,1650847682282005.0
1.0,-3.0,-2.0,0.0,2.0,0.0,-1.0,-2.0,1650847682282005.0
3.0,-1.0,0.0,2.0,3.0,1.0,-1.0,0.0,1650847682288810.0
-5.0,-4.0,-7.0,-8.0,-7.0,-3.0,-3.0,-4.0,1650847682288810.0
-1.0,-2.0,0.0,-3.0,-2.0,-2.0,0.0,0.0,1650847682305362.0
0.0,0.0,-1.0,2.0,2.0,1.0,0.0,2.0,1650847682305362.0
-2.0,-4.0,0.0,-1.0,1.0,0.0,-1.0,0.0,1650847682306291.0
1.0,3.0,3.0,-2.0,-2.0,-1.0,0.0,2.0,1650847682306291.0
-2.0,1.0,-3.0,-2.0,1.0,0.0,-1.0,-1.0,1650847682327447.0
-1.0,2.0,3.0,3.0,2.0,1.0,-1.0,-1.0,1650847682327447.0
4.0,0.0,-5.0,-8.0,-1.0,-3.0,0.0,1.0,1650847682329471.0
6.0,4.0,2.0,3.0,2.0,2.0,3.0,3.0,1650847682329471.0
-5.0,-2.0,-4.0,-2.0,0.0,-3.0,-1.0,-2.0,1650847682341531.0
0.0,-1.0,-4.0,-3.0,-4.0,-3.0,-1.0,0.0,1650847682341531.0
-2.0,-5.0,5.0,6.0,1.0,0.0,-1.0,-4.0,1650847682350632.0
7.0,5.0,4.0,13.0,1.0,-2.0,-1.0,-3.0,1650847682350632.0
-1.0,-5.0,-4.0,-5.0,4.0,8.0,12.0,10.0,1650847682365612.0
0.0,0.0,0.0,-2.0,-4.0,-2.0,-6.0,-2.0,1650847682365612.0
0.0,-1.0,2.0,2.0,0.0,-1.0,-7.0,-2.0,1650847682366587.0
-9.0,-7.0,-6.0,-1.0,-1.0,-1.0,-2.0,-3.0,1650847682366587.0
0.0,-1.0,-2.0,-2.0,-3.0,-2.0,-2.0,-1.0,1650847682395513.0
-3.0,3.0,1.0,0.0,2.0,0.0,3.0,2.0,1650847682395513.0
-4.0,-3.0,-1.0,-1.0,-2.0,-1.0,2.0,1.0,1650847682396507.0
2.0,3.0,5.0,1.0,0.0,1.0,-1.0,-1.0,1650847682396507.0
0.0,3.0,1.0,-2.0,-1.0,-1.0,-1.0,-1.0,1650847682401523.0
1.0,-6.0,-1.0,-4.0,-2.0,0.0,4.0,2.0,1650847682401523.0
2.0,4.0,2.0,3.0,-3.0,-3.0,-4.0,2.0,1650847682410483.0
3.0,4.0,1.0,-2.0,-1.0,1.0,-8.0,-4.0,1650847682410483.0
-1.0,4.0,-2.0,0.0,1.0,0.0,4.0,2.0,1650847682424816.0
11.0,-6.0,2.0,1.0,-3.0,-1.0,10.0,3.0,1650847682424816.0
-31.0,15.0,1.0,-1.0,4.0,1.0,-8.0,-4.0,1650847682426745.0
-1.0,-15.0,-8.0,-6.0,-3.0,0.0,3.0,1.0,1650847682426745.0
4.0,5.0,8.0,4.0,-1.0,-1.0,-8.0,-4.0,1650847682447755.0
-3.0,2.0,1.0,-2.0,0.0,-3.0,-3.0,-5.0,1650847682447755.0
10.0,-4.0,-7.0,-3.0,-2.0,0.0,6.0,3.0,1650847682448686.0
-4.0,-1.0,-1.0,-3.0,-2.0,2.0,0.0,1.0,1650847682448686.0
-8.0,-7.0,0.0,5.0,2.0,4.0,-1.0,-2.0,1650847682461654.0
1.0,12.0,-1.0,-5.0,-6.0,-6.0,-3.0,0.0,1650847682461654.0
3.0,-6.0,-1.0,-3.0,-4.0,-3.0,0.0,-1.0,1650847682470641.0
-2.0,1.0,3.0,1.0,1.0,2.0,1.0,-1.0,1650847682470641.0
2.0,-9.0,-3.0,1.0,1.0,-3.0,-2.0,-1.0,1650847682484843.0
-2.0,4.0,1.0,2.0,0.0,-2.0,-5.0,-2.0,1650847682484843.0
4.0,1.0,-4.0,-7.0,-2.0,-2.0,-2.0,0.0,1650847682486798.0
1.0,0.0,-1.0,1.0,5.0,10.0,20.0,8.0,1650847682486798.0
3.0,6.0,2.0,-2.0,-2.0,-3.0,-11.0,-1.0,1650847682515034.0
-2.0,-2.0,-4.0,-4.0,-3.0,-5.0,9.0,3.0,1650847682515034.0
-4.0,-5.0,2.0,1.0,-2.0,0.0,-15.0,-10.0,1650847682516963.0
0.0,2.0,-1.0,2.0,2.0,2.0,1.0,1.0,1650847682516963.0
-1.0,1.0,-2.0,-6.0,-2.0,3.0,10.0,2.0,1650847682520974.0
5.0,1.0,-1.0,-2.0,3.0,4.0,-4.0,4.0,1650847682520974.0
6.0,1.0,-2.0,0.0,0.0,-2.0,1.0,-1.0,1650847682529940.0
-1.0,3.0,0.0,-1.0,-6.0,-4.0,-7.0,-2.0,1650847682529940.0
-4.0,-10.0,-4.0,1.0,-1.0,-5.0,-4.0,-2.0,1650847682544807.0
-4.0,4.0,3.0,-1.0,0.0,1.0,-1.0,-1.0,1650847682544807.0
2.0,-3.0,-9.0,-2.0,-1.0,2.0,8.0,3.0,1650847682546735.0
-1.0,-3.0,12.0,1.0,1.0,-5.0,-7.0,-3.0,1650847682546735.0
-1.0,6.0,-13.0,-4.0,-3.0,-2.0,-3.0,-3.0,1650847682568068.0
8.0,0.0,8.0,5.0,3.0,3.0,3.0,9.0,1650847682568068.0
-20.0,-6.0,-2.0,2.0,4.0,4.0,1.0,-13.0,1650847682569071.0
-4.0,-10.0,2.0,2.0,-2.0,-5.0,-7.0,-5.0,1650847682569071.0
10.0,8.0,2.0,-2.0,-4.0,1.0,10.0,1.0,1650847682581101.0
2.0,5.0,-3.0,-5.0,-3.0,1.0,-7.0,-2.0,1650847682581101.0
-7.0,-3.0,2.0,-2.0,-4.0,-9.0,-2.0,2.0,1650847682589752.0
13.0,-2.0,-4.0,-1.0,-2.0,1.0,7.0,6.0,1650847682589752.0
-9.0,-9.0,-1.0,-2.0,2.0,3.0,-3.0,-13.0,1650847682604804.0
1.0,3.0,-2.0,3.0,1.0,0.0,-5.0,-8.0,1650847682604804.0
11.0,2.0,8.0,0.0,3.0,8.0,9.0,6.0,1650847682606733.0
2.0,8.0,-14.0,-1.0,0.0,-9.0,-10.0,0.0,1650847682606733.0
-20.0,-16.0,5.0,-3.0,-7.0,-7.0,9.0,21.0,1650847682627786.0
1.0,-7.0,1.0,2.0,6.0,15.0,5.0,-7.0,1650847682627786.0
14.0,2.0,-12.0,3.0,1.0,-5.0,-1.0,-1.0,1650847682628793.0
3.0,-3.0,25.0,3.0,1.0,3.0,1.0,-1.0,1650847682628793.0
6.0,19.0,2.0,-1.0,-3.0,-11.0,-9.0,3.0,1650847682641749.0
-19.0,-8.0,-20.0,-8.0,-1.0,14.0,14.0,-1.0,1650847682641749.0
-7.0,-9.0,48.0,6.0,-2.0,5.0,4.0,1.0,1650847682649795.0
5.0,6.0,-33.0,-1.0,3.0,0.0,5.0,4.0,1650847682649795.0
5.0,10.0,6.0,-1.0,-4.0,-5.0,-11.0,-1.0,1650847682664688.0
-3.0,-2.0,52.0,19.0,6.0,-6.0,-8.0,-4.0,1650847682664688.0
8.0,16.0,-43.0,-12.0,-1.0,-1.0,1.0,2.0,1650847682666683.0
-5.0,-34.0,-2.0,-3.0,-4.0,3.0,0.0,-6.0,1650847682666683.0
5.0,10.0,30.0,1.0,5.0,7.0,3.0,-1.0,1650847682688041.0
-14.0,-15.0,-30.0,9.0,2.0,-7.0,-6.0,1.0,1650847682688041.0
-3.0,-13.0,-5.0,-4.0,-7.0,-5.0,-2.0,3.0,1650847682689047.0
-4.0,35.0,50.0,7.0,3.0,-3.0,-4.0,-24.0,1650847682689047.0
20.0,-14.0,-62.0,-13.0,-1.0,3.0,1.0,21.0,1650847682701161.0
5.0,11.0,38.0,5.0,-3.0,2.0,6.0,6.0,1650847682701161.0
-8.0,-23.0,-16.0,1.0,1.0,3.0,4.0,-6.0,1650847682710070.0
8.0,8.0,-7.0,-12.0,-13.0,-13.0,-11.0,1.0,1650847682710070.0
-4.0,5.0,-8.0,3.0,5.0,3.0,0.0,-10.0,1650847682724807.0
2.0,3.0,-16.0,-8.0,-5.0,-4.0,-7.0,-10.0,1650847682724807.0
-9.0,-12.0,-2.0,2.0,-1.0,-3.0,1.0,2.0,1650847682726735.0
-6.0,0.0,-15.0,-2.0,4.0,13.0,12.0,6.0,1650847682726735.0
-4.0,-1.0,7.0,-3.0,-12.0,-24.0,-23.0,-16.0,1650847682747873.0
-13.0,-14.0,-8.0,-6.0,-3.0,-3.0,-1.0,5.0,1650847682747873.0
3.0,14.0,25.0,5.0,2.0,4.0,0.0,1.0,1650847682748805.0
-2.0,-4.0,-25.0,4.0,8.0,4.0,5.0,3.0,1650847682748805.0
-8.0,-7.0,-3.0,-5.0,2.0,2.0,4.0,-5.0,1650847682760838.0
7.0,8.0,2.0,-9.0,-9.0,0.0,-4.0,1.0,1650847682760838.0
7.0,2.0,5.0,0.0,-5.0,-11.0,-12.0,-1.0,1650847682769936.0
-6.0,21.0,2.0,16.0,9.0,3.0,-7.0,0.0,1650847682769936.0
-3.0,-17.0,6.0,0.0,-3.0,3.0,10.0,-1.0,1650847682785904.0
2.0,-19.0,-35.0,-12.0,-3.0,-4.0,1.0,-2.0,1650847682785904.0
0.0,8.0,-35.0,5.0,3.0,2.0,0.0,-1.0,1650847682791822.0
-1.0,-2.0,32.0,-12.0,-18.0,-5.0,1.0,4.0,1650847682791822.0
2.0,-23.0,11.0,3.0,5.0,5.0,-3.0,-3.0,1650847682807957.0
11.0,20.0,-9.0,4.0,6.0,0.0,3.0,5.0,1650847682807957.0
-10.0,18.0,12.0,-2.0,-1.0,0.0,-1.0,-4.0,1650847682808913.0
-3.0,-43.0,-6.0,-13.0,-4.0,-4.0,3.0,5.0,1650847682808913.0
0.0,14.0,-27.0,-8.0,-4.0,4.0,-3.0,-5.0,1650847682830076.0
-5.0,-10.0,-1.0,3.0,0.0,-2.0,-3.0,-1.0,1650847682830076.0
0.0,-6.0,3.0,-3.0,4.0,-1.0,-1.0,-2.0,1650847682832027.0
3.0,4.0,-7.0,15.0,2.0,1.0,3.0,5.0,1650847682832027.0
3.0,17.0,21.0,-7.0,3.0,11.0,12.0,5.0,1650847682844836.0
2.0,-7.0,-21.0,-1.0,1.0,-2.0,-8.0,-4.0,1650847682844836.0
3.0,-3.0,5.0,-4.0,-11.0,-9.0,-7.0,-1.0,1650847682851603.0
-7.0,-11.0,-16.0,4.0,5.0,0.0,-5.0,-4.0,1650847682851603.0
-8.0,-4.0,-25.0,-4.0,-6.0,-5.0,1.0,2.0,1650847682867178.0
-3.0,3.0,2.0,2.0,-2.0,1.0,2.0,-3.0,1650847682867178.0
4.0,-1.0,37.0,5.0,-1.0,3.0,0.0,1.0,1650847682869162.0
-5.0,1.0,-36.0,-16.0,-9.0,-11.0,-7.0,-9.0,1650847682869162.0
-1.0,13.0,26.0,-3.0,-1.0,1.0,-6.0,-1.0,1650847682889984.0
7.0,-9.0,8.0,15.0,6.0,5.0,2.0,-1.0,1650847682889984.0
-1.0,4.0,-28.0,-5.0,0.0,-4.0,1.0,2.0,1650847682891962.0
7.0,3.0,17.0,3.0,0.0,2.0,2.0,15.0,1650847682891962.0
-8.0,0.0,21.0,8.0,2.0,3.0,-5.0,-22.0,1650847682904963.0
5.0,14.0,-29.0,-17.0,-7.0,-8.0,-12.0,4.0,1650847682904963.0
6.0,-10.0,-1.0,0.0,3.0,9.0,15.0,11.0,1650847682906896.0
-3.0,3.0,4.0,-4.0,-2.0,-6.0,-4.0,-3.0,1650847682906896.0
-8.0,7.0,-26.0,-3.0,-1.0,-1.0,2.0,-5.0,1650847682928052.0
-9.0,-2.0,34.0,-5.0,-4.0,-5.0,0.0,-8.0,1650847682928052.0
3.0,-10.0,-66.0,-3.0,3.0,0.0,1.0,-2.0,1650847682929981.0
-1.0,10.0,28.0,4.0,2.0,9.0,-3.0,0.0,1650847682929981.0
13.0,-7.0,-1.0,0.0,1.0,-3.0,-2.0,12.0,1650847682950987.0
-10.0,-6.0,24.0,1.0,-4.0,-15.0,-3.0,-3.0,1650847682950987.0
7.0,1.0,-30.0,-2.0,5.0,17.0,7.0,-2.0,1650847682951934.0
5.0,6.0,26.0,0.0,-2.0,-6.0,-4.0,-7.0,1650847682951934.0
-1.0,-3.0,22.0,25.0,7.0,3.0,-2.0,0.0,1650847682964953.0
-1.0,7.0,-13.0,-8.0,-5.0,-1.0,3.0,2.0,1650847682964953.0
5.0,-6.0,37.0,-4.0,-4.0,-5.0,-4.0,6.0,1650847682966882.0
-18.0,1.0,-24.0,4.0,6.0,6.0,-2.0,-14.0,1650847682966882.0
0.0,-9.0,27.0,15.0,2.0,2.0,3.0,3.0,1650847682995044.0
-1.0,2.0,-7.0,-9.0,1.0,-2.0,4.0,2.0,1650847682995044.0
2.0,-12.0,-3.0,13.0,1.0,1.0,-5.0,4.0,1650847682996974.0
-5.0,8.0,23.0,2.0,1.0,-2.0,0.0,-3.0,1650847682996974.0
3.0,-1.0,-17.0,-7.0,-4.0,-1.0,1.0,-1.0,1650847683010361.0
3.0,8.0,4.0,3.0,1.0,-3.0,-10.0,-4.0,1650847683010361.0
-2.0,1.0,-15.0,-14.0,-8.0,-2.0,3.0,-2.0,1650847683011300.0
0.0,-5.0,15.0,6.0,1.0,0.0,5.0,0.0,1650847683011300.0
-4.0,-18.0,-33.0,-8.0,0.0,1.0,-2.0,-1.0,1650847683024284.0
0.0,1.0,-16.0,8.0,5.0,-2.0,-8.0,-2.0,1650847683024284.0
-3.0,10.0,43.0,11.0,7.0,6.0,-1.0,-5.0,1650847683031238.0
14.0,4.0,-17.0,-13.0,-7.0,-9.0,3.0,10.0,1650847683031238.0
-8.0,0.0,-4.0,2.0,5.0,11.0,22.0,3.0,1650847683047323.0
-16.0,-5.0,13.0,-4.0,-8.0,-6.0,-18.0,-6.0,1650847683047323.0
-2.0,2.0,3.0,-4.0,1.0,3.0,-9.0,-2.0,1650847683049340.0
7.0,0.0,-18.0,2.0,1.0,1.0,-1.0,1.0,1650847683049340.0
-7.0,-8.0,-2.0,1.0,-4.0,-3.0,1.0,3.0,1650847683070416.0
10.0,5.0,11.0,0.0,-1.0,4.0,10.0,-1.0,1650847683070416.0
-3.0,-4.0,9.0,-4.0,-1.0,-8.0,1.0,3.0,1650847683071344.0
-14.0,-7.0,-15.0,-7.0,-1.0,2.0,-5.0,-3.0,1650847683071344.0
14.0,10.0,26.0,4.0,-1.0,-4.0,-2.0,-2.0,1650847683084489.0
3.0,24.0,-4.0,-7.0,-5.0,0.0,3.0,8.0,1650847683084489.0
-7.0,-22.0,-1.0,18.0,10.0,-2.0,-9.0,-15.0,1650847683091408.0
3.0,6.0,37.0,-4.0,-3.0,-1.0,6.0,2.0,1650847683091408.0
-3.0,-9.0,-77.0,-8.0,-1.0,-2.0,-2.0,-1.0,1650847683107951.0
1.0,1.0,37.0,7.0,4.0,1.0,1.0,1.0,1650847683107951.0
0.0,8.0,7.0,0.0,-1.0,5.0,4.0,1.0,1650847683108961.0
-4.0,-8.0,-15.0,-15.0,-4.0,-5.0,-4.0,-2.0,1650847683108961.0
0.0,5.0,17.0,0.0,-1.0,-1.0,-10.0,3.0,1650847683129893.0
1.0,-9.0,-7.0,8.0,6.0,7.0,11.0,4.0,1650847683129893.0
-4.0,3.0,-28.0,-10.0,-7.0,-15.0,-17.0,-8.0,1650847683131888.0
-1.0,-8.0,13.0,10.0,3.0,11.0,10.0,3.0,1650847683131888.0
-14.0,5.0,-3.0,-2.0,7.0,5.0,-2.0,-7.0,1650847683144852.0
-2.0,-19.0,-38.0,-10.0,-10.0,-18.0,-18.0,-13.0,1650847683144852.0
1.0,9.0,-2.0,-10.0,-5.0,-3.0,-6.0,-3.0,1650847683150922.0
-4.0,6.0,23.0,8.0,1.0,1.0,-1.0,-7.0,1650847683150922.0
8.0,6.0,19.0,2.0,-3.0,-1.0,-6.0,-3.0,1650847683167871.0
4.0,4.0,-7.0,0.0,7.0,12.0,10.0,5.0,1650847683167871.0
-11.0,-19.0,34.0,-2.0,-9.0,-12.0,5.0,3.0,1650847683168801.0
2.0,-12.0,-71.0,-15.0,-4.0,-3.0,-9.0,-6.0,1650847683168801.0
6.0,13.0,34.0,9.0,5.0,1.0,3.0,5.0,1650847683189811.0
1.0,6.0,9.0,1.0,-3.0,4.0,1.0,-1.0,1650847683189811.0
8.0,0.0,0.0,0.0,1.0,3.0,10.0,11.0,1650847683191769.0
2.0,3.0,8.0,4.0,3.0,1.0,5.0,1.0,1650847683191769.0
-3.0,-13.0,8.0,-5.0,-5.0,-9.0,-6.0,-4.0,1650847683204770.0
2.0,3.0,-41.0,-13.0,-6.0,1.0,6.0,2.0,1650847683204770.0
1.0,14.0,-5.0,-9.0,5.0,7.0,0.0,-1.0,1650847683211713.0
-1.0,-4.0,38.0,26.0,3.0,-2.0,0.0,8.0,1650847683211713.0
-5.0,2.0,-21.0,-21.0,-8.0,-8.0,-4.0,-5.0,1650847683227866.0
-12.0,-13.0,15.0,16.0,2.0,-6.0,-3.0,-11.0,1650847683227866.0
-2.0,-2.0,-22.0,-8.0,2.0,6.0,1.0,-3.0,1650847683228826.0
0.0,8.0,9.0,-6.0,-4.0,-5.0,-5.0,0.0,1650847683228826.0
3.0,-6.0,-25.0,-4.0,-3.0,-1.0,-7.0,4.0,1650847683249916.0
4.0,-8.0,10.0,0.0,1.0,3.0,5.0,-2.0,1650847683249916.0
-15.0,12.0,-3.0,2.0,-2.0,-1.0,6.0,7.0,1650847683251874.0
12.0,12.0,-14.0,-14.0,-5.0,-7.0,-5.0,-4.0,1650847683251874.0
2.0,-18.0,17.0,16.0,4.0,3.0,-1.0,-14.0,1650847683264817.0
0.0,-2.0,-3.0,-7.0,-3.0,-2.0,-2.0,21.0,1650847683264817.0
7.0,12.0,13.0,5.0,2.0,1.0,8.0,1.0,1650847683270867.0
-2.0,3.0,-1.0,-4.0,-2.0,-2.0,-5.0,-1.0,1650847683270867.0
0.0,7.0,19.0,5.0,1.0,1.0,5.0,-1.0,1650847683287820.0
-3.0,-3.0,0.0,2.0,-1.0,0.0,1.0,-9.0,1650847683287820.0
4.0,3.0,54.0,11.0,-1.0,6.0,4.0,3.0,1650847683288763.0
-5.0,-25.0,-82.0,-19.0,-5.0,-7.0,-10.0,4.0,1650847683288763.0
1.0,0.0,5.0,4.0,3.0,2.0,12.0,2.0,1650847683309756.0
-7.0,-1.0,3.0,-1.0,-2.0,-4.0,-3.0,-6.0,1650847683309756.0
3.0,2.0,-5.0,-4.0,-1.0,-1.0,-8.0,-3.0,1650847683311689.0
3.0,6.0,16.0,3.0,0.0,3.0,4.0,5.0,1650847683311689.0
-12.0,-3.0,-14.0,-5.0,-7.0,-9.0,-10.0,-9.0,1650847683323774.0
1.0,-7.0,-10.0,11.0,4.0,-1.0,4.0,4.0,1650847683323774.0
-2.0,-3.0,-8.0,2.0,4.0,12.0,6.0,-3.0,1650847683332873.0
-3.0,19.0,25.0,3.0,-3.0,-7.0,7.0,3.0,1650847683332873.0
2.0,-15.0,-31.0,-11.0,-5.0,-5.0,-9.0,5.0,1650847683347899.0
0.0,3.0,11.0,-2.0,-1.0,-6.0,-4.0,-3.0,1650847683347899.0
5.0,0.0,-6.0,3.0,3.0,15.0,6.0,-3.0,1650847683348842.0
-1.0,3.0,7.0,1.0,2.0,5.0,3.0,-3.0,1650847683348842.0
5.0,23.0,42.0,7.0,4.0,2.0,-1.0,9.0,1650847683370136.0
-4.0,-15.0,-26.0,-16.0,-6.0,-1.0,7.0,0.0,1650847683370136.0
-1.0,1.0,22.0,9.0,1.0,-9.0,-6.0,-4.0,1650847683372087.0
1.0,-17.0,-56.0,-8.0,-5.0,-4.0,-3.0,-7.0,1650847683372087.0
-5.0,-2.0,-2.0,-7.0,-5.0,1.0,5.0,6.0,1650847683384032.0
3.0,-1.0,5.0,2.0,6.0,8.0,1.0,0.0,1650847683384032.0
-1.0,2.0,5.0,-2.0,-4.0,-8.0,-3.0,0.0,1650847683393007.0
-5.0,3.0,6.0,-3.0,0.0,-2.0,0.0,-7.0,1650847683393007.0
3.0,-1.0,-23.0,3.0,2.0,0.0,-9.0,-1.0,1650847683407969.0
-2.0,-8.0,4.0,0.0,-5.0,-5.0,-5.0,-3.0,1650847683407969.0
0.0,-2.0,-10.0,-5.0,-5.0,-4.0,4.0,2.0,1650847683408965.0
-1.0,-2.0,22.0,4.0,2.0,9.0,5.0,1.0,1650847683408965.0
5.0,11.0,-38.0,-3.0,-3.0,-4.0,-5.0,-1.0,1650847683429980.0
-4.0,-8.0,1.0,0.0,1.0,1.0,3.0,3.0,1650847683429980.0
0.0,-5.0,2.0,-2.0,-1.0,-4.0,-3.0,-3.0,1650847683435993.0
-2.0,-14.0,0.0,3.0,4.0,3.0,-1.0,-1.0,1650847683435993.0
4.0,9.0,19.0,1.0,1.0,-1.0,6.0,3.0,1650847683443942.0
0.0,6.0,0.0,-4.0,0.0,5.0,1.0,-1.0,1650847683443942.0
-2.0,-6.0,-18.0,-4.0,-5.0,-14.0,-12.0,-1.0,1650847683452281.0
-2.0,5.0,10.0,4.0,1.0,1.0,3.0,0.0,1650847683452281.0
-3.0,-12.0,1.0,0.0,1.0,3.0,3.0,-2.0,1650847683467756.0
7.0,23.0,10.0,-2.0,-2.0,2.0,0.0,1.0,1650847683467756.0
-4.0,-12.0,-7.0,-1.0,2.0,4.0,1.0,-1.0,1650847683468712.0
1.0,-2.0,1.0,0.0,0.0,-1.0,-2.0,1.0,1650847683468712.0
1.0,-11.0,6.0,5.0,-2.0,-3.0,-1.0,-2.0,1650847683490365.0
-1.0,5.0,-6.0,-6.0,-3.0,5.0,2.0,1.0,1650847683490365.0
-3.0,-10.0,-2.0,2.0,2.0,-1.0,-1.0,-1.0,1650847683491297.0
1.0,15.0,0.0,1.0,0.0,1.0,1.0,0.0,1650847683491297.0
0.0,-7.0,-1.0,-4.0,-4.0,-4.0,1.0,0.0,1650847683504262.0
0.0,-4.0,8.0,0.0,0.0,-2.0,-3.0,-1.0,1650847683504262.0
-1.0,-1.0,-5.0,-2.0,-1.0,-1.0,1.0,1.0,1650847683512306.0
0.0,16.0,4.0,0.0,-1.0,-4.0,-5.0,0.0,1650847683512306.0
-1.0,-12.0,0.0,4.0,2.0,2.0,3.0,0.0,1650847683527430.0
-2.0,-5.0,6.0,2.0,2.0,2.0,0.0,-1.0,1650847683527430.0
1.0,15.0,-5.0,-1.0,-2.0,-3.0,-1.0,-1.0,1650847683529359.0
-8.0,-50.0,-15.0,-10.0,-4.0,-3.0,-2.0,-3.0,1650847683529359.0
1.0,12.0,3.0,-3.0,0.0,-1.0,0.0,1.0,1650847683550089.0
3.0,-6.0,12.0,6.0,-1.0,0.0,0.0,0.0,1650847683550089.0
2.0,15.0,-11.0,-4.0,3.0,-2.0,-1.0,-1.0,1650847683556085.0
0.0,-19.0,-2.0,7.0,2.0,4.0,1.0,2.0,1650847683556085.0
-6.0,-4.0,12.0,-5.0,-6.0,-2.0,0.0,-3.0,1650847683563996.0
-3.0,-28.0,-16.0,-14.0,-7.0,-5.0,-3.0,-1.0,1650847683563996.0
8.0,47.0,17.0,13.0,-1.0,-1.0,0.0,1.0,1650847683572972.0
-7.0,-30.0,-13.0,-21.0,-2.0,2.0,3.0,0.0,1650847683572972.0
0.0,5.0,2.0,34.0,23.0,9.0,1.0,1.0,1650847683587172.0
0.0,-7.0,-3.0,-5.0,-6.0,-5.0,-4.0,-1.0,1650847683587172.0
0.0,-1.0,-1.0,-8.0,-9.0,-3.0,-3.0,-1.0,1650847683589143.0
3.0,21.0,-5.0,-16.0,-12.0,-7.0,-1.0,-1.0,1650847683589143.0
-1.0,-2.0,1.0,10.0,5.0,2.0,3.0,1.0,1650847683610153.0
-2.0,3.0,5.0,6.0,4.0,2.0,2.0,1.0,1650847683610153.0
-2.0,-16.0,-4.0,-3.0,-2.0,-1.0,-1.0,-2.0,1650847683612081.0
0.0,5.0,0.0,-4.0,-4.0,-5.0,-3.0,-2.0,1650847683612081.0
-2.0,-1.0,-1.0,-13.0,-8.0,-2.0,-1.0,0.0,1650847683624116.0
2.0,16.0,7.0,9.0,5.0,0.0,0.0,1.0,1650847683624116.0
0.0,-8.0,-5.0,-4.0,-2.0,-1.0,1.0,-2.0,1650847683633026.0
0.0,6.0,2.0,9.0,2.0,0.0,-1.0,-1.0,1650847683633026.0
2.0,8.0,1.0,-5.0,-2.0,0.0,-1.0,1.0,1650847683648064.0
0.0,0.0,0.0,6.0,3.0,2.0,-1.0,0.0,1650847683648064.0
-1.0,0.0,-4.0,-3.0,-1.0,-1.0,-1.0,0.0,1650847683649077.0
0.0,-2.0,3.0,4.0,1.0,-1.0,-3.0,-1.0,1650847683649077.0
-2.0,-1.0,-2.0,-2.0,-4.0,-4.0,0.0,-1.0,1650847683670153.0
0.0,8.0,-2.0,-10.0,-4.0,-2.0,-1.0,-1.0,1650847683670153.0
-3.0,-19.0,0.0,2.0,5.0,2.0,1.0,3.0,1650847683672083.0
4.0,17.0,6.0,4.0,-1.0,1.0,0.0,1.0,1650847683672083.0
1.0,6.0,-3.0,-14.0,-10.0,-3.0,-1.0,0.0,1650847683692832.0
-1.0,-2.0,-1.0,14.0,5.0,1.0,-1.0,-1.0,1650847683692832.0
0.0,18.0,7.0,4.0,7.0,0.0,1.0,-1.0,1650847683693829.0
0.0,-19.0,-7.0,2.0,1.0,1.0,1.0,-2.0,1650847683693829.0
-1.0,-23.0,-4.0,-6.0,-2.0,1.0,0.0,-2.0,1650847683706856.0
1.0,39.0,1.0,-4.0,-2.0,-2.0,-1.0,0.0,1650847683706856.0
2.0,7.0,2.0,2.0,-4.0,-1.0,-2.0,-1.0,1650847683714838.0
1.0,29.0,5.0,0.0,6.0,0.0,0.0,1.0,1650847683714838.0
0.0,-2.0,-3.0,-6.0,-6.0,-2.0,-1.0,-1.0,1650847683737357.0
-4.0,-26.0,-5.0,0.0,-3.0,-1.0,0.0,-3.0,1650847683737357.0
-3.0,-16.0,-4.0,-3.0,-1.0,-2.0,-1.0,-1.0,1650847683739286.0
0.0,10.0,0.0,-8.0,-4.0,-2.0,0.0,0.0,1650847683739286.0
-1.0,5.0,-1.0,-9.0,0.0,-2.0,-2.0,-2.0,1650847683743276.0
2.0,8.0,3.0,6.0,3.0,1.0,0.0,0.0,1650847683743276.0
-1.0,-10.0,-6.0,-16.0,-10.0,-3.0,1.0,1.0,1650847683752251.0
-4.0,-5.0,1.0,2.0,-3.0,-2.0,-2.0,-2.0,1650847683752251.0
-3.0,-10.0,-6.0,-14.0,-7.0,-4.0,-1.0,0.0,1650847683767377.0
-1.0,-11.0,-1.0,9.0,7.0,1.0,1.0,1.0,1650847683767377.0
0.0,-4.0,0.0,-2.0,-3.0,-3.0,-2.0,-2.0,1650847683769403.0
-1.0,-2.0,-3.0,-3.0,-2.0,-1.0,-1.0,-1.0,1650847683769403.0
-1.0,1.0,1.0,1.0,-6.0,0.0,1.0,-1.0,1650847683790496.0
1.0,-10.0,-1.0,-7.0,0.0,2.0,0.0,0.0,1650847683790496.0
3.0,37.0,8.0,11.0,5.0,3.0,1.0,1.0,1650847683791466.0
-2.0,-37.0,-8.0,7.0,1.0,-1.0,-2.0,-1.0,1650847683791466.0
4.0,20.0,5.0,6.0,2.0,1.0,0.0,0.0,1650847683812985.0
-2.0,-4.0,-1.0,-4.0,-4.0,-1.0,1.0,-2.0,1650847683812985.0
-4.0,-14.0,-6.0,-5.0,1.0,-2.0,-1.0,0.0,1650847683813778.0
-1.0,-20.0,-3.0,-1.0,2.0,1.0,1.0,0.0,1650847683813778.0
3.0,32.0,8.0,18.0,5.0,-1.0,0.0,1.0,1650847683827980.0
1.0,-4.0,-4.0,-8.0,-6.0,-3.0,-2.0,-1.0,1650847683827980.0
-2.0,-9.0,-4.0,-2.0,-3.0,-2.0,-1.0,-2.0,1650847683828783.0
-1.0,5.0,5.0,1.0,1.0,1.0,0.0,0.0,1650847683828783.0
0.0,-2.0,-3.0,3.0,0.0,1.0,0.0,0.0,1650847683850608.0
-2.0,8.0,3.0,-1.0,-2.0,0.0,0.0,-2.0,1650847683850608.0
3.0,-7.0,0.0,0.0,0.0,0.0,-1.0,3.0,1650847683851570.0
-4.0,5.0,2.0,-3.0,1.0,2.0,1.0,-1.0,1650847683851570.0
-1.0,-1.0,-3.0,11.0,-2.0,0.0,-1.0,-3.0,1650847683872573.0
0.0,-2.0,-1.0,-11.0,-1.0,-2.0,-1.0,-1.0,1650847683872573.0
-1.0,-8.0,-3.0,2.0,-2.0,-1.0,-2.0,-1.0,1650847683874529.0
2.0,9.0,2.0,-2.0,1.0,0.0,-1.0,-1.0,1650847683874529.0
0.0,11.0,5.0,-5.0,-2.0,-1.0,0.0,-2.0,1650847683887533.0
-2.0,-4.0,-4.0,2.0,1.0,-2.0,-1.0,0.0,1650847683887533.0
-2.0,-10.0,-2.0,3.0,3.0,-1.0,0.0,-2.0,1650847683889462.0
0.0,9.0,3.0,2.0,-1.0,0.0,-1.0,0.0,1650847683889462.0
-1.0,1.0,0.0,-2.0,3.0,-1.0,-1.0,1.0,1650847683910530.0
1.0,-4.0,-1.0,3.0,-2.0,-1.0,0.0,0.0,1650847683910530.0
0.0,0.0,0.0,-1.0,0.0,1.0,1.0,-1.0,1650847683911531.0
2.0,19.0,1.0,-1.0,-4.0,0.0,0.0,-1.0,1650847683911531.0
-9.0,-38.0,-13.0,-8.0,-1.0,-1.0,2.0,-1.0,1650847683932843.0
-1.0,9.0,1.0,-6.0,-3.0,1.0,-2.0,0.0,1650847683932843.0
0.0,-13.0,-5.0,2.0,2.0,0.0,0.0,-1.0,1650847683933841.0
1.0,4.0,2.0,2.0,-2.0,-3.0,-2.0,-1.0,1650847683933841.0
1.0,-1.0,-2.0,-6.0,1.0,0.0,-1.0,0.0,1650847683946872.0
-2.0,-2.0,-1.0,-2.0,-1.0,0.0,-2.0,-1.0,1650847683946872.0
-2.0,26.0,3.0,-2.0,-4.0,-2.0,-3.0,-4.0,1650847683953853.0
1.0,-7.0,-1.0,3.0,0.0,-2.0,-1.0,1.0,1650847683953853.0
-1.0,-7.0,0.0,-3.0,3.0,1.0,0.0,1.0,1650847683969663.0
2.0,12.0,2.0,6.0,7.0,2.0,1.0,1.0,1650847683969663.0
0.0,-46.0,-9.0,-3.0,-4.0,-4.0,0.0,0.0,1650847683971602.0
0.0,4.0,-1.0,3.0,1.0,0.0,2.0,1.0,1650847683971602.0
-1.0,10.0,-2.0,-5.0,-3.0,-2.0,0.0,-2.0,1650847683992534.0
-2.0,-12.0,0.0,0.0,-4.0,-2.0,-2.0,-1.0,1650847683992534.0
-3.0,2.0,2.0,2.0,-1.0,2.0,0.0,2.0,1650847683994557.0
-1.0,-2.0,-4.0,-16.0,-4.0,-1.0,0.0,-1.0,1650847683994557.0
1.0,-29.0,-2.0,18.0,8.0,2.0,0.0,0.0,1650847684006561.0
-1.0,7.0,-2.0,-7.0,-5.0,-2.0,-2.0,-1.0,1650847684006561.0
-1.0,6.0,3.0,3.0,7.0,2.0,2.0,-1.0,1650847684013545.0
-1.0,-6.0,-6.0,-3.0,-5.0,-3.0,-1.0,1.0,1650847684013545.0
-1.0,9.0,3.0,-2.0,-2.0,0.0,0.0,-2.0,1650847684029823.0
0.0,-1.0,-1.0,-1.0,-2.0,-1.0,0.0,0.0,1650847684029823.0
-2.0,0.0,2.0,3.0,-2.0,1.0,-2.0,-1.0,1650847684031822.0
1.0,-6.0,0.0,2.0,4.0,1.0,1.0,1.0,1650847684031822.0
2.0,7.0,2.0,0.0,2.0,-1.0,0.0,1.0,1650847684052830.0
0.0,-2.0,-1.0,3.0,0.0,-2.0,0.0,0.0,1650847684052830.0
0.0,-1.0,-2.0,-7.0,-7.0,-1.0,0.0,-1.0,1650847684053762.0
0.0,5.0,6.0,7.0,6.0,1.0,-2.0,-2.0,1650847684053762.0
-2.0,2.0,-3.0,-8.0,-7.0,-3.0,-2.0,0.0,1650847684067391.0
0.0,3.0,3.0,8.0,4.0,-2.0,-1.0,-2.0,1650847684067391.0
1.0,-1.0,-1.0,-5.0,3.0,-1.0,0.0,-1.0,1650847684073379.0
-1.0,14.0,5.0,11.0,1.0,0.0,2.0,-2.0,1650847684073379.0
-1.0,-1.0,-4.0,-4.0,0.0,0.0,-2.0,0.0,1650847684089836.0
-1.0,-8.0,-3.0,-2.0,-1.0,1.0,1.0,1.0,1650847684089836.0
-2.0,-13.0,-4.0,-4.0,-1.0,-1.0,0.0,-1.0,1650847684091833.0
-1.0,5.0,1.0,1.0,-2.0,-3.0,-1.0,0.0,1650847684091833.0
-1.0,-5.0,1.0,1.0,2.0,-1.0,0.0,-1.0,1650847684113011.0
0.0,5.0,0.0,0.0,-3.0,0.0,-1.0,-2.0,1650847684113011.0
-1.0,0.0,-3.0,-2.0,-3.0,-1.0,0.0,1.0,1650847684114008.0
-1.0,-7.0,-6.0,-3.0,-3.0,-4.0,-3.0,-1.0,1650847684114008.0
0.0,22.0,5.0,-1.0,-1.0,-1.0,1.0,-2.0,1650847684126975.0
-1.0,-13.0,-5.0,-1.0,-2.0,0.0,-1.0,-1.0,1650847684126975.0
-1.0,1.0,-1.0,2.0,0.0,-2.0,-1.0,-3.0,1650847684134022.0
0.0,-3.0,-1.0,-2.0,-3.0,-1.0,-3.0,0.0,1650847684134022.0
4.0,8.0,4.0,1.0,4.0,1.0,0.0,0.0,1650847684150131.0
-1.0,7.0,1.0,1.0,2.0,1.0,0.0,1.0,1650847684150131.0
-1.0,-3.0,0.0,3.0,2.0,0.0,0.0,-1.0,1650847684151810.0
-2.0,-1.0,-3.0,-3.0,-4.0,-2.0,-1.0,-1.0,1650847684151810.0
-2.0,-9.0,-3.0,-2.0,1.0,0.0,1.0,1.0,1650847684172955.0
-1.0,1.0,-2.0,-2.0,-2.0,-2.0,-1.0,0.0,1650847684172955.0
2.0,3.0,4.0,8.0,7.0,1.0,3.0,1.0,1650847684173797.0
-1.0,-11.0,-3.0,-1.0,-1.0,2.0,1.0,-1.0,1650847684173797.0
0.0,16.0,0.0,-1.0,-3.0,-1.0,0.0,-3.0,1650847684186831.0
-1.0,-6.0,0.0,2.0,-1.0,-1.0,-1.0,-1.0,1650847684186831.0
1.0,23.0,6.0,-1.0,-4.0,-1.0,-2.0,0.0,1650847684193746.0
-1.0,-12.0,-3.0,0.0,2.0,0.0,0.0,1.0,1650847684193746.0
0.0,-2.0,-1.0,1.0,-2.0,-2.0,1.0,-1.0,1650847684210234.0
0.0,-2.0,-4.0,-4.0,-5.0,-1.0,-1.0,0.0,1650847684210234.0
2.0,8.0,7.0,9.0,5.0,1.0,-1.0,-1.0,1650847684211258.0
-1.0,2.0,0.0,0.0,2.0,0.0,-2.0,-1.0,1650847684211258.0
-3.0,-12.0,-5.0,-4.0,-3.0,0.0,-1.0,0.0,1650847684232845.0
-2.0,2.0,-1.0,-5.0,-2.0,-2.0,-1.0,-2.0,1650847684232845.0
-1.0,-10.0,-4.0,-3.0,-1.0,0.0,-2.0,-1.0,1650847684233817.0
1.0,-5.0,1.0,4.0,-1.0,-2.0,1.0,-1.0,1650847684233817.0
-1.0,-6.0,0.0,0.0,-2.0,1.0,-1.0,1.0,1650847684246551.0
0.0,-1.0,-2.0,1.0,4.0,2.0,0.0,-1.0,1650847684246551.0
0.0,-1.0,-3.0,-6.0,-4.0,-1.0,-3.0,-1.0,1650847684253564.0
-1.0,-4.0,0.0,-1.0,1.0,-1.0,1.0,-2.0,1650847684253564.0
2.0,28.0,7.0,-2.0,-3.0,-3.0,-2.0,0.0,1650847684270063.0
0.0,-12.0,-4.0,2.0,-1.0,0.0,1.0,0.0,1650847684270063.0
-2.0,-17.0,-10.0,-16.0,-8.0,-3.0,-1.0,0.0,1650847684271991.0
0.0,-22.0,-3.0,19.0,14.0,4.0,1.0,-1.0,1650847684271991.0
0.0,2.0,-1.0,-7.0,-4.0,-1.0,-1.0,0.0,1650847684292168.0
1.0,8.0,5.0,11.0,6.0,2.0,1.0,1.0,1650847684292168.0
-1.0,-2.0,-3.0,-6.0,-6.0,-2.0,-1.0,1.0,1650847684294104.0
-2.0,7.0,0.0,-3.0,-1.0,-1.0,-1.0,0.0,1650847684294104.0
-2.0,-11.0,-3.0,-3.0,1.0,-1.0,-1.0,0.0,1650847684306093.0
-1.0,0.0,0.0,-2.0,-1.0,-2.0,0.0,-1.0,1650847684306093.0
-3.0,-9.0,-2.0,-2.0,-1.0,-1.0,0.0,-2.0,1650847684315055.0
-1.0,7.0,0.0,-12.0,-10.0,-3.0,0.0,-1.0,1650847684315055.0
1.0,-7.0,3.0,14.0,7.0,1.0,0.0,0.0,1650847684330029.0
2.0,16.0,0.0,-5.0,-4.0,-1.0,0.0,-2.0,1650847684330029.0
0.0,0.0,-1.0,1.0,1.0,1.0,-1.0,1.0,1650847684332016.0
0.0,1.0,-2.0,-8.0,-2.0,-1.0,0.0,-2.0,1650847684332016.0
-1.0,-7.0,-5.0,-3.0,-5.0,-2.0,0.0,-1.0,1650847684353010.0
0.0,-3.0,0.0,-1.0,1.0,-3.0,-1.0,0.0,1650847684353010.0
0.0,2.0,1.0,2.0,0.0,-1.0,-1.0,0.0,1650847684353938.0
1.0,7.0,1.0,-2.0,-4.0,-1.0,-2.0,0.0,1650847684353938.0
0.0,-2.0,2.0,3.0,1.0,3.0,0.0,-1.0,1650847684365971.0
-1.0,-5.0,1.0,3.0,3.0,0.0,-1.0,1.0,1650847684365971.0
1.0,4.0,-2.0,-1.0,-3.0,-1.0,0.0,1.0,1650847684374846.0
-1.0,-5.0,-3.0,-1.0,-4.0,-1.0,-1.0,0.0,1650847684374846.0
0.0,3.0,-1.0,0.0,-1.0,-3.0,-1.0,0.0,1650847684389841.0
1.0,-1.0,3.0,-1.0,7.0,1.0,1.0,0.0,1650847684389841.0
-2.0,2.0,-1.0,-1.0,-1.0,-1.0,-2.0,-2.0,1650847684391866.0
0.0,3.0,1.0,1.0,-1.0,-1.0,-1.0,0.0,1650847684391866.0
-2.0,-6.0,-2.0,-1.0,-5.0,-2.0,0.0,0.0,1650847684412926.0
-2.0,0.0,-2.0,-1.0,-2.0,0.0,-1.0,-1.0,1650847684412926.0
0.0,0.0,0.0,0.0,0.0,2.0,1.0,0.0,1650847684413869.0
0.0,9.0,4.0,2.0,5.0,2.0,1.0,1.0,1650847684413869.0
-2.0,-8.0,-2.0,-1.0,1.0,-2.0,-4.0,-1.0,1650847684425885.0
-3.0,-3.0,-3.0,-4.0,-2.0,-2.0,-1.0,-1.0,1650847684425885.0
1.0,5.0,1.0,2.0,0.0,0.0,0.0,-1.0,1650847684434864.0
-1.0,-7.0,-3.0,-2.0,-1.0,1.0,1.0,-1.0,1650847684434864.0
2.0,20.0,2.0,-3.0,-1.0,2.0,-1.0,2.0,1650847684449757.0
-2.0,-6.0,-1.0,-1.0,-1.0,0.0,-1.0,-1.0,1650847684449757.0
-2.0,-4.0,-3.0,-3.0,-3.0,-3.0,-1.0,-1.0,1650847684451752.0
0.0,0.0,-2.0,-3.0,-1.0,-3.0,-1.0,-2.0,1650847684451752.0
-2.0,-6.0,-1.0,1.0,2.0,-1.0,1.0,-2.0,1650847684472758.0
0.0,1.0,0.0,-2.0,-3.0,1.0,0.0,-1.0,1650847684472758.0
0.0,1.0,0.0,3.0,2.0,1.0,-1.0,-1.0,1650847684473720.0
-2.0,-2.0,0.0,-2.0,-2.0,-1.0,-1.0,0.0,1650847684473720.0
0.0,-8.0,-4.0,-1.0,-2.0,-1.0,-2.0,-1.0,1650847684486659.0
-1.0,20.0,1.0,-7.0,-3.0,-3.0,0.0,0.0,1650847684486659.0
-2.0,-11.0,-2.0,12.0,9.0,5.0,1.0,0.0,1650847684495644.0
-4.0,-18.0,-5.0,0.0,-2.0,-2.0,-3.0,-1.0,1650847684495644.0
2.0,16.0,3.0,-1.0,-2.0,-2.0,1.0,1.0,1650847684509664.0
-2.0,-6.0,-1.0,1.0,-3.0,-3.0,-1.0,0.0,1650847684509664.0
0.0,10.0,0.0,-2.0,-1.0,-1.0,-1.0,1.0,1650847684511603.0
1.0,5.0,1.0,0.0,1.0,0.0,0.0,-2.0,1650847684511603.0
-2.0,-10.0,-2.0,-1.0,-2.0,0.0,1.0,-3.0,1650847684532603.0
-1.0,-2.0,-1.0,3.0,2.0,-1.0,-2.0,-1.0,1650847684532603.0
1.0,1.0,2.0,5.0,-2.0,-4.0,-1.0,1.0,1650847684534560.0
0.0,3.0,-2.0,-1.0,1.0,4.0,-1.0,1.0,1650847684534560.0
-2.0,-6.0,-2.0,-4.0,-2.0,-1.0,-3.0,-2.0,1650847684546565.0
-1.0,-3.0,-1.0,-2.0,-4.0,0.0,0.0,-1.0,1650847684546565.0
-1.0,-5.0,1.0,-4.0,-3.0,-1.0,1.0,-1.0,1650847684555474.0
1.0,6.0,3.0,3.0,0.0,1.0,0.0,0.0,1650847684555474.0
-1.0,-5.0,-1.0,1.0,3.0,0.0,1.0,1.0,1650847684570452.0
0.0,1.0,-2.0,-7.0,-4.0,-2.0,-2.0,0.0,1650847684570452.0
-3.0,3.0,-1.0,-5.0,2.0,1.0,0.0,0.0,1650847684571432.0
-1.0,-5.0,-1.0,1.0,-2.0,-1.0,1.0,0.0,1650847684571432.0
0.0,13.0,4.0,-3.0,-3.0,-2.0,1.0,-2.0,1650847684592618.0
-3.0,-11.0,-5.0,3.0,-1.0,-3.0,0.0,0.0,1650847684592618.0
0.0,13.0,4.0,-3.0,-2.0,-1.0,-1.0,0.0,1650847684594574.0
-2.0,4.0,-1.0,-3.0,0.0,0.0,0.0,-1.0,1650847684594574.0
-2.0,-2.0,-2.0,2.0,1.0,-1.0,-3.0,-1.0,1650847684606754.0
-1.0,-11.0,-2.0,-3.0,-3.0,0.0,-1.0,0.0,1650847684606754.0
1.0,9.0,2.0,0.0,-3.0,-1.0,-1.0,-1.0,1650847684615709.0
0.0,0.0,-1.0,4.0,2.0,1.0,0.0,0.0,1650847684615709.0
1.0,-7.0,-3.0,1.0,4.0,0.0,-1.0,-2.0,1650847684629729.0
1.0,8.0,2.0,1.0,-1.0,0.0,1.0,-1.0,1650847684629729.0
-2.0,-16.0,-6.0,-1.0,-5.0,-4.0,0.0,-1.0,1650847684631657.0
-2.0,1.0,0.0,1.0,2.0,0.0,-1.0,0.0,1650847684631657.0
1.0,2.0,0.0,-6.0,-1.0,2.0,1.0,2.0,1650847684653004.0
2.0,0.0,2.0,7.0,0.0,-3.0,-1.0,0.0,1650847684653004.0
-1.0,-1.0,0.0,2.0,0.0,-2.0,0.0,-2.0,1650847684654329.0
-1.0,4.0,0.0,-5.0,-1.0,-5.0,-1.0,-2.0,1650847684654329.0
-1.0,-29.0,-9.0,-1.0,-3.0,-2.0,-1.0,-1.0,1650847684666366.0
-4.0,-8.0,-4.0,-4.0,-1.0,1.0,0.0,-1.0,1650847684666366.0
2.0,18.0,2.0,-1.0,-4.0,-1.0,-2.0,0.0,1650847684681325.0
0.0,15.0,6.0,-1.0,-1.0,-1.0,1.0,0.0,1650847684681325.0
-3.0,-2.0,-4.0,-9.0,-1.0,-1.0,-1.0,0.0,1650847684690300.0
-2.0,-5.0,9.0,21.0,3.0,-1.0,0.0,1.0,1650847684690300.0
0.0,-15.0,-6.0,-6.0,0.0,1.0,-1.0,-1.0,1650847684691256.0
1.0,11.0,1.0,-3.0,-2.0,-2.0,-1.0,-2.0,1650847684691256.0
1.0,4.0,3.0,-1.0,-3.0,-1.0,2.0,2.0,1650847684712403.0
2.0,-2.0,-4.0,-5.0,1.0,2.0,0.0,-2.0,1650847684712403.0
-1.0,4.0,3.0,2.0,-1.0,0.0,0.0,1.0,1650847684714354.0
0.0,-8.0,-3.0,0.0,-2.0,0.0,-1.0,-2.0,1650847684714354.0
0.0,0.0,-1.0,0.0,1.0,-2.0,-1.0,0.0,1650847684735338.0
1.0,3.0,-1.0,-6.0,-3.0,0.0,0.0,0.0,1650847684735338.0
-1.0,1.0,2.0,1.0,1.0,0.0,0.0,-2.0,1650847684736301.0
-1.0,-10.0,-5.0,-3.0,-1.0,-1.0,0.0,0.0,1650847684736301.0
0.0,5.0,4.0,4.0,0.0,-2.0,0.0,0.0,1650847684749366.0
-2.0,3.0,-3.0,-5.0,0.0,-1.0,-2.0,-1.0,1650847684749366.0
0.0,-18.0,-7.0,-3.0,0.0,0.0,0.0,-3.0,1650847684756402.0
0.0,-5.0,1.0,0.0,0.0,1.0,1.0,0.0,1650847684756402.0
3.0,33.0,5.0,0.0,-1.0,1.0,1.0,0.0,1650847684772819.0
0.0,6.0,-3.0,-1.0,-3.0,-2.0,1.0,1.0,1650847684772819.0
-4.0,-18.0,-7.0,-6.0,4.0,0.0,2.0,0.0,1650847684773751.0
0.0,0.0,3.0,14.0,-3.0,-2.0,-2.0,1.0,1650847684773751.0
-1.0,-15.0,-2.0,5.0,7.0,4.0,1.0,1.0,1650847684794734.0
1.0,8.0,0.0,-10.0,-5.0,0.0,1.0,0.0,1650847684794734.0
2.0,23.0,7.0,5.0,2.0,0.0,0.0,-1.0,1650847684796728.0
-2.0,-16.0,-9.0,-4.0,0.0,1.0,0.0,-1.0,1650847684796728.0
-3.0,0.0,0.0,2.0,-3.0,-4.0,-2.0,-2.0,1650847684809838.0
0.0,-1.0,0.0,2.0,-2.0,-2.0,0.0,1.0,1650847684809838.0
0.0,3.0,-1.0,-5.0,-2.0,-1.0,0.0,0.0,1650847684811836.0
-2.0,2.0,2.0,-2.0,0.0,1.0,-1.0,-2.0,1650847684811836.0
-1.0,-4.0,-1.0,1.0,-1.0,-1.0,-2.0,-1.0,1650847684832845.0
-2.0,-12.0,-3.0,-5.0,-1.0,1.0,-1.0,-2.0,1650847684832845.0
4.0,11.0,3.0,12.0,3.0,1.0,-1.0,2.0,1650847684833789.0
-1.0,3.0,2.0,-1.0,1.0,1.0,0.0,0.0,1650847684833789.0
-1.0,-10.0,-1.0,-4.0,-7.0,-1.0,-2.0,-1.0,1650847684855219.0
-1.0,-5.0,-1.0,3.0,2.0,0.0,-1.0,0.0,1650847684855219.0
1.0,14.0,4.0,-2.0,1.0,-1.0,-3.0,-1.0,1650847684857148.0
-2.0,-26.0,-6.0,6.0,2.0,-1.0,0.0,0.0,1650847684857148.0
-1.0,-1.0,-2.0,-9.0,-3.0,-3.0,-1.0,-2.0,1650847684869208.0
0.0,7.0,4.0,8.0,1.0,-1.0,1.0,-1.0,1650847684869208.0
1.0,0.0,3.0,3.0,3.0,2.0,1.0,1.0,1650847684877119.0
2.0,4.0,-2.0,-4.0,-1.0,-2.0,3.0,-1.0,1650847684877119.0
-2.0,0.0,-3.0,-2.0,1.0,-1.0,-1.0,-1.0,1650847684892120.0
-1.0,-2.0,-1.0,-2.0,-2.0,-2.0,-3.0,-2.0,1650847684892120.0
-1.0,-7.0,-8.0,-8.0,-7.0,-3.0,-2.0,-1.0,1650847684893059.0
-1.0,9.0,3.0,-4.0,-3.0,-3.0,-3.0,-2.0,1650847684893059.0
1.0,4.0,3.0,15.0,6.0,6.0,0.0,-1.0,1650847684914063.0
1.0,0.0,-1.0,-10.0,0.0,2.0,-2.0,0.0,1650847684914063.0
-3.0,-9.0,0.0,7.0,0.0,0.0,-1.0,-2.0,1650847684914994.0
1.0,9.0,0.0,-5.0,-4.0,-4.0,-2.0,2.0,1650847684914994.0
-1.0,-3.0,-1.0,0.0,-1.0,-1.0,0.0,0.0,1650847684929107.0
-1.0,-1.0,-1.0,4.0,4.0,-1.0,-1.0,0.0,1650847684929107.0
-1.0,-1.0,-1.0,-6.0,-5.0,-3.0,-2.0,1.0,1650847684937137.0
0.0,-5.0,-2.0,0.0,0.0,0.0,0.0,1.0,1650847684937137.0
-2.0,-10.0,-5.0,-4.0,-3.0,-1.0,-2.0,-3.0,1650847684951891.0
2.0,8.0,0.0,-6.0,-4.0,0.0,-1.0,0.0,1650847684951891.0
-1.0,-7.0,-2.0,-5.0,-3.0,-3.0,0.0,-2.0,1650847684952824.0
0.0,20.0,3.0,6.0,2.0,-1.0,0.0,-1.0,1650847684952824.0
0.0,-1.0,1.0,3.0,4.0,2.0,0.0,0.0,1650847684973998.0
1.0,2.0,0.0,0.0,-3.0,-2.0,-2.0,-1.0,1650847684973998.0
-2.0,-1.0,-2.0,-6.0,-3.0,-2.0,-1.0,-1.0,1650847684974942.0
-2.0,5.0,4.0,1.0,-1.0,0.0,-2.0,0.0,1650847684974942.0
0.0,-11.0,2.0,2.0,-1.0,2.0,1.0,1.0,1650847684989129.0
-3.0,4.0,-7.0,-3.0,-2.0,-2.0,0.0,1.0,1650847684989129.0
-1.0,-5.0,-1.0,1.0,2.0,2.0,0.0,-1.0,1650847684997289.0
-2.0,-5.0,-2.0,-3.0,0.0,0.0,-1.0,-1.0,1650847684997289.0
1.0,-4.0,-1.0,1.0,-1.0,-1.0,1.0,0.0,1650847685012319.0
1.0,-1.0,1.0,1.0,0.0,1.0,-1.0,-1.0,1650847685012319.0
-2.0,-5.0,-1.0,1.0,0.0,-1.0,-1.0,-1.0,1650847685012319.0
-1.0,-6.0,-3.0,-2.0,0.0,0.0,-1.0,-1.0,1650847685012319.0
0.0,4.0,1.0,-2.0,-3.0,-1.0,-3.0,1.0,1650847685034881.0
0.0,0.0,1.0,4.0,0.0,-1.0,2.0,0.0,1650847685034881.0
1.0,4.0,-1.0,-1.0,2.0,-1.0,-1.0,0.0,1650847685034881.0
-1.0,-6.0,-2.0,-3.0,-1.0,0.0,-1.0,-2.0,1650847685034881.0
2.0,5.0,1.0,0.0,-4.0,-1.0,-1.0,-1.0,1650847685048844.0
-1.0,-6.0,0.0,1.0,5.0,2.0,-1.0,-1.0,1650847685048844.0
1.0,-3.0,-3.0,-2.0,-5.0,-2.0,0.0,0.0,1650847685056819.0
-2.0,-4.0,-2.0,3.0,3.0,0.0,-2.0,1.0,1650847685056819.0
0.0,-2.0,-2.0,-2.0,-4.0,-4.0,-4.0,-1.0,1650847685071850.0
-2.0,-3.0,0.0,0.0,0.0,-2.0,-1.0,-2.0,1650847685071850.0
0.0,-1.0,1.0,-1.0,-2.0,1.0,0.0,1.0,1650847685072780.0
0.0,-3.0,-1.0,-2.0,-5.0,1.0,1.0,0.0,1650847685072780.0
-1.0,-4.0,-2.0,0.0,0.0,-4.0,0.0,-1.0,1650847685093842.0
3.0,2.0,2.0,2.0,0.0,0.0,0.0,-1.0,1650847685093842.0
-2.0,-7.0,-2.0,3.0,6.0,-1.0,0.0,-2.0,1650847685094842.0
-1.0,-2.0,-3.0,-5.0,-3.0,-1.0,1.0,-2.0,1650847685094842.0
-3.0,1.0,-2.0,-1.0,0.0,-1.0,0.0,0.0,1650847685108938.0
-1.0,4.0,1.0,-1.0,-1.0,-1.0,-3.0,-2.0,1650847685108938.0
-2.0,-26.0,-9.0,1.0,-1.0,0.0,-1.0,-1.0,1650847685116919.0
0.0,1.0,3.0,0.0,-1.0,0.0,0.0,-1.0,1650847685116919.0
0.0,2.0,0.0,-1.0,2.0,0.0,0.0,0.0,1650847685131947.0
-3.0,-5.0,-2.0,-1.0,-3.0,1.0,1.0,-2.0,1650847685131947.0
0.0,11.0,3.0,3.0,1.0,0.0,-1.0,1.0,1650847685132904.0
0.0,-6.0,-1.0,0.0,-1.0,0.0,0.0,-2.0,1650847685132904.0
0.0,0.0,3.0,2.0,-2.0,1.0,-2.0,0.0,1650847685154188.0
-1.0,-16.0,-6.0,-3.0,-1.0,-1.0,-3.0,2.0,1650847685154188.0
-2.0,7.0,3.0,2.0,-4.0,-2.0,3.0,1.0,1650847685155126.0
2.0,4.0,-3.0,-3.0,2.0,1.0,-2.0,0.0,1650847685155126.0
-2.0,2.0,0.0,0.0,2.0,-1.0,1.0,1.0,1650847685169207.0
2.0,3.0,1.0,3.0,2.0,0.0,-1.0,0.0,1650847685169207.0
-1.0,-2.0,2.0,-2.0,-2.0,0.0,-1.0,-2.0,1650847685177308.0
-1.0,0.0,-2.0,-6.0,-5.0,-1.0,-1.0,1.0,1650847685177308.0
-1.0,0.0,-3.0,-2.0,1.0,0.0,-1.0,-1.0,1650847685192359.0
-2.0,-5.0,-3.0,0.0,0.0,1.0,-1.0,0.0,1650847685192359.0
1.0,6.0,1.0,-3.0,-3.0,-5.0,-1.0,-1.0,1650847685192359.0
-1.0,0.0,3.0,1.0,0.0,-3.0,1.0,-1.0,1650847685192359.0
-1.0,-3.0,-2.0,-4.0,-3.0,-2.0,-3.0,-1.0,1650847685214847.0
-1.0,-1.0,0.0,1.0,0.0,-2.0,1.0,-1.0,1650847685214847.0
0.0,-4.0,-1.0,1.0,2.0,2.0,-1.0,-2.0,1650847685214847.0
-1.0,-2.0,0.0,1.0,2.0,1.0,-1.0,-1.0,1650847685214847.0
-1.0,-8.0,-1.0,-1.0,-1.0,-1.0,1.0,0.0,1650847685228671.0
2.0,12.0,0.0,-4.0,-4.0,-4.0,-1.0,0.0,1650847685228671.0
-2.0,1.0,0.0,-3.0,0.0,2.0,-3.0,0.0,1650847685236719.0
-1.0,1.0,1.0,-1.0,1.0,-3.0,-1.0,-1.0,1650847685236719.0
-1.0,-4.0,-1.0,0.0,-1.0,0.0,1.0,-1.0,1650847685252365.0
0.0,-1.0,2.0,3.0,3.0,2.0,1.0,0.0,1650847685252365.0
-1.0,-2.0,-1.0,-2.0,0.0,0.0,-3.0,-2.0,1650847685252365.0
1.0,-1.0,0.0,-3.0,-3.0,1.0,-1.0,-1.0,1650847685252365.0
3.0,5.0,3.0,1.0,0.0,0.0,0.0,0.0,1650847685274844.0
1.0,-1.0,0.0,-3.0,-3.0,-3.0,1.0,0.0,1650847685274844.0
2.0,4.0,0.0,0.0,1.0,1.0,1.0,0.0,1650847685274844.0
-1.0,-1.0,0.0,1.0,2.0,-1.0,-1.0,-1.0,1650847685274844.0
-1.0,2.0,-2.0,-1.0,-1.0,-2.0,0.0,-2.0,1650847685288808.0
-2.0,7.0,3.0,1.0,3.0,4.0,0.0,0.0,1650847685288808.0
-4.0,-8.0,-1.0,1.0,-2.0,-2.0,-1.0,1.0,1650847685296822.0
-1.0,-1.0,-3.0,1.0,-1.0,-2.0,-2.0,2.0,1650847685296822.0
0.0,1.0,-1.0,0.0,-1.0,-1.0,-1.0,-2.0,1650847685311726.0
-1.0,-2.0,0.0,-5.0,-2.0,0.0,-2.0,-2.0,1650847685311726.0
1.0,3.0,1.0,6.0,5.0,1.0,-2.0,1.0,1650847685312725.0
-2.0,-2.0,-1.0,-2.0,-2.0,-2.0,-1.0,-1.0,1650847685312725.0
0.0,0.0,-1.0,-2.0,-3.0,-2.0,1.0,-1.0,1650847685334844.0
-2.0,-5.0,-3.0,-4.0,-2.0,0.0,-1.0,0.0,1650847685334844.0
-1.0,-3.0,2.0,-2.0,-1.0,-1.0,1.0,0.0,1650847685334844.0
1.0,-2.0,-2.0,-1.0,0.0,1.0,-2.0,-1.0,1650847685334844.0
0.0,-1.0,0.0,1.0,2.0,1.0,0.0,0.0,1650847685348832.0
-2.0,0.0,-1.0,0.0,-1.0,-2.0,0.0,-1.0,1650847685348832.0
-2.0,-6.0,-3.0,-2.0,-4.0,-2.0,0.0,-1.0,1650847685356810.0
2.0,7.0,5.0,3.0,2.0,-1.0,0.0,0.0,1650847685356810.0
-4.0,-4.0,-3.0,0.0,-1.0,2.0,-1.0,0.0,1650847685371844.0
-2.0,-4.0,-2.0,-1.0,0.0,-1.0,-1.0,-1.0,1650847685371844.0
2.0,7.0,2.0,-1.0,-1.0,-3.0,0.0,-1.0,1650847685372782.0
-4.0,-17.0,-4.0,-4.0,0.0,0.0,2.0,-1.0,1650847685372782.0
-1.0,2.0,1.0,-1.0,-1.0,-1.0,-1.0,-1.0,1650847685394815.0
0.0,4.0,1.0,5.0,2.0,1.0,-1.0,0.0,1650847685394815.0
0.0,-1.0,-2.0,-4.0,-1.0,0.0,0.0,0.0,1650847685394815.0
0.0,9.0,4.0,6.0,3.0,2.0,1.0,2.0,1650847685394815.0
-2.0,-4.0,0.0,1.0,2.0,1.0,-1.0,-2.0,1650847685409237.0
1.0,-4.0,-2.0,0.0,0.0,-2.0,0.0,-2.0,1650847685409237.0
-2.0,3.0,-1.0,-4.0,-4.0,0.0,-2.0,-1.0,1650847685417244.0
-2.0,-1.0,-3.0,1.0,-1.0,-2.0,1.0,-1.0,1650847685417244.0
0.0,1.0,1.0,-6.0,-4.0,-1.0,-1.0,-2.0,1650847685432258.0
0.0,3.0,3.0,11.0,7.0,2.0,0.0,0.0,1650847685432258.0
-1.0,-3.0,-2.0,-6.0,-3.0,0.0,-1.0,0.0,1650847685432258.0
0.0,-1.0,-2.0,3.0,4.0,3.0,-1.0,0.0,1650847685432258.0
0.0,-1.0,-1.0,0.0,-2.0,0.0,1.0,-1.0,1650847685454487.0
1.0,13.0,1.0,-8.0,-7.0,-3.0,-1.0,-1.0,1650847685454487.0
-1.0,-8.0,-1.0,5.0,2.0,2.0,0.0,0.0,1650847685455419.0
-3.0,3.0,-3.0,-1.0,-2.0,-2.0,0.0,-1.0,1650847685455419.0
2.0,5.0,2.0,0.0,-2.0,-2.0,-1.0,-1.0,1650847685468411.0
-1.0,-5.0,-1.0,2.0,2.0,0.0,2.0,0.0,1650847685468411.0
-1.0,1.0,-1.0,-3.0,1.0,2.0,-1.0,-1.0,1650847685477401.0
3.0,23.0,5.0,-4.0,-3.0,2.0,-1.0,-2.0,1650847685477401.0
-3.0,-28.0,-10.0,5.0,4.0,-2.0,-1.0,-1.0,1650847685492381.0
0.0,-2.0,-3.0,-10.0,-6.0,-3.0,0.0,1.0,1650847685492381.0
0.0,0.0,0.0,5.0,-1.0,-2.0,0.0,0.0,1650847685492381.0
-1.0,-2.0,-3.0,-3.0,-5.0,-3.0,-1.0,-2.0,1650847685492381.0
0.0,12.0,3.0,-2.0,1.0,0.0,0.0,0.0,1650847685514032.0
-1.0,-13.0,-4.0,-2.0,2.0,1.0,0.0,-2.0,1650847685514032.0
1.0,3.0,-4.0,-2.0,-4.0,-3.0,-2.0,0.0,1650847685514970.0
0.0,-7.0,0.0,-3.0,0.0,-2.0,0.0,0.0,1650847685514970.0
0.0,3.0,2.0,0.0,0.0,-2.0,2.0,0.0,1650847685528247.0
1.0,1.0,0.0,1.0,3.0,1.0,-1.0,0.0,1650847685528247.0
-1.0,-7.0,-3.0,-2.0,-1.0,-1.0,-1.0,1.0,1650847685537281.0
1.0,29.0,3.0,0.0,-2.0,-2.0,-2.0,-2.0,1650847685537281.0
-1.0,-24.0,-8.0,-3.0,1.0,1.0,-2.0,0.0,1650847685551843.0
0.0,1.0,3.0,2.0,-2.0,0.0,-2.0,-1.0,1650847685551843.0
0.0,2.0,-1.0,-2.0,-3.0,-2.0,1.0,-2.0,1650847685552828.0
0.0,-5.0,0.0,-1.0,0.0,0.0,2.0,1.0,1650847685552828.0
-2.0,4.0,0.0,-2.0,-3.0,-2.0,-2.0,-1.0,1650847685574855.0
1.0,5.0,1.0,2.0,2.0,-1.0,-1.0,0.0,1650847685574855.0
-1.0,-1.0,-1.0,0.0,-2.0,-1.0,0.0,-1.0,1650847685574855.0
-3.0,-10.0,-3.0,-4.0,1.0,1.0,0.0,-1.0,1650847685574855.0
1.0,26.0,6.0,-3.0,-3.0,-1.0,1.0,0.0,1650847685588870.0
-4.0,-38.0,-13.0,1.0,-2.0,-1.0,-1.0,-1.0,1650847685588870.0
-1.0,0.0,-1.0,0.0,0.0,1.0,-1.0,-1.0,1650847685596849.0
0.0,-4.0,-2.0,1.0,-2.0,-2.0,0.0,-1.0,1650847685596849.0
2.0,13.0,3.0,3.0,2.0,1.0,-2.0,0.0,1650847685611784.0
1.0,2.0,-1.0,-5.0,-4.0,-1.0,-2.0,0.0,1650847685611784.0
0.0,1.0,1.0,2.0,0.0,-3.0,0.0,0.0,1650847685612740.0
0.0,-9.0,-3.0,4.0,2.0,2.0,-1.0,1.0,1650847685612740.0
-2.0,-12.0,-2.0,-3.0,-3.0,0.0,0.0,1.0,1650847685634747.0
2.0,14.0,0.0,-4.0,-6.0,-4.0,0.0,-1.0,1650847685634747.0
-1.0,-10.0,0.0,2.0,7.0,2.0,1.0,1.0,1650847685634747.0
2.0,3.0,2.0,1.0,-1.0,0.0,0.0,0.0,1650847685634747.0
2.0,18.0,3.0,-4.0,0.0,0.0,-1.0,-1.0,1650847685658040.0
-2.0,-19.0,0.0,11.0,3.0,0.0,-1.0,-1.0,1650847685658040.0
0.0,5.0,2.0,1.0,0.0,0.0,-2.0,-1.0,1650847685658040.0
-2.0,-6.0,0.0,-1.0,-1.0,-1.0,0.0,1.0,1650847685658040.0
-1.0,0.0,-2.0,-3.0,-1.0,1.0,-1.0,1.0,1650847685672016.0
0.0,4.0,0.0,-4.0,0.0,-1.0,0.0,-1.0,1650847685672016.0
1.0,6.0,2.0,-1.0,-3.0,-3.0,0.0,-1.0,1650847685673006.0
0.0,-9.0,-1.0,-5.0,-1.0,-1.0,-1.0,-1.0,1650847685673006.0
-1.0,-4.0,0.0,12.0,0.0,1.0,-1.0,0.0,1650847685694189.0
1.0,9.0,2.0,2.0,1.0,0.0,0.0,1.0,1650847685694189.0
0.0,-3.0,3.0,-2.0,-1.0,3.0,-1.0,0.0,1650847685695119.0
0.0,0.0,-11.0,-6.0,-3.0,-3.0,-1.0,-2.0,1650847685695119.0
-2.0,-17.0,-1.0,-1.0,0.0,-3.0,-3.0,0.0,1650847685717274.0
1.0,13.0,-1.0,-1.0,-3.0,2.0,0.0,2.0,1650847685717274.0
-1.0,10.0,4.0,-4.0,2.0,0.0,0.0,0.0,1650847685718218.0
1.0,1.0,5.0,5.0,3.0,1.0,-1.0,0.0,1650847685718218.0
-1.0,-1.0,-1.0,0.0,3.0,0.0,-2.0,0.0,1650847685732196.0
-3.0,0.0,-2.0,-6.0,-5.0,-2.0,0.0,0.0,1650847685732196.0
0.0,-6.0,-8.0,-5.0,2.0,1.0,2.0,-2.0,1650847685732196.0
-1.0,3.0,2.0,-1.0,-1.0,0.0,0.0,1.0,1650847685732196.0
-1.0,-3.0,-1.0,0.0,1.0,0.0,1.0,-2.0,1650847685754838.0
1.0,1.0,2.0,-5.0,0.0,-1.0,-2.0,-1.0,1650847685754838.0
2.0,3.0,0.0,0.0,0.0,-1.0,0.0,1.0,1650847685754838.0
-2.0,-8.0,-3.0,4.0,-4.0,-3.0,0.0,-3.0,1650847685754838.0
0.0,2.0,1.0,-1.0,2.0,2.0,0.0,-3.0,1650847685777821.0
0.0,-1.0,-2.0,-4.0,-2.0,1.0,-1.0,-1.0,1650847685777821.0
-1.0,-4.0,-1.0,3.0,-1.0,0.0,1.0,1.0,1650847685778751.0
-1.0,-3.0,-4.0,-4.0,-6.0,-2.0,0.0,1.0,1650847685778751.0
-1.0,-4.0,-6.0,-9.0,-7.0,-3.0,1.0,0.0,1650847685792304.0
-1.0,6.0,3.0,3.0,0.0,0.0,2.0,-1.0,1650847685792304.0
1.0,-3.0,1.0,3.0,1.0,2.0,1.0,-3.0,1650847685792304.0
-3.0,-11.0,0.0,-3.0,2.0,0.0,-2.0,-1.0,1650847685792304.0
4.0,25.0,3.0,2.0,-2.0,-2.0,0.0,1.0,1650847685814327.0
-4.0,-12.0,-2.0,-2.0,-3.0,-2.0,-3.0,0.0,1650847685814327.0
1.0,14.0,4.0,3.0,-2.0,-1.0,-1.0,-2.0,1650847685815258.0
-2.0,-19.0,-5.0,-2.0,-4.0,0.0,-2.0,-3.0,1650847685815258.0
2.0,2.0,0.0,4.0,10.0,5.0,-1.0,-1.0,1650847685837342.0
-1.0,-5.0,-3.0,2.0,0.0,-3.0,-1.0,0.0,1650847685837342.0
-3.0,2.0,-2.0,-5.0,-4.0,-2.0,0.0,-2.0,1650847685838311.0
1.0,10.0,5.0,4.0,4.0,1.0,0.0,0.0,1650847685838311.0
-1.0,-10.0,-3.0,-5.0,-7.0,-1.0,1.0,0.0,1650847685852288.0
-1.0,7.0,1.0,-1.0,4.0,3.0,0.0,2.0,1650847685852288.0
0.0,-7.0,1.0,12.0,3.0,-1.0,-1.0,1.0,1650847685852288.0
1.0,2.0,-3.0,-7.0,-5.0,-3.0,-1.0,-1.0,1650847685852288.0
-3.0,-5.0,-2.0,-4.0,-3.0,-2.0,-2.0,-3.0,1650847685874254.0
2.0,1.0,-1.0,-8.0,-6.0,-2.0,0.0,1.0,1650847685874254.0
-1.0,-8.0,-2.0,-4.0,-2.0,0.0,-4.0,-1.0,1650847685875212.0
-1.0,-1.0,-1.0,1.0,-2.0,-1.0,1.0,0.0,1650847685875212.0
0.0,4.0,1.0,-1.0,2.0,-1.0,1.0,1.0,1650847685897222.0
-3.0,-2.0,-2.0,6.0,1.0,0.0,0.0,-2.0,1650847685897222.0
-1.0,-6.0,-2.0,2.0,2.0,-1.0,1.0,0.0,1650847685898161.0
1.0,7.0,0.0,-1.0,-2.0,0.0,-2.0,2.0,1650847685898161.0
-2.0,-7.0,-2.0,1.0,-1.0,-4.0,0.0,-2.0,1650847685912140.0
-2.0,-6.0,-1.0,3.0,5.0,2.0,0.0,-1.0,1650847685912140.0
0.0,11.0,-2.0,-11.0,-4.0,0.0,-1.0,-1.0,1650847685913121.0
0.0,0.0,0.0,3.0,1.0,0.0,1.0,0.0,1650847685913121.0
2.0,1.0,2.0,2.0,1.0,-1.0,2.0,1.0,1650847685934902.0
-3.0,-11.0,-9.0,-11.0,-6.0,-4.0,-4.0,-4.0,1650847685934902.0
-2.0,0.0,2.0,5.0,0.0,-2.0,-1.0,-3.0,1650847685934902.0
0.0,-3.0,-3.0,-5.0,-2.0,1.0,-1.0,0.0,1650847685934902.0
0.0,-1.0,-2.0,-8.0,1.0,0.0,0.0,0.0,1650847685957952.0
2.0,21.0,11.0,11.0,2.0,-1.0,0.0,-1.0,1650847685957952.0
2.0,-1.0,1.0,-2.0,-1.0,2.0,0.0,1.0,1650847685957952.0
-1.0,-9.0,-4.0,2.0,2.0,-2.0,1.0,2.0,1650847685957952.0
-4.0,-8.0,-4.0,-3.0,-5.0,-1.0,-1.0,-1.0,1650847685971896.0
-4.0,-4.0,-3.0,-4.0,-2.0,-1.0,0.0,-1.0,1650847685971896.0
1.0,14.0,5.0,0.0,-1.0,-1.0,-2.0,0.0,1650847685972828.0
0.0,6.0,4.0,2.0,3.0,1.0,1.0,-1.0,1650847685972828.0
-1.0,-7.0,-2.0,5.0,1.0,-1.0,-2.0,1.0,1650847686003010.0
2.0,4.0,0.0,-2.0,-2.0,-1.0,-2.0,-2.0,1650847686003010.0
-2.0,-8.0,-4.0,0.0,0.0,-2.0,-2.0,-2.0,1650847686003010.0
0.0,1.0,2.0,3.0,4.0,1.0,-1.0,0.0,1650847686003010.0
0.0,17.0,6.0,-3.0,-4.0,-1.0,-1.0,-2.0,1650847686016982.0
2.0,-20.0,-21.0,-7.0,-4.0,1.0,2.0,2.0,1650847686016982.0
-3.0,-6.0,18.0,6.0,-1.0,-2.0,2.0,-1.0,1650847686017912.0
2.0,8.0,-1.0,5.0,1.0,0.0,-4.0,0.0,1650847686017912.0
-3.0,-4.0,3.0,-3.0,-5.0,-3.0,-3.0,-2.0,1650847686031821.0
3.0,6.0,3.0,0.0,2.0,-2.0,0.0,0.0,1650847686031821.0
-3.0,-6.0,-18.0,-5.0,0.0,0.0,-2.0,-14.0,1650847686032752.0
-1.0,4.0,4.0,-1.0,-3.0,-2.0,-1.0,15.0,1650847686032752.0
0.0,3.0,24.0,8.0,-1.0,-2.0,-2.0,-3.0,1650847686054753.0
3.0,0.0,-1.0,1.0,-2.0,-1.0,0.0,-2.0,1650847686054753.0
-1.0,-16.0,-21.0,-6.0,0.0,0.0,-1.0,2.0,1650847686054753.0
-1.0,7.0,5.0,-1.0,-1.0,-1.0,-2.0,-8.0,1650847686054753.0
0.0,-2.0,-25.0,-5.0,-1.0,0.0,0.0,0.0,1650847686076901.0
1.0,10.0,33.0,5.0,1.0,3.0,-2.0,3.0,1650847686076901.0
-1.0,5.0,-23.0,0.0,1.0,-1.0,-1.0,-1.0,1650847686077831.0
-4.0,-54.0,-6.0,-4.0,-3.0,-1.0,-2.0,-2.0,1650847686077831.0
3.0,21.0,1.0,-4.0,-1.0,0.0,0.0,2.0,1650847686091861.0
-2.0,14.0,-21.0,-14.0,-2.0,-1.0,1.0,-2.0,1650847686091861.0
8.0,5.0,46.0,17.0,5.0,3.0,6.0,17.0,1650847686092792.0
-12.0,8.0,1.0,3.0,-4.0,-5.0,-6.0,-19.0,1650847686092792.0
-3.0,-21.0,-53.0,-9.0,0.0,0.0,-1.0,-2.0,1650847686114799.0
-4.0,-21.0,-8.0,-9.0,2.0,2.0,2.0,-3.0,1650847686114799.0
15.0,5.0,-15.0,-3.0,0.0,2.0,3.0,16.0,1650847686114799.0
1.0,53.0,-6.0,7.0,0.0,-2.0,4.0,-7.0,1650847686114799.0
-7.0,-48.0,-32.0,-5.0,-5.0,-2.0,-5.0,-3.0,1650847686136697.0
-1.0,33.0,6.0,-8.0,-4.0,-3.0,-5.0,-10.0,1650847686136697.0
-6.0,-36.0,-21.0,0.0,-3.0,-5.0,-5.0,-3.0,1650847686137671.0
6.0,-4.0,15.0,-1.0,2.0,4.0,5.0,8.0,1650847686137671.0
-1.0,18.0,20.0,8.0,0.0,1.0,1.0,-5.0,1650847686151746.0
1.0,-8.0,-7.0,2.0,-1.0,-2.0,0.0,6.0,1650847686151746.0
-5.0,5.0,13.0,-4.0,-2.0,-2.0,1.0,-4.0,1650847686152754.0
1.0,-4.0,2.0,1.0,-5.0,-4.0,-5.0,-1.0,1650847686152754.0
5.0,7.0,12.0,-1.0,1.0,0.0,4.0,6.0,1650847686174749.0
-1.0,-19.0,1.0,1.0,-1.0,-3.0,-2.0,3.0,1650847686174749.0
-2.0,16.0,13.0,11.0,11.0,2.0,-3.0,-3.0,1650847686174749.0
-3.0,-16.0,-7.0,8.0,7.0,1.0,0.0,-2.0,1650847686174749.0
7.0,24.0,4.0,1.0,3.0,0.0,1.0,1.0,1650847686197215.0
1.0,32.0,8.0,5.0,-2.0,-2.0,0.0,3.0,1650847686197215.0
-5.0,-20.0,6.0,-9.0,-8.0,-1.0,1.0,-5.0,1650847686197215.0
3.0,-38.0,-28.0,-16.0,-3.0,-2.0,-3.0,7.0,1650847686197215.0
4.0,46.0,17.0,12.0,1.0,-1.0,0.0,0.0,1650847686211372.0
-5.0,-6.0,9.0,8.0,-2.0,0.0,2.0,-3.0,1650847686211372.0
-3.0,-4.0,23.0,-3.0,-1.0,0.0,-4.0,-4.0,1650847686219284.0
3.0,-7.0,-32.0,-10.0,0.0,2.0,2.0,5.0,1650847686219284.0
-1.0,-4.0,68.0,15.0,3.0,1.0,0.0,-1.0,1650847686234310.0
1.0,-12.0,-45.0,0.0,-1.0,-2.0,-2.0,-1.0,1650847686234310.0
-2.0,10.0,-3.0,-11.0,-8.0,-3.0,-2.0,-1.0,1650847686235241.0
-3.0,-17.0,13.0,-4.0,-4.0,1.0,-2.0,-2.0,1650847686235241.0
-3.0,-10.0,-8.0,-4.0,6.0,1.0,-1.0,1.0,1650847686256874.0
1.0,11.0,22.0,7.0,-1.0,1.0,-3.0,-10.0,1650847686256874.0
3.0,4.0,-26.0,7.0,2.0,3.0,7.0,10.0,1650847686257805.0
8.0,22.0,7.0,-9.0,-6.0,-1.0,-3.0,2.0,1650847686257805.0
-12.0,-29.0,-30.0,-31.0,-14.0,-8.0,-10.0,-9.0,1650847686270960.0
2.0,22.0,-18.0,9.0,7.0,3.0,3.0,0.0,1650847686270960.0
-4.0,13.0,2.0,9.0,0.0,-3.0,-8.0,-7.0,1650847686279796.0
-1.0,2.0,33.0,6.0,3.0,2.0,3.0,-1.0,1650847686279796.0
2.0,-16.0,-40.0,-12.0,-7.0,1.0,6.0,6.0,1650847686294807.0
-2.0,-18.0,29.0,12.0,12.0,1.0,-4.0,2.0,1650847686294807.0
7.0,32.0,-2.0,-15.0,-12.0,-4.0,1.0,-2.0,1650847686294807.0
0.0,14.0,19.0,8.0,4.0,3.0,3.0,3.0,1650847686294807.0
-1.0,-26.0,-1.0,7.0,3.0,-1.0,-4.0,-1.0,1650847686324897.0
2.0,-14.0,-2.0,-9.0,-6.0,1.0,7.0,7.0,1650847686324897.0
0.0,-2.0,7.0,12.0,3.0,1.0,-1.0,-1.0,1650847686325828.0
1.0,-2.0,-17.0,-3.0,19.0,8.0,12.0,5.0,1650847686325828.0
-3.0,-5.0,25.0,24.0,0.0,0.0,-11.0,-6.0,1650847686330816.0
-3.0,19.0,-11.0,7.0,-10.0,-4.0,-7.0,-7.0,1650847686330816.0
6.0,-8.0,28.0,-5.0,6.0,2.0,2.0,7.0,1650847686339851.0
-4.0,-17.0,-21.0,-26.0,-15.0,-4.0,-2.0,-7.0,1650847686339851.0
8.0,-26.0,-3.0,21.0,25.0,16.0,19.0,16.0,1650847686354842.0
-2.0,-30.0,59.0,-16.0,-20.0,-9.0,-5.0,0.0,1650847686354842.0
-4.0,12.0,-88.0,11.0,15.0,-1.0,1.0,-6.0,1650847686354842.0
-2.0,-12.0,51.0,-17.0,-13.0,-2.0,-8.0,-5.0,1650847686354842.0
0.0,18.0,-1.0,-1.0,1.0,-5.0,-4.0,0.0,1650847686377362.0
-5.0,-53.0,-12.0,-1.0,-1.0,3.0,-1.0,-2.0,1650847686377362.0
6.0,3.0,-5.0,-21.0,-8.0,1.0,4.0,5.0,1650847686377362.0
-6.0,-6.0,7.0,-1.0,-1.0,-1.0,3.0,-5.0,1650847686377362.0
1.0,22.0,7.0,0.0,-5.0,-9.0,-6.0,-2.0,1650847686391393.0
-7.0,-28.0,-2.0,-2.0,1.0,0.0,2.0,0.0,1650847686391393.0
-6.0,-5.0,-23.0,-8.0,-5.0,1.0,3.0,-2.0,1650847686399937.0
1.0,-8.0,-10.0,29.0,18.0,2.0,-3.0,-3.0,1650847686399937.0
2.0,7.0,24.0,-1.0,-10.0,-1.0,16.0,9.0,1650847686413982.0
3.0,7.0,-20.0,-18.0,-1.0,-1.0,-8.0,-1.0,1650847686413982.0
-15.0,-11.0,48.0,-8.0,-8.0,-12.0,-30.0,-19.0,1650847686414959.0
4.0,56.0,6.0,30.0,-5.0,-2.0,-2.0,-2.0,1650847686414959.0
-3.0,-7.0,-14.0,-42.0,-19.0,-7.0,-1.0,-4.0,1650847686437135.0
9.0,35.0,-2.0,2.0,15.0,10.0,15.0,9.0,1650847686437135.0
-3.0,-57.0,6.0,26.0,16.0,6.0,4.0,3.0,1650847686437135.0
-1.0,11.0,9.0,-2.0,-12.0,-7.0,-10.0,-5.0,1650847686437135.0
-4.0,23.0,-14.0,5.0,3.0,-2.0,-10.0,-13.0,1650847686451163.0
9.0,30.0,-29.0,1.0,0.0,10.0,22.0,17.0,1650847686451163.0
-10.0,-23.0,13.0,-12.0,-16.0,-13.0,-28.0,-11.0,1650847686459806.0
0.0,-28.0,1.0,18.0,8.0,3.0,7.0,4.0,1650847686459806.0
2.0,20.0,-46.0,-4.0,1.0,2.0,4.0,1.0,1650847686474856.0
-4.0,-24.0,1.0,-5.0,-3.0,-3.0,-7.0,-7.0,1650847686474856.0
-8.0,5.0,5.0,8.0,5.0,7.0,12.0,-14.0,1650847686474856.0
4.0,-1.0,-30.0,-10.0,-5.0,-4.0,-10.0,20.0,1650847686474856.0
-1.0,6.0,17.0,-3.0,-8.0,-2.0,11.0,5.0,1650847686496898.0
-8.0,-8.0,25.0,15.0,0.0,-10.0,-23.0,-14.0,1650847686496898.0
5.0,6.0,-13.0,-38.0,-16.0,-1.0,13.0,5.0,1650847686497885.0
2.0,18.0,-20.0,15.0,-5.0,-5.0,1.0,-5.0,1650847686497885.0
-1.0,-6.0,46.0,24.0,26.0,11.0,0.0,0.0,1650847686512844.0
-7.0,-52.0,-51.0,-5.0,-2.0,-2.0,-5.0,0.0,1650847686512844.0
1.0,-7.0,16.0,-7.0,-13.0,-2.0,1.0,1.0,1650847686519833.0
-2.0,-3.0,-39.0,-26.0,-8.0,0.0,5.0,0.0,1650847686519833.0
5.0,-9.0,27.0,12.0,5.0,3.0,9.0,9.0,1650847686534818.0
-8.0,2.0,10.0,4.0,-5.0,-10.0,-19.0,-15.0,1650847686534818.0
9.0,20.0,-12.0,-4.0,10.0,3.0,-3.0,0.0,1650847686534818.0
-1.0,-3.0,25.0,3.0,7.0,2.0,4.0,0.0,1650847686534818.0
-7.0,8.0,-36.0,1.0,-3.0,3.0,4.0,-2.0,1650847686556794.0
9.0,18.0,66.0,13.0,1.0,-1.0,8.0,6.0,1650847686556794.0
-6.0,8.0,-38.0,-14.0,-13.0,-14.0,-17.0,-6.0,1650847686557724.0
-5.0,-11.0,-6.0,-7.0,2.0,3.0,1.0,-3.0,1650847686557724.0
2.0,-4.0,10.0,-6.0,-10.0,2.0,2.0,5.0,1650847686571691.0
-9.0,-4.0,-14.0,5.0,13.0,-1.0,-4.0,-4.0,1650847686571691.0
19.0,61.0,53.0,14.0,1.0,6.0,16.0,12.0,1650847686579763.0
-2.0,-18.0,-18.0,-5.0,6.0,-2.0,0.0,-2.0,1650847686579763.0
-7.0,34.0,-2.0,-20.0,-13.0,-10.0,-21.0,-15.0,1650847686594875.0
-7.0,-48.0,-10.0,5.0,-2.0,0.0,4.0,5.0,1650847686594875.0
1.0,-2.0,25.0,13.0,7.0,1.0,2.0,3.0,1650847686594875.0
-2.0,-5.0,-29.0,-8.0,-8.0,-4.0,-13.0,-10.0,1650847686594875.0
9.0,-5.0,13.0,6.0,4.0,8.0,18.0,15.0,1650847686617341.0
2.0,10.0,0.0,-10.0,-6.0,-4.0,-1.0,-2.0,1650847686617341.0
-1.0,4.0,-29.0,-28.0,-15.0,-6.0,-4.0,0.0,1650847686617341.0
-3.0,-15.0,48.0,70.0,19.0,9.0,6.0,0.0,1650847686617341.0
-3.0,-19.0,-15.0,-14.0,6.0,3.0,-6.0,-4.0,1650847686640471.0
11.0,68.0,20.0,3.0,-2.0,2.0,1.0,1.0,1650847686640471.0
-6.0,-54.0,-31.0,14.0,8.0,5.0,-7.0,1.0,1650847686640471.0
1.0,28.0,-22.0,-31.0,-15.0,-5.0,3.0,2.0,1650847686640471.0
-2.0,-25.0,2.0,3.0,-10.0,-7.0,-7.0,-5.0,1650847686654365.0
-7.0,-22.0,-5.0,0.0,8.0,7.0,3.0,1.0,1650847686654365.0
-3.0,-15.0,-20.0,-19.0,-12.0,-4.0,7.0,0.0,1650847686655393.0
0.0,25.0,-10.0,-8.0,-2.0,-7.0,-10.0,-5.0,1650847686655393.0
-3.0,-32.0,12.0,9.0,0.0,0.0,-7.0,-2.0,1650847686677936.0
3.0,4.0,0.0,-10.0,-4.0,1.0,3.0,0.0,1650847686677936.0
3.0,13.0,19.0,22.0,13.0,9.0,9.0,4.0,1650847686677936.0
0.0,-2.0,35.0,-21.0,-10.0,-4.0,-1.0,2.0,1650847686677936.0
2.0,4.0,-32.0,14.0,2.0,-2.0,0.0,0.0,1650847686701803.0
0.0,-12.0,-10.0,-1.0,3.0,2.0,-1.0,-3.0,1650847686701803.0
4.0,8.0,22.0,15.0,8.0,7.0,17.0,14.0,1650847686701803.0
-6.0,-7.0,-13.0,-9.0,0.0,-5.0,-15.0,-9.0,1650847686701803.0
-1.0,-2.0,-5.0,-11.0,-6.0,-5.0,-1.0,-2.0,1650847686714767.0
0.0,16.0,-15.0,0.0,-4.0,0.0,-2.0,-1.0,1650847686714767.0
-3.0,-12.0,-4.0,5.0,2.0,-1.0,0.0,-1.0,1650847686714767.0
7.0,20.0,20.0,-1.0,1.0,0.0,4.0,4.0,1650847686714767.0
-5.0,-14.0,-4.0,-2.0,-3.0,-4.0,-5.0,-3.0,1650847686736709.0
3.0,13.0,-3.0,-3.0,-2.0,2.0,4.0,4.0,1650847686736709.0
-8.0,-18.0,-5.0,-6.0,-4.0,-4.0,1.0,-3.0,1650847686737706.0
1.0,-9.0,-12.0,-7.0,-7.0,-6.0,-16.0,-7.0,1650847686737706.0
-4.0,-14.0,-2.0,-2.0,4.0,3.0,-2.0,-4.0,1650847686759719.0
1.0,6.0,11.0,7.0,-3.0,-3.0,-1.0,3.0,1650847686759719.0
5.0,-4.0,15.0,-1.0,1.0,-1.0,-1.0,-1.0,1650847686760664.0
-3.0,3.0,-15.0,2.0,2.0,2.0,5.0,3.0,1650847686760664.0
6.0,46.0,19.0,-1.0,1.0,-4.0,-1.0,0.0,1650847686774674.0
-4.0,-7.0,-11.0,-4.0,-1.0,-1.0,-1.0,-3.0,1650847686774674.0
-1.0,1.0,10.0,3.0,1.0,1.0,-3.0,-2.0,1650847686775604.0
-4.0,-7.0,1.0,-2.0,-1.0,-2.0,1.0,-2.0,1650847686775604.0
-3.0,-19.0,-8.0,-2.0,-2.0,1.0,-1.0,0.0,1650847686796738.0
1.0,12.0,14.0,2.0,6.0,7.0,4.0,1.0,1650847686796738.0
-2.0,20.0,-4.0,1.0,-3.0,-1.0,-3.0,-3.0,1650847686797669.0
1.0,-1.0,3.0,-1.0,3.0,0.0,0.0,1.0,1650847686797669.0
-2.0,1.0,-15.0,-6.0,-5.0,-5.0,1.0,-2.0,1650847686819792.0
0.0,-3.0,-5.0,-2.0,-3.0,-11.0,-8.0,-5.0,1650847686819792.0
0.0,10.0,11.0,3.0,4.0,12.0,0.0,3.0,1650847686820723.0
0.0,1.0,-4.0,-1.0,0.0,-7.0,-1.0,-2.0,1650847686820723.0
1.0,-5.0,6.0,-2.0,-3.0,2.0,-1.0,1.0,1650847686834768.0
-1.0,5.0,4.0,8.0,4.0,3.0,3.0,0.0,1650847686834768.0
0.0,-2.0,-9.0,-4.0,-3.0,-6.0,-5.0,-3.0,1650847686834768.0
0.0,-1.0,-6.0,4.0,5.0,7.0,3.0,0.0,1650847686834768.0
-1.0,1.0,24.0,4.0,-1.0,-5.0,-5.0,-2.0,1650847686856715.0
1.0,7.0,-42.0,-11.0,-4.0,0.0,4.0,3.0,1650847686856715.0
-1.0,3.0,-6.0,3.0,2.0,1.0,-2.0,-3.0,1650847686857726.0
0.0,-1.0,11.0,4.0,0.0,-2.0,3.0,1.0,1650847686857726.0
4.0,3.0,-5.0,-3.0,0.0,-2.0,-1.0,-1.0,1650847686880327.0
-5.0,4.0,1.0,-4.0,-2.0,7.0,0.0,-3.0,1650847686880327.0
-3.0,-10.0,2.0,3.0,0.0,-3.0,0.0,-1.0,1650847686881257.0
0.0,-3.0,-3.0,-3.0,0.0,1.0,1.0,1.0,1650847686881257.0
-3.0,-3.0,-7.0,1.0,0.0,-2.0,-3.0,1.0,1650847686894289.0
1.0,-1.0,6.0,-4.0,-3.0,-1.0,-2.0,-1.0,1650847686894289.0
0.0,-2.0,-16.0,2.0,1.0,-9.0,-9.0,-4.0,1650847686895220.0
-4.0,3.0,9.0,0.0,-2.0,1.0,3.0,1.0,1650847686895220.0
1.0,-5.0,-4.0,-1.0,-2.0,-2.0,-4.0,-27.0,1650847686917310.0
4.0,-4.0,-3.0,-3.0,0.0,-8.0,-1.0,30.0,1650847686917310.0
2.0,16.0,6.0,3.0,2.0,3.0,4.0,3.0,1650847686917310.0
-4.0,-5.0,-2.0,2.0,-2.0,-13.0,-11.0,-13.0,1650847686917310.0
-3.0,-3.0,0.0,3.0,3.0,26.0,18.0,5.0,1650847686940287.0
1.0,4.0,9.0,3.0,-1.0,0.0,0.0,-13.0,1650847686940287.0
1.0,1.0,-1.0,-2.0,-2.0,-2.0,-3.0,4.0,1650847686941218.0
0.0,0.0,-4.0,0.0,1.0,3.0,6.0,7.0,1650847686941218.0
-1.0,5.0,-9.0,-4.0,-3.0,-11.0,-11.0,-3.0,1650847686962692.0
-2.0,-9.0,-8.0,-2.0,-3.0,-4.0,-3.0,-5.0,1650847686962692.0
-2.0,-7.0,-8.0,-4.0,-1.0,3.0,2.0,2.0,1650847686963623.0
2.0,-2.0,-5.0,-6.0,-1.0,1.0,0.0,-3.0,1650847686963623.0
-5.0,-11.0,12.0,5.0,1.0,-3.0,-2.0,2.0,1650847686976587.0
5.0,21.0,5.0,0.0,-3.0,0.0,2.0,3.0,1650847686976587.0
-1.0,-16.0,2.0,-1.0,1.0,-1.0,-2.0,-3.0,1650847686977586.0
2.0,1.0,-9.0,2.0,3.0,4.0,7.0,1.0,1650847686977586.0
-5.0,-2.0,-10.0,-8.0,-8.0,-11.0,-25.0,-7.0,1650847687000366.0
-4.0,0.0,9.0,-1.0,-2.0,0.0,4.0,1.0,1650847687000366.0
2.0,21.0,41.0,8.0,0.0,-2.0,-2.0,-3.0,1650847687001296.0
-3.0,-30.0,-74.0,-15.0,2.0,6.0,3.0,1.0,1650847687001296.0
3.0,14.0,48.0,12.0,4.0,-1.0,5.0,6.0,1650847687013840.0
1.0,-9.0,-11.0,-2.0,1.0,0.0,2.0,-3.0,1650847687013840.0
-4.0,-5.0,-13.0,-10.0,-8.0,-9.0,-11.0,-5.0,1650847687014839.0
5.0,11.0,25.0,7.0,1.0,4.0,6.0,9.0,1650847687014839.0
-6.0,-3.0,-20.0,-4.0,0.0,-1.0,3.0,-2.0,1650847687036920.0
-3.0,-9.0,0.0,-6.0,-6.0,-3.0,-9.0,-8.0,1650847687036920.0
-2.0,-4.0,-21.0,2.0,4.0,5.0,7.0,1.0,1650847687037920.0
-2.0,6.0,19.0,0.0,-5.0,-4.0,-3.0,-3.0,1650847687037920.0
5.0,-2.0,-2.0,0.0,-1.0,-1.0,3.0,6.0,1650847687059863.0
-1.0,4.0,9.0,7.0,5.0,2.0,-1.0,4.0,1650847687059863.0
1.0,-7.0,-20.0,-8.0,-3.0,-1.0,-1.0,-2.0,1650847687060950.0
-2.0,0.0,11.0,0.0,-3.0,-3.0,-4.0,-6.0,1650847687060950.0
-2.0,-3.0,-1.0,1.0,1.0,-3.0,2.0,4.0,1650847687074011.0
3.0,0.0,-4.0,0.0,-1.0,-1.0,-2.0,0.0,1650847687074011.0
-3.0,2.0,-2.0,-2.0,1.0,1.0,-1.0,-4.0,1650847687074941.0
-9.0,-9.0,4.0,0.0,0.0,-1.0,-2.0,-8.0,1650847687074941.0
4.0,9.0,4.0,3.0,2.0,2.0,-1.0,1.0,1650847687096949.0
7.0,1.0,-2.0,-4.0,-1.0,-1.0,0.0,-1.0,1650847687096949.0
-4.0,-6.0,-8.0,1.0,-2.0,-2.0,-3.0,0.0,1650847687097900.0
4.0,7.0,16.0,6.0,-1.0,-1.0,-1.0,1.0,1650847687097900.0
-2.0,-26.0,-13.0,-1.0,1.0,2.0,1.0,4.0,1650847687120208.0
2.0,8.0,-2.0,-5.0,-3.0,-6.0,-1.0,5.0,1650847687120208.0
-8.0,0.0,4.0,1.0,-1.0,1.0,0.0,-7.0,1650847687121164.0
15.0,-2.0,-2.0,0.0,1.0,1.0,-3.0,-3.0,1650847687121164.0
0.0,1.0,-6.0,-5.0,-1.0,-1.0,2.0,3.0,1650847687134171.0
3.0,0.0,3.0,3.0,1.0,0.0,-1.0,-4.0,1650847687134171.0
2.0,-6.0,-3.0,-2.0,0.0,-2.0,3.0,1.0,1650847687135108.0
-3.0,11.0,10.0,3.0,0.0,2.0,0.0,6.0,1650847687135108.0
-1.0,3.0,-7.0,-1.0,0.0,0.0,2.0,-2.0,1650847687157110.0
-1.0,-4.0,-2.0,-1.0,-1.0,-1.0,-2.0,-4.0,1650847687157110.0
-3.0,3.0,-1.0,0.0,-2.0,-2.0,2.0,4.0,1650847687158061.0
-4.0,-3.0,5.0,4.0,0.0,0.0,-2.0,-5.0,1650847687158061.0
5.0,4.0,-3.0,-2.0,2.0,1.0,1.0,3.0,1650847687180079.0
-8.0,-11.0,-6.0,-2.0,-1.0,-1.0,-2.0,-3.0,1650847687180079.0
3.0,-13.0,2.0,0.0,-1.0,-3.0,-2.0,1.0,1650847687181011.0
-1.0,15.0,1.0,-5.0,-5.0,0.0,1.0,4.0,1650847687181011.0
0.0,7.0,-2.0,-1.0,0.0,2.0,0.0,-4.0,1650847687194038.0
-3.0,-13.0,1.0,1.0,1.0,3.0,1.0,-2.0,1650847687194038.0
5.0,35.0,4.0,3.0,-2.0,-2.0,0.0,0.0,1650847687202020.0
-2.0,-16.0,-2.0,-1.0,-3.0,0.0,0.0,3.0,1650847687202020.0
-6.0,-3.0,-1.0,-3.0,2.0,-1.0,1.0,0.0,1650847687216904.0
-2.0,12.0,3.0,1.0,1.0,0.0,-1.0,-4.0,1650847687216904.0
3.0,-2.0,0.0,-3.0,-2.0,-1.0,-2.0,2.0,1650847687217844.0
-3.0,-2.0,1.0,-2.0,-1.0,-2.0,-2.0,-1.0,1650847687217844.0
2.0,7.0,-2.0,0.0,-4.0,-2.0,-1.0,0.0,1650847687239926.0
-1.0,-15.0,-2.0,-1.0,1.0,-1.0,-1.0,-2.0,1650847687239926.0
1.0,3.0,0.0,1.0,2.0,2.0,-1.0,-1.0,1650847687240948.0
-2.0,0.0,1.0,-1.0,0.0,-2.0,1.0,-1.0,1650847687240948.0
0.0,-20.0,-5.0,-2.0,-1.0,1.0,0.0,1.0,1650847687253883.0
0.0,30.0,4.0,0.0,1.0,1.0,0.0,0.0,1650847687253883.0
-2.0,-15.0,-3.0,-2.0,-1.0,-2.0,-1.0,0.0,1650847687262321.0
3.0,4.0,5.0,2.0,-1.0,0.0,0.0,-1.0,1650847687262321.0
-3.0,-6.0,-5.0,-5.0,0.0,-2.0,0.0,1.0,1650847687277379.0
0.0,-4.0,-5.0,-6.0,-4.0,-1.0,-1.0,-1.0,1650847687277379.0
0.0,-2.0,0.0,4.0,3.0,1.0,0.0,-2.0,1650847687277379.0
0.0,1.0,-2.0,-7.0,-2.0,-3.0,-1.0,-1.0,1650847687277379.0
0.0,5.0,1.0,7.0,1.0,0.0,2.0,-2.0,1650847687300475.0
1.0,13.0,2.0,1.0,-3.0,0.0,-1.0,2.0,1650847687300475.0
-3.0,-33.0,-9.0,-9.0,-2.0,1.0,-2.0,-1.0,1650847687300475.0
0.0,16.0,1.0,0.0,-4.0,-1.0,-2.0,-1.0,1650847687300475.0
1.0,10.0,6.0,2.0,6.0,1.0,0.0,-1.0,1650847687313374.0
-4.0,-15.0,-2.0,-3.0,-2.0,-1.0,0.0,-2.0,1650847687313374.0
1.0,20.0,0.0,-2.0,-2.0,-2.0,1.0,-2.0,1650847687322354.0
-3.0,-21.0,-3.0,-2.0,-1.0,-1.0,0.0,0.0,1650847687322354.0
1.0,13.0,0.0,-3.0,-2.0,-1.0,-1.0,2.0,1650847687337341.0
-1.0,10.0,0.0,2.0,0.0,-2.0,-1.0,0.0,1650847687337341.0
-2.0,-2.0,0.0,2.0,2.0,1.0,-1.0,0.0,1650847687337341.0
-2.0,-18.0,-1.0,0.0,2.0,1.0,-1.0,1.0,1650847687337341.0
0.0,19.0,3.0,-1.0,-2.0,-2.0,-1.0,-3.0,1650847687359849.0
-1.0,-15.0,-4.0,0.0,-1.0,-2.0,1.0,1.0,1650847687359849.0
-1.0,-23.0,-4.0,-1.0,-1.0,0.0,-1.0,-1.0,1650847687360781.0
1.0,11.0,-2.0,-3.0,-2.0,-1.0,0.0,-1.0,1650847687360781.0
-1.0,-13.0,-2.0,-3.0,-2.0,0.0,-1.0,0.0,1650847687373811.0
0.0,8.0,-1.0,0.0,-1.0,0.0,-1.0,-2.0,1650847687373811.0
1.0,-2.0,0.0,-1.0,-2.0,-1.0,1.0,1.0,1650847687381782.0
-1.0,2.0,3.0,1.0,2.0,1.0,0.0,1.0,1650847687381782.0
1.0,-7.0,-4.0,-4.0,-3.0,-2.0,-1.0,0.0,1650847687397330.0
-1.0,-7.0,-4.0,-2.0,0.0,0.0,-2.0,-3.0,1650847687397330.0
-1.0,-6.0,-2.0,0.0,1.0,-2.0,1.0,-1.0,1650847687397330.0
-1.0,-1.0,0.0,-2.0,0.0,0.0,-1.0,-1.0,1650847687397330.0
0.0,3.0,-2.0,-1.0,-1.0,-1.0,-2.0,0.0,1650847687420433.0
-3.0,-6.0,-2.0,1.0,-1.0,-1.0,-2.0,-1.0,1650847687420433.0
2.0,25.0,9.0,2.0,-1.0,1.0,3.0,2.0,1650847687420433.0
0.0,-1.0,-3.0,-1.0,-2.0,0.0,-1.0,-1.0,1650847687420433.0
0.0,-4.0,-2.0,-1.0,1.0,1.0,-1.0,-1.0,1650847687433333.0
-1.0,-5.0,0.0,2.0,0.0,-2.0,-1.0,-1.0,1650847687433333.0
0.0,3.0,0.0,0.0,-1.0,-1.0,-2.0,-1.0,1650847687442320.0
0.0,14.0,6.0,0.0,2.0,-1.0,0.0,-1.0,1650847687442320.0
-1.0,-15.0,-3.0,-1.0,-1.0,1.0,2.0,-1.0,1650847687457368.0
1.0,2.0,2.0,-2.0,0.0,-1.0,0.0,2.0,1650847687457368.0
-2.0,5.0,0.0,0.0,-1.0,-1.0,-1.0,-1.0,1650847687464437.0
0.0,10.0,0.0,0.0,0.0,-2.0,-1.0,-2.0,1650847687464437.0
-2.0,1.0,-2.0,0.0,-1.0,-3.0,-1.0,1.0,1650847687479838.0
-2.0,-7.0,-3.0,-1.0,0.0,0.0,0.0,-3.0,1650847687479838.0
-1.0,2.0,-1.0,-1.0,0.0,-1.0,-1.0,0.0,1650847687480838.0
1.0,-1.0,-1.0,0.0,0.0,0.0,1.0,1.0,1650847687480838.0
-2.0,-5.0,-4.0,-3.0,-1.0,0.0,-3.0,0.0,1650847687493869.0
1.0,-2.0,-1.0,1.0,1.0,1.0,0.0,1.0,1650847687493869.0
-1.0,3.0,1.0,0.0,0.0,0.0,-2.0,-1.0,1650847687501848.0
0.0,-8.0,-1.0,1.0,-1.0,-1.0,1.0,-3.0,1650847687501848.0
-1.0,-1.0,0.0,-2.0,-1.0,0.0,1.0,-2.0,1650847687516742.0
1.0,-1.0,-2.0,-1.0,-2.0,2.0,-1.0,-1.0,1650847687516742.0
0.0,1.0,-2.0,0.0,1.0,1.0,0.0,1.0,1650847687517740.0
-2.0,-10.0,-3.0,0.0,0.0,-2.0,0.0,-2.0,1650847687517740.0
0.0,9.0,1.0,-4.0,-1.0,2.0,3.0,-2.0,1650847687540031.0
0.0,2.0,5.0,14.0,5.0,-1.0,0.0,0.0,1650847687540031.0
-1.0,-3.0,-4.0,-4.0,-1.0,-1.0,0.0,-3.0,1650847687540961.0
-1.0,-4.0,0.0,-3.0,1.0,0.0,1.0,0.0,1650847687540961.0
0.0,1.0,3.0,14.0,-3.0,-1.0,-1.0,0.0,1650847687562975.0
-1.0,-1.0,-2.0,-6.0,-1.0,-1.0,0.0,0.0,1650847687562975.0
-2.0,-2.0,1.0,-2.0,1.0,1.0,1.0,-1.0,1650847687563775.0
-1.0,-2.0,-1.0,-2.0,1.0,-1.0,1.0,0.0,1650847687563775.0
-1.0,-2.0,-1.0,-5.0,0.0,-2.0,-2.0,-3.0,1650847687577364.0
-2.0,-9.0,0.0,-3.0,-5.0,-1.0,0.0,-1.0,1650847687577364.0
2.0,30.0,4.0,-2.0,-4.0,2.0,0.0,2.0,1650847687577364.0
-2.0,-26.0,-9.0,-2.0,-1.0,0.0,-1.0,-1.0,1650847687577364.0
0.0,-2.0,2.0,0.0,0.0,0.0,0.0,1.0,1650847687600372.0
-1.0,-2.0,-2.0,0.0,0.0,-2.0,0.0,-3.0,1650847687600372.0
-1.0,-2.0,-1.0,0.0,-3.0,-1.0,0.0,-2.0,1650847687600372.0
0.0,5.0,1.0,-1.0,0.0,1.0,0.0,-1.0,1650847687600372.0
0.0,4.0,0.0,0.0,2.0,0.0,-1.0,-2.0,1650847687622980.0
0.0,-6.0,0.0,-1.0,0.0,0.0,0.0,0.0,1650847687622980.0
1.0,4.0,1.0,0.0,0.0,-2.0,0.0,-1.0,1650847687622980.0
0.0,4.0,0.0,0.0,-2.0,-1.0,-1.0,-1.0,1650847687622980.0
-2.0,-7.0,-2.0,-2.0,-1.0,1.0,0.0,-2.0,1650847687637343.0
0.0,7.0,0.0,-3.0,-1.0,1.0,0.0,2.0,1650847687637343.0
1.0,-9.0,-3.0,-1.0,-2.0,0.0,-1.0,0.0,1650847687637343.0
0.0,2.0,2.0,3.0,-1.0,0.0,0.0,2.0,1650847687637343.0
0.0,4.0,-1.0,-3.0,0.0,-4.0,-2.0,0.0,1650847687660036.0
-1.0,0.0,-1.0,-3.0,-2.0,-2.0,-2.0,0.0,1650847687660036.0
-3.0,-8.0,-3.0,3.0,-1.0,-3.0,-1.0,-1.0,1650847687660968.0
-1.0,2.0,0.0,1.0,-1.0,0.0,-2.0,0.0,1650847687660968.0
-3.0,-7.0,-1.0,-3.0,-2.0,-1.0,-2.0,0.0,1650847687682916.0
3.0,20.0,2.0,-2.0,0.0,0.0,1.0,-1.0,1650847687682916.0
0.0,-10.0,-4.0,-4.0,0.0,-1.0,-2.0,-1.0,1650847687682916.0
1.0,4.0,4.0,10.0,2.0,1.0,0.0,2.0,1650847687682916.0
-1.0,-2.0,-3.0,-2.0,-2.0,0.0,1.0,1.0,1650847687696935.0
-1.0,-4.0,-1.0,0.0,1.0,0.0,-1.0,-1.0,1650847687696935.0
0.0,4.0,-1.0,-3.0,-2.0,-3.0,-1.0,0.0,1650847687697869.0
-1.0,2.0,1.0,-3.0,-1.0,-2.0,-3.0,-3.0,1650847687697869.0
1.0,0.0,0.0,0.0,-2.0,0.0,-1.0,-1.0,1650847687719995.0
0.0,2.0,0.0,0.0,0.0,0.0,-1.0,0.0,1650847687719995.0
1.0,-7.0,-1.0,0.0,-1.0,-2.0,-1.0,0.0,1650847687720927.0
-2.0,-8.0,0.0,-3.0,-3.0,-2.0,-1.0,1.0,1650847687720927.0
0.0,3.0,0.0,1.0,1.0,2.0,0.0,0.0,1650847687743059.0
-1.0,-2.0,-1.0,-4.0,-2.0,0.0,0.0,-1.0,1650847687743059.0
2.0,4.0,1.0,2.0,2.0,1.0,-1.0,1.0,1650847687743059.0
-1.0,8.0,-1.0,0.0,1.0,-2.0,-1.0,-1.0,1650847687743059.0
-1.0,-2.0,-2.0,-3.0,-2.0,-2.0,-1.0,-2.0,1650847687757092.0
0.0,-2.0,-2.0,-2.0,0.0,0.0,1.0,-1.0,1650847687757092.0
-4.0,3.0,1.0,1.0,2.0,-1.0,-2.0,1.0,1650847687758021.0
-4.0,-5.0,-3.0,0.0,-2.0,0.0,-1.0,-2.0,1650847687758021.0
0.0,-11.0,-2.0,1.0,0.0,0.0,0.0,0.0,1650847687780182.0
0.0,-2.0,1.0,-3.0,-3.0,-2.0,0.0,0.0,1650847687780182.0
-1.0,-7.0,-2.0,0.0,-2.0,0.0,1.0,-2.0,1650847687781114.0
0.0,0.0,-1.0,-2.0,1.0,0.0,0.0,-1.0,1650847687781114.0
-1.0,-3.0,0.0,1.0,1.0,2.0,2.0,-1.0,1650847687802390.0
0.0,0.0,0.0,-2.0,-1.0,1.0,-1.0,-1.0,1650847687802390.0
0.0,-2.0,-2.0,-1.0,-1.0,1.0,-1.0,-2.0,1650847687803330.0
-2.0,-2.0,-1.0,0.0,-1.0,-1.0,-1.0,-1.0,1650847687803330.0
0.0,7.0,0.0,-1.0,1.0,0.0,-1.0,0.0,1650847687817313.0
-1.0,1.0,-1.0,0.0,-1.0,-1.0,-2.0,0.0,1650847687817313.0
-5.0,-1.0,1.0,0.0,-1.0,-1.0,-1.0,-1.0,1650847687817313.0
0.0,0.0,-2.0,-3.0,0.0,1.0,1.0,0.0,1650847687817313.0
1.0,3.0,0.0,-1.0,-2.0,-2.0,-1.0,-1.0,1650847687840414.0
-1.0,-3.0,-2.0,0.0,-2.0,1.0,0.0,-1.0,1650847687840414.0
-3.0,-2.0,2.0,2.0,0.0,-1.0,0.0,0.0,1650847687840414.0
-1.0,2.0,0.0,-1.0,0.0,0.0,-1.0,-1.0,1650847687840414.0
0.0,-1.0,-3.0,1.0,1.0,-2.0,-1.0,-2.0,1650847687862424.0
0.0,-11.0,-3.0,-2.0,-2.0,-3.0,0.0,-1.0,1650847687862424.0
0.0,-5.0,-2.0,-2.0,-2.0,-2.0,0.0,-1.0,1650847687863365.0
2.0,8.0,1.0,-2.0,0.0,1.0,-1.0,1.0,1650847687863365.0
-3.0,-3.0,-1.0,-1.0,-1.0,0.0,0.0,0.0,1650847687877344.0
-1.0,-3.0,0.0,0.0,1.0,-1.0,-3.0,-2.0,1650847687877344.0
-2.0,-3.0,-2.0,0.0,-2.0,0.0,1.0,0.0,1650847687877344.0
1.0,0.0,-2.0,0.0,0.0,1.0,1.0,0.0,1650847687877344.0
-1.0,-1.0,-2.0,-1.0,-3.0,-3.0,0.0,1.0,1650847687900256.0
-1.0,1.0,-1.0,1.0,0.0,-1.0,2.0,0.0,1650847687900256.0
0.0,3.0,1.0,-2.0,1.0,0.0,0.0,1.0,1650847687901277.0
0.0,0.0,-1.0,1.0,1.0,2.0,-1.0,-1.0,1650847687901277.0
0.0,3.0,0.0,-1.0,-1.0,0.0,-3.0,0.0,1650847687922265.0
2.0,-2.0,-1.0,-1.0,-1.0,0.0,-1.0,0.0,1650847687922265.0
1.0,1.0,-2.0,-2.0,2.0,0.0,1.0,-2.0,1650847687923195.0
-2.0,0.0,2.0,0.0,-1.0,-1.0,-1.0,-1.0,1650847687923195.0
-1.0,1.0,0.0,2.0,0.0,0.0,0.0,-1.0,1650847687937224.0
0.0,0.0,1.0,1.0,1.0,1.0,0.0,-1.0,1650847687937224.0
0.0,1.0,0.0,-2.0,-2.0,-2.0,-1.0,1.0,1650847687937224.0
0.0,0.0,-2.0,-2.0,-1.0,-3.0,-1.0,1.0,1650847687937224.0
-1.0,0.0,0.0,0.0,-1.0,0.0,0.0,-1.0,1650847687960254.0
-1.0,-4.0,-2.0,0.0,0.0,0.0,0.0,1.0,1650847687960254.0
2.0,6.0,1.0,-1.0,2.0,2.0,-1.0,0.0,1650847687961265.0
-2.0,6.0,1.0,0.0,1.0,-2.0,-1.0,0.0,1650847687961265.0
0.0,-16.0,-8.0,-2.0,-1.0,0.0,1.0,0.0,1650847687982474.0
-1.0,-1.0,0.0,0.0,1.0,1.0,1.0,0.0,1650847687982474.0
0.0,0.0,-1.0,-2.0,0.0,-3.0,0.0,-2.0,1650847687983474.0
-1.0,-2.0,-1.0,2.0,-3.0,-1.0,-1.0,0.0,1650847687983474.0
0.0,2.0,0.0,-1.0,2.0,-1.0,-1.0,1.0,1650847687996505.0
-2.0,0.0,-3.0,0.0,-3.0,-2.0,-2.0,-1.0,1650847687996505.0
0.0,-2.0,1.0,2.0,-3.0,-1.0,0.0,-2.0,1650847687997441.0
2.0,6.0,5.0,3.0,4.0,1.0,-1.0,2.0,1650847687997441.0
-1.0,2.0,-2.0,-3.0,0.0,1.0,0.0,0.0,1650847688019838.0
-1.0,-2.0,-2.0,-3.0,-1.0,0.0,0.0,-1.0,1650847688019838.0
-2.0,-2.0,-1.0,-1.0,-1.0,0.0,-2.0,1.0,1650847688020843.0
0.0,2.0,-2.0,-3.0,-3.0,-3.0,0.0,-3.0,1650847688020843.0
-1.0,3.0,1.0,0.0,0.0,1.0,0.0,1.0,1650847688042945.0
-1.0,2.0,2.0,2.0,4.0,-1.0,-2.0,1.0,1650847688042945.0
0.0,0.0,-1.0,-2.0,-2.0,0.0,1.0,0.0,1650847688042945.0
1.0,-5.0,-1.0,0.0,-1.0,1.0,0.0,-1.0,1650847688042945.0
0.0,-1.0,-1.0,-2.0,-1.0,-2.0,1.0,0.0,1650847688057339.0
-1.0,2.0,-3.0,-1.0,-3.0,-3.0,0.0,-1.0,1650847688057339.0
1.0,0.0,1.0,4.0,2.0,2.0,-1.0,-1.0,1650847688057339.0
0.0,-4.0,-1.0,-1.0,0.0,2.0,1.0,1.0,1650847688057339.0
1.0,4.0,0.0,1.0,-2.0,-3.0,0.0,-1.0,1650847688080517.0
0.0,-1.0,0.0,0.0,2.0,1.0,-1.0,-1.0,1650847688080517.0
-3.0,-1.0,-1.0,-2.0,-1.0,2.0,-1.0,-2.0,1650847688080517.0
-1.0,-3.0,-1.0,-2.0,-1.0,-2.0,-1.0,-2.0,1650847688080517.0
-1.0,1.0,1.0,0.0,1.0,-1.0,-2.0,-1.0,1650847688102742.0
-1.0,1.0,1.0,-1.0,-3.0,-2.0,2.0,-1.0,1650847688102742.0
1.0,-2.0,-3.0,-2.0,0.0,-1.0,-1.0,0.0,1650847688103674.0
0.0,-4.0,-2.0,-1.0,-2.0,1.0,-2.0,-2.0,1650847688103674.0
-2.0,-2.0,0.0,0.0,-1.0,-1.0,0.0,-2.0,1650847688116652.0
1.0,-1.0,-1.0,2.0,2.0,1.0,-1.0,-1.0,1650847688116652.0
0.0,6.0,2.0,0.0,-2.0,-1.0,0.0,0.0,1650847688117637.0
0.0,-3.0,-3.0,-4.0,-1.0,-1.0,1.0,-1.0,1650847688117637.0
-2.0,2.0,2.0,1.0,1.0,-1.0,1.0,1.0,1650847688140364.0
-2.0,-2.0,-1.0,-1.0,-2.0,-1.0,-1.0,0.0,1650847688140364.0
-1.0,-2.0,0.0,0.0,1.0,0.0,-1.0,-2.0,1650847688140364.0
-2.0,-3.0,-1.0,1.0,-2.0,-3.0,-1.0,1.0,1650847688140364.0
2.0,1.0,-2.0,-2.0,2.0,3.0,0.0,0.0,1650847688162889.0
1.0,0.0,6.0,1.0,1.0,1.0,0.0,0.0,1650847688162889.0
-2.0,-4.0,-5.0,-5.0,-7.0,-3.0,-2.0,0.0,1650847688162889.0
0.0,0.0,-2.0,-3.0,-3.0,-3.0,-2.0,1.0,1650847688162889.0
0.0,-3.0,-2.0,0.0,0.0,-1.0,0.0,0.0,1650847688175853.0
0.0,0.0,-2.0,0.0,-2.0,-1.0,0.0,0.0,1650847688175853.0
-2.0,-3.0,2.0,2.0,4.0,0.0,1.0,0.0,1650847688184802.0
-1.0,1.0,-1.0,-2.0,-1.0,1.0,0.0,-3.0,1650847688184802.0
-4.0,-4.0,-1.0,-2.0,-2.0,-1.0,-3.0,0.0,1650847688199825.0
