EMG_s0,EMG_s1,EMG_s2,EMG_s3,EMG_s4,EMG_s5,EMG_s6,EMG_s7,timestamp
1.0,0.0,-5.0,0.0,2.0,-1.0,-1.0,-2.0,1650847880165112.0
3.0,2.0,1.0,1.0,1.0,-2.0,-1.0,1.0,1650847880165112.0
1.0,2.0,2.0,0.0,0.0,2.0,0.0,-1.0,1650847880166115.0
1.0,2.0,-2.0,-1.0,0.0,2.0,-2.0,-2.0,1650847880166115.0
1.0,0.0,6.0,0.0,-1.0,1.0,-1.0,1.0,1650847880170119.0
-1.0,-2.0,-1.0,-1.0,0.0,2.0,-1.0,-1.0,1650847880170119.0
-1.0,1.0,-1.0,-2.0,0.0,1.0,0.0,-1.0,1650847880171089.0
1.0,1.0,1.0,3.0,0.0,-3.0,-1.0,0.0,1650847880171089.0
0.0,-1.0,-3.0,-3.0,-3.0,-2.0,-1.0,-1.0,1650847880174105.0
-1.0,2.0,1.0,1.0,1.0,4.0,0.0,0.0,1650847880174105.0
2.0,-2.0,-1.0,-2.0,0.0,-1.0,-1.0,2.0,1650847880179068.0
-1.0,-2.0,-4.0,0.0,-1.0,-1.0,0.0,1.0,1650847880179068.0
-1.0,0.0,-9.0,-9.0,-2.0,2.0,-1.0,0.0,1650847880192061.0
1.0,0.0,6.0,2.0,-1.0,-2.0,0.0,-2.0,1650847880192061.0
-1.0,0.0,-5.0,-4.0,-3.0,-2.0,-1.0,1.0,1650847880201014.0
-1.0,-1.0,2.0,-2.0,-2.0,1.0,0.0,0.0,1650847880201014.0
2.0,0.0,3.0,4.0,1.0,0.0,-1.0,-1.0,1650847880206024.0
0.0,-4.0,-9.0,-1.0,1.0,0.0,-1.0,1.0,1650847880206024.0
1.0,1.0,-2.0,-2.0,1.0,0.0,-1.0,1.0,1650847880229942.0
-1.0,0.0,-2.0,-1.0,-4.0,-2.0,-1.0,-1.0,1650847880229942.0
1.0,2.0,0.0,2.0,-1.0,-1.0,1.0,2.0,1650847880230929.0
0.0,3.0,2.0,1.0,-1.0,1.0,2.0,0.0,1650847880230929.0
0.0,0.0,1.0,0.0,2.0,0.0,-1.0,-1.0,1650847880267831.0
1.0,1.0,0.0,-1.0,-1.0,-1.0,0.0,-4.0,1650847880267831.0
-1.0,-4.0,2.0,3.0,0.0,-3.0,-1.0,-1.0,1650847880268828.0
-2.0,-1.0,-6.0,-3.0,-3.0,1.0,-1.0,-1.0,1650847880268828.0
0.0,0.0,-3.0,-5.0,-4.0,-2.0,0.0,-2.0,1650847880269826.0
-1.0,-4.0,-4.0,1.0,-2.0,-4.0,-2.0,1.0,1650847880269826.0
0.0,1.0,1.0,1.0,2.0,0.0,-1.0,2.0,1650847880269826.0
-2.0,1.0,5.0,1.0,0.0,2.0,1.0,-2.0,1650847880269826.0
0.0,-1.0,-5.0,-1.0,-1.0,-2.0,-1.0,0.0,1650847880280796.0
0.0,0.0,1.0,-1.0,-1.0,1.0,1.0,0.0,1650847880280796.0
-1.0,2.0,0.0,-2.0,-2.0,1.0,1.0,-1.0,1650847880288774.0
-1.0,-1.0,-3.0,-3.0,-3.0,-1.0,-2.0,-1.0,1650847880288774.0
0.0,1.0,3.0,3.0,2.0,0.0,-2.0,0.0,1650847880297751.0
-2.0,0.0,-6.0,-2.0,0.0,0.0,-1.0,-1.0,1650847880297751.0
-3.0,-3.0,-3.0,-5.0,-1.0,-1.0,-2.0,-2.0,1650847880311780.0
0.0,0.0,-3.0,0.0,0.0,-4.0,-1.0,1.0,1650847880311780.0
-1.0,1.0,5.0,1.0,0.0,1.0,-1.0,0.0,1650847880318697.0
1.0,-3.0,-3.0,1.0,0.0,0.0,1.0,0.0,1650847880318697.0
1.0,-1.0,2.0,1.0,-2.0,-1.0,-1.0,-1.0,1650847880333792.0
-1.0,0.0,-4.0,-1.0,0.0,-2.0,0.0,-1.0,1650847880333792.0
-1.0,2.0,7.0,4.0,1.0,-2.0,0.0,0.0,1650847880342728.0
0.0,1.0,0.0,0.0,1.0,0.0,0.0,0.0,1650847880342728.0
-1.0,3.0,4.0,3.0,0.0,-1.0,-1.0,0.0,1650847880357689.0
-1.0,-1.0,-4.0,-6.0,-4.0,-4.0,1.0,-1.0,1650847880357689.0
0.0,-2.0,-5.0,0.0,1.0,1.0,0.0,-1.0,1650847880358686.0
0.0,1.0,1.0,-1.0,-1.0,0.0,-1.0,-1.0,1650847880358686.0
0.0,0.0,-2.0,-2.0,3.0,1.0,0.0,-2.0,1650847880379724.0
-1.0,-1.0,4.0,2.0,1.0,0.0,-2.0,0.0,1650847880379724.0
-2.0,-2.0,1.0,-1.0,-4.0,-2.0,-1.0,-1.0,1650847880381729.0
-1.0,0.0,0.0,-1.0,-5.0,-3.0,-1.0,0.0,1650847880381729.0
1.0,1.0,-4.0,-2.0,0.0,1.0,-1.0,-2.0,1650847880393737.0
0.0,-2.0,3.0,0.0,1.0,2.0,1.0,-1.0,1650847880393737.0
-2.0,-2.0,-3.0,0.0,3.0,1.0,0.0,1.0,1650847880402820.0
0.0,-1.0,2.0,1.0,0.0,1.0,-2.0,1.0,1650847880402820.0
-1.0,-1.0,-1.0,-5.0,-5.0,-2.0,-1.0,-2.0,1650847880417792.0
1.0,-2.0,-4.0,-2.0,0.0,-2.0,0.0,-1.0,1650847880417792.0
1.0,1.0,4.0,0.0,-3.0,-2.0,-2.0,-2.0,1650847880418778.0
-2.0,1.0,-2.0,2.0,1.0,-2.0,2.0,-1.0,1650847880418778.0
-1.0,0.0,-10.0,-9.0,-3.0,0.0,0.0,2.0,1650847880439889.0
1.0,0.0,5.0,8.0,3.0,2.0,1.0,0.0,1650847880439889.0
2.0,0.0,-9.0,-10.0,-7.0,-2.0,0.0,2.0,1650847880440915.0
1.0,-1.0,5.0,3.0,3.0,-2.0,-1.0,-1.0,1650847880440915.0
0.0,-2.0,0.0,1.0,1.0,0.0,-1.0,-2.0,1650847880462821.0
-1.0,0.0,0.0,0.0,0.0,1.0,0.0,1.0,1650847880462821.0
-3.0,-2.0,1.0,3.0,1.0,-2.0,-1.0,0.0,1650847880463832.0
-1.0,0.0,-4.0,-6.0,-6.0,-1.0,0.0,0.0,1650847880463832.0
0.0,-1.0,1.0,1.0,2.0,-1.0,1.0,1.0,1650847880477728.0
1.0,1.0,-1.0,-1.0,1.0,0.0,0.0,0.0,1650847880477728.0
1.0,-2.0,-4.0,-2.0,-2.0,-1.0,1.0,0.0,1650847880478728.0
1.0,0.0,0.0,-3.0,0.0,-1.0,-1.0,-2.0,1650847880478728.0
-2.0,-1.0,-2.0,1.0,-1.0,0.0,-1.0,0.0,1650847880499743.0
1.0,0.0,0.0,0.0,0.0,-3.0,-2.0,0.0,1650847880499743.0
-2.0,-1.0,-2.0,-3.0,-2.0,0.0,0.0,1.0,1650847880501693.0
-2.0,-2.0,1.0,2.0,1.0,1.0,-2.0,-3.0,1650847880501693.0
1.0,0.0,-1.0,-2.0,-1.0,-1.0,-1.0,0.0,1650847880529627.0
-1.0,0.0,6.0,4.0,-1.0,0.0,-1.0,0.0,1650847880529627.0
1.0,0.0,-6.0,0.0,0.0,1.0,0.0,-1.0,1650847880531617.0
-1.0,-3.0,-1.0,-2.0,0.0,-2.0,-1.0,0.0,1650847880531617.0
1.0,-3.0,-1.0,2.0,-1.0,2.0,1.0,-1.0,1650847880537570.0
-2.0,-2.0,-2.0,-2.0,-2.0,-1.0,-2.0,-3.0,1650847880537570.0
0.0,1.0,7.0,7.0,2.0,1.0,0.0,0.0,1650847880538571.0
0.0,0.0,-5.0,-5.0,-1.0,1.0,0.0,0.0,1650847880538571.0
1.0,-3.0,0.0,1.0,1.0,1.0,-2.0,-1.0,1650847880558749.0
-1.0,-1.0,-1.0,-3.0,-1.0,-3.0,-1.0,0.0,1650847880558749.0
1.0,-2.0,1.0,-2.0,-1.0,0.0,-1.0,-1.0,1650847880567694.0
0.0,1.0,-2.0,1.0,1.0,-1.0,0.0,1.0,1650847880567694.0
-1.0,2.0,2.0,-3.0,-3.0,-3.0,0.0,3.0,1650847880581896.0
0.0,0.0,2.0,-1.0,-1.0,0.0,-1.0,-1.0,1650847880581896.0
0.0,-2.0,0.0,-1.0,1.0,0.0,0.0,-1.0,1650847880583826.0
1.0,2.0,1.0,0.0,0.0,0.0,0.0,-2.0,1650847880583826.0
0.0,-2.0,-1.0,0.0,0.0,-1.0,-2.0,-2.0,1650847880596792.0
-1.0,-4.0,-5.0,-1.0,-1.0,1.0,-1.0,-1.0,1650847880596792.0
-2.0,3.0,3.0,-3.0,0.0,-1.0,0.0,1.0,1650847880604766.0
-2.0,-3.0,3.0,3.0,0.0,0.0,-1.0,-2.0,1650847880604766.0
-2.0,-2.0,-1.0,1.0,0.0,-1.0,-2.0,0.0,1650847880619893.0
1.0,0.0,-3.0,-3.0,-2.0,-2.0,0.0,-1.0,1650847880619893.0
0.0,-2.0,-1.0,-1.0,1.0,0.0,0.0,-3.0,1650847880621619.0
-1.0,-1.0,-3.0,-4.0,-5.0,0.0,2.0,0.0,1650847880621619.0
0.0,0.0,-4.0,1.0,2.0,-1.0,-1.0,0.0,1650847880641922.0
-1.0,-2.0,0.0,-2.0,0.0,1.0,-2.0,-2.0,1650847880641922.0
-1.0,0.0,4.0,2.0,0.0,-2.0,-2.0,-1.0,1650847880643850.0
1.0,2.0,2.0,4.0,0.0,-2.0,-2.0,-1.0,1650847880643850.0
-2.0,-2.0,-4.0,-5.0,-2.0,0.0,0.0,-1.0,1650847880656815.0
-1.0,3.0,1.0,2.0,-1.0,0.0,0.0,0.0,1650847880656815.0
2.0,0.0,0.0,0.0,-1.0,0.0,-1.0,-2.0,1650847880663761.0
-2.0,-1.0,-7.0,-4.0,-7.0,-2.0,0.0,-1.0,1650847880663761.0
0.0,0.0,2.0,0.0,1.0,0.0,1.0,1.0,1650847880679818.0
-1.0,0.0,0.0,1.0,3.0,-1.0,-1.0,-1.0,1650847880679818.0
-2.0,0.0,0.0,-1.0,-2.0,-2.0,0.0,1.0,1650847880680839.0
1.0,-1.0,3.0,-1.0,-1.0,-1.0,-2.0,0.0,1650847880680839.0
0.0,1.0,-2.0,1.0,-1.0,-1.0,1.0,1.0,1650847880702775.0
-2.0,1.0,0.0,-2.0,-3.0,1.0,0.0,-1.0,1650847880702775.0
1.0,-1.0,-4.0,0.0,1.0,0.0,1.0,0.0,1650847880703774.0
-2.0,-3.0,0.0,-1.0,3.0,0.0,-1.0,0.0,1650847880703774.0
-1.0,-3.0,5.0,2.0,0.0,-1.0,-1.0,-1.0,1650847880716787.0
0.0,-1.0,-2.0,-7.0,-6.0,-1.0,-1.0,0.0,1650847880716787.0
-1.0,-1.0,-1.0,0.0,1.0,1.0,0.0,-2.0,1650847880723768.0
-1.0,0.0,0.0,1.0,0.0,0.0,0.0,-1.0,1650847880723768.0
0.0,2.0,-1.0,0.0,0.0,0.0,0.0,-2.0,1650847880739726.0
0.0,-2.0,-4.0,-1.0,-2.0,-3.0,1.0,0.0,1650847880739726.0
-1.0,-3.0,-3.0,0.0,-3.0,0.0,-1.0,-1.0,1650847880741655.0
0.0,-1.0,-1.0,1.0,1.0,-3.0,-1.0,0.0,1650847880741655.0
-2.0,2.0,1.0,-1.0,-1.0,0.0,0.0,-1.0,1650847880762693.0
0.0,1.0,2.0,0.0,1.0,2.0,0.0,0.0,1650847880762693.0
-1.0,-1.0,-3.0,-5.0,-1.0,-2.0,-4.0,-2.0,1650847880763597.0
0.0,-3.0,-2.0,1.0,0.0,-1.0,-1.0,-1.0,1650847880763597.0
-2.0,0.0,0.0,-3.0,-5.0,-1.0,0.0,-2.0,1650847880776627.0
0.0,0.0,0.0,1.0,1.0,1.0,1.0,0.0,1650847880776627.0
-1.0,2.0,4.0,-1.0,1.0,0.0,1.0,0.0,1650847880783609.0
0.0,1.0,0.0,4.0,-1.0,0.0,-1.0,-1.0,1650847880783609.0
-1.0,-4.0,-8.0,-6.0,-2.0,0.0,2.0,0.0,1650847880799566.0
-2.0,-3.0,-1.0,-1.0,-2.0,0.0,0.0,0.0,1650847880799566.0
0.0,-2.0,0.0,2.0,-2.0,-2.0,-2.0,0.0,1650847880801495.0
1.0,0.0,-1.0,-2.0,0.0,1.0,0.0,-1.0,1650847880801495.0
1.0,0.0,4.0,3.0,1.0,0.0,-2.0,0.0,1650847880822625.0
0.0,-3.0,-6.0,-3.0,1.0,0.0,0.0,-3.0,1650847880822625.0
0.0,2.0,0.0,0.0,-3.0,-1.0,1.0,0.0,1650847880823555.0
-3.0,-1.0,1.0,-1.0,-1.0,2.0,-1.0,1.0,1650847880823555.0
-1.0,0.0,0.0,0.0,1.0,0.0,-1.0,0.0,1650847880836587.0
-1.0,-2.0,-5.0,-1.0,2.0,0.0,0.0,0.0,1650847880836587.0
0.0,-1.0,0.0,1.0,-1.0,0.0,-1.0,-1.0,1650847880843506.0
-1.0,-1.0,1.0,-3.0,0.0,0.0,-1.0,0.0,1650847880843506.0
-1.0,1.0,0.0,-2.0,0.0,1.0,-1.0,-1.0,1650847880867627.0
-2.0,2.0,2.0,2.0,1.0,0.0,-2.0,-2.0,1650847880867627.0
-1.0,-1.0,-3.0,0.0,0.0,0.0,2.0,-1.0,1650847880868559.0
-1.0,1.0,-1.0,1.0,0.0,-2.0,1.0,-1.0,1650847880868559.0
1.0,-3.0,2.0,3.0,-1.0,-1.0,1.0,0.0,1650847880882688.0
1.0,-1.0,-3.0,-3.0,-1.0,-1.0,-2.0,0.0,1650847880882688.0
-1.0,-1.0,0.0,-3.0,-1.0,-1.0,-2.0,1.0,1650847880883695.0
-1.0,-1.0,0.0,0.0,0.0,3.0,-1.0,1.0,1650847880883695.0
2.0,1.0,1.0,3.0,2.0,1.0,1.0,-2.0,1650847880896718.0
-1.0,-2.0,0.0,2.0,-2.0,-3.0,-1.0,0.0,1650847880896718.0
-1.0,0.0,-6.0,-9.0,-2.0,1.0,1.0,0.0,1650847880903635.0
-1.0,0.0,0.0,-1.0,-2.0,-1.0,0.0,1.0,1650847880903635.0
-2.0,-2.0,-1.0,0.0,0.0,0.0,-1.0,-1.0,1650847880919825.0
-1.0,3.0,5.0,5.0,2.0,-1.0,0.0,1.0,1650847880919825.0
-2.0,-2.0,-4.0,-3.0,-1.0,-1.0,-2.0,-1.0,1650847880921462.0
3.0,1.0,-3.0,-4.0,-2.0,-3.0,-1.0,0.0,1650847880921462.0
-1.0,0.0,4.0,4.0,1.0,-1.0,1.0,-2.0,1650847880941892.0
2.0,3.0,0.0,-1.0,-1.0,1.0,2.0,0.0,1650847880941892.0
-1.0,-2.0,-1.0,2.0,0.0,-1.0,-1.0,0.0,1650847880943819.0
0.0,-2.0,-2.0,-4.0,-4.0,1.0,0.0,-1.0,1650847880943819.0
-1.0,0.0,2.0,1.0,-2.0,-1.0,-1.0,0.0,1650847880955854.0
0.0,0.0,-1.0,-1.0,1.0,1.0,0.0,1.0,1650847880955854.0
-1.0,-2.0,-6.0,-4.0,-1.0,-1.0,-1.0,0.0,1650847880972738.0
-2.0,-1.0,0.0,1.0,3.0,-1.0,-3.0,-1.0,1650847880972738.0
0.0,0.0,0.0,-3.0,-3.0,-1.0,-3.0,-3.0,1650847880987758.0
-3.0,-1.0,1.0,1.0,0.0,-1.0,0.0,-3.0,1650847880987758.0
3.0,-1.0,2.0,4.0,2.0,2.0,1.0,-2.0,1650847880988751.0
-1.0,-3.0,-3.0,-5.0,-1.0,0.0,2.0,0.0,1650847880988751.0
0.0,-2.0,0.0,-1.0,-2.0,-2.0,-1.0,-1.0,1650847881002718.0
0.0,-1.0,0.0,-1.0,-2.0,-1.0,-1.0,1.0,1650847881002718.0
-1.0,1.0,2.0,1.0,-2.0,1.0,-1.0,-2.0,1650847881003707.0
-1.0,0.0,-1.0,0.0,2.0,0.0,0.0,-1.0,1650847881003707.0
0.0,0.0,-3.0,0.0,3.0,0.0,-1.0,0.0,1650847881015743.0
0.0,-1.0,-1.0,-4.0,-2.0,-2.0,-2.0,-1.0,1650847881015743.0
-1.0,-1.0,6.0,2.0,0.0,0.0,1.0,1.0,1650847881024651.0
0.0,3.0,-5.0,-1.0,1.0,0.0,0.0,1.0,1650847881024651.0
-2.0,-2.0,-4.0,-3.0,-2.0,-3.0,0.0,0.0,1650847881039759.0
1.0,1.0,-1.0,-2.0,0.0,1.0,1.0,1.0,1650847881039759.0
0.0,0.0,-2.0,1.0,1.0,0.0,-3.0,-2.0,1650847881041756.0
-1.0,-2.0,-1.0,-1.0,-3.0,-1.0,-1.0,-2.0,1650847881041756.0
0.0,1.0,0.0,0.0,0.0,0.0,0.0,0.0,1650847881062727.0
-2.0,-3.0,-1.0,-2.0,1.0,-1.0,0.0,0.0,1650847881062727.0
0.0,0.0,-1.0,2.0,1.0,0.0,0.0,0.0,1650847881063703.0
1.0,-1.0,4.0,-2.0,-3.0,-2.0,1.0,0.0,1650847881063703.0
1.0,-2.0,-3.0,0.0,-1.0,0.0,0.0,-1.0,1650847881075731.0
1.0,2.0,0.0,1.0,1.0,1.0,-1.0,0.0,1650847881075731.0
-1.0,0.0,-3.0,-3.0,1.0,-2.0,-1.0,-1.0,1650847881084642.0
-1.0,1.0,0.0,5.0,2.0,-1.0,-2.0,0.0,1650847881084642.0
0.0,0.0,3.0,0.0,-2.0,-2.0,-2.0,1.0,1650847881099750.0
-1.0,-1.0,-4.0,-4.0,-3.0,-3.0,-1.0,-2.0,1650847881099750.0
0.0,-2.0,0.0,0.0,1.0,-1.0,0.0,-1.0,1650847881101760.0
-1.0,-2.0,-2.0,-2.0,0.0,-1.0,-1.0,-2.0,1650847881101760.0
-2.0,-2.0,-5.0,-5.0,-2.0,0.0,-1.0,-1.0,1650847881122718.0
0.0,0.0,3.0,2.0,0.0,-1.0,-1.0,-2.0,1650847881122718.0
-1.0,-1.0,-1.0,0.0,-1.0,0.0,0.0,1.0,1650847881123701.0
0.0,0.0,-1.0,-1.0,1.0,-1.0,-1.0,-2.0,1650847881123701.0
1.0,1.0,2.0,1.0,-2.0,-1.0,-1.0,-2.0,1650847881135722.0
-3.0,-5.0,-2.0,-2.0,-1.0,0.0,0.0,-2.0,1650847881135722.0
3.0,-2.0,-2.0,1.0,0.0,0.0,0.0,0.0,1650847881144632.0
-2.0,-1.0,1.0,0.0,-1.0,1.0,0.0,2.0,1650847881144632.0
0.0,1.0,1.0,0.0,-1.0,0.0,1.0,1.0,1650847881159657.0
0.0,-1.0,-3.0,-1.0,-3.0,0.0,-1.0,0.0,1650847881159657.0
1.0,1.0,-1.0,-2.0,-2.0,0.0,-1.0,-2.0,1650847881161613.0
0.0,0.0,-1.0,0.0,-1.0,3.0,1.0,-3.0,1650847881161613.0
0.0,2.0,3.0,5.0,3.0,4.0,0.0,0.0,1650847881182801.0
-1.0,1.0,3.0,1.0,0.0,1.0,-1.0,-1.0,1650847881182801.0
-2.0,1.0,-3.0,-6.0,-3.0,-1.0,0.0,0.0,1650847881183798.0
-2.0,0.0,2.0,3.0,0.0,-2.0,-1.0,0.0,1650847881183798.0
-1.0,-1.0,-1.0,-3.0,-3.0,-1.0,1.0,-2.0,1650847881195833.0
0.0,1.0,-2.0,2.0,1.0,-1.0,-2.0,-1.0,1650847881195833.0
0.0,2.0,7.0,3.0,0.0,1.0,-1.0,0.0,1650847881204742.0
1.0,-2.0,-3.0,0.0,1.0,-1.0,0.0,1.0,1650847881204742.0
-1.0,-3.0,-3.0,-4.0,-1.0,-1.0,-1.0,0.0,1650847881219870.0
-1.0,-3.0,-1.0,1.0,0.0,-3.0,-3.0,-1.0,1650847881219870.0
-1.0,1.0,0.0,3.0,-1.0,-2.0,-2.0,-1.0,1650847881221829.0
-1.0,1.0,-4.0,-7.0,-1.0,-1.0,0.0,-1.0,1650847881221829.0
-1.0,-2.0,-3.0,-1.0,0.0,0.0,-2.0,0.0,1650847881241834.0
-1.0,0.0,-1.0,-3.0,0.0,-1.0,1.0,-1.0,1650847881241834.0
0.0,-1.0,-1.0,1.0,1.0,-2.0,0.0,0.0,1650847881248751.0
-2.0,-1.0,4.0,3.0,2.0,0.0,-1.0,-1.0,1650847881248751.0
-2.0,-2.0,-7.0,-4.0,-3.0,-3.0,-2.0,-1.0,1650847881264707.0
0.0,2.0,1.0,-1.0,-4.0,-1.0,-1.0,-1.0,1650847881264707.0
-1.0,0.0,-2.0,1.0,0.0,0.0,1.0,1.0,1650847881266702.0
0.0,-1.0,1.0,2.0,3.0,2.0,-1.0,0.0,1650847881266702.0
-1.0,0.0,-3.0,-2.0,-1.0,-1.0,-1.0,-1.0,1650847881287715.0
0.0,-2.0,1.0,2.0,1.0,0.0,-2.0,-1.0,1650847881287715.0
1.0,-1.0,-1.0,-3.0,-3.0,1.0,-1.0,0.0,1650847881288724.0
0.0,-2.0,-7.0,0.0,1.0,-2.0,0.0,-1.0,1650847881288724.0
0.0,2.0,4.0,-1.0,2.0,-1.0,-2.0,0.0,1650847881300786.0
-2.0,-3.0,-5.0,-1.0,-1.0,0.0,0.0,0.0,1650847881300786.0
-3.0,-2.0,-2.0,-3.0,-2.0,-1.0,-2.0,-1.0,1650847881309736.0
0.0,1.0,5.0,1.0,-1.0,-1.0,1.0,2.0,1650847881309736.0
0.0,-2.0,-1.0,4.0,1.0,0.0,0.0,0.0,1650847881323850.0
0.0,-1.0,-5.0,-6.0,-3.0,0.0,1.0,1.0,1650847881323850.0
-1.0,-3.0,-3.0,0.0,-1.0,-1.0,-2.0,-2.0,1650847881332758.0
1.0,2.0,3.0,2.0,0.0,-1.0,0.0,-2.0,1650847881332758.0
-2.0,0.0,0.0,-2.0,0.0,0.0,2.0,0.0,1650847881347709.0
1.0,0.0,3.0,2.0,0.0,1.0,-1.0,0.0,1650847881347709.0
-1.0,-3.0,-4.0,-2.0,0.0,-1.0,-2.0,-1.0,1650847881349705.0
0.0,-2.0,-2.0,-4.0,-4.0,-2.0,0.0,-1.0,1650847881349705.0
-1.0,-1.0,-1.0,2.0,0.0,0.0,1.0,-2.0,1650847881362051.0
0.0,0.0,0.0,1.0,0.0,-1.0,-1.0,-1.0,1650847881362051.0
-1.0,-2.0,-2.0,-1.0,-1.0,-1.0,-1.0,0.0,1650847881368817.0
-2.0,-1.0,-2.0,-2.0,-2.0,0.0,-1.0,1.0,1650847881368817.0
-1.0,0.0,6.0,5.0,0.0,0.0,-2.0,-2.0,1650847881385083.0
1.0,-1.0,-13.0,-15.0,-3.0,0.0,0.0,1.0,1650847881385083.0
1.0,1.0,7.0,3.0,4.0,2.0,-1.0,-2.0,1650847881386012.0
2.0,0.0,-2.0,-1.0,0.0,-1.0,0.0,0.0,1650847881386012.0
1.0,-1.0,-1.0,-4.0,-5.0,-2.0,-1.0,0.0,1650847881407067.0
-1.0,1.0,4.0,7.0,0.0,-2.0,0.0,0.0,1650847881407067.0
-1.0,1.0,-2.0,-4.0,-2.0,1.0,2.0,1.0,1650847881409091.0
-1.0,0.0,1.0,-1.0,1.0,1.0,-1.0,-2.0,1650847881409091.0
-1.0,-1.0,1.0,-1.0,0.0,-1.0,-1.0,-2.0,1650847881422016.0
0.0,-1.0,1.0,3.0,1.0,0.0,0.0,-1.0,1650847881422016.0
-1.0,-4.0,-5.0,-5.0,-1.0,-2.0,-1.0,0.0,1650847881428059.0
1.0,2.0,4.0,3.0,0.0,-2.0,0.0,2.0,1650847881428059.0
1.0,0.0,-6.0,-2.0,-1.0,1.0,1.0,1.0,1650847881445017.0
0.0,1.0,2.0,-6.0,-2.0,-2.0,-1.0,-1.0,1650847881445017.0
-1.0,0.0,-2.0,1.0,2.0,0.0,-1.0,-2.0,1650847881445983.0
1.0,0.0,-1.0,-1.0,-1.0,-1.0,0.0,-1.0,1650847881445983.0
0.0,1.0,1.0,-2.0,1.0,0.0,-1.0,0.0,1650847881467725.0
-3.0,-4.0,0.0,0.0,2.0,-1.0,-1.0,0.0,1650847881467725.0
0.0,1.0,3.0,1.0,-1.0,-2.0,-1.0,-1.0,1650847881468738.0
-2.0,-1.0,0.0,1.0,-1.0,0.0,-2.0,0.0,1650847881468738.0
1.0,-2.0,-6.0,-4.0,-1.0,-2.0,-1.0,-1.0,1650847881480759.0
1.0,-2.0,2.0,2.0,-1.0,-2.0,-2.0,-3.0,1650847881480759.0
0.0,-1.0,-1.0,-1.0,0.0,0.0,1.0,1.0,1650847881489688.0
2.0,0.0,1.0,3.0,-1.0,1.0,1.0,0.0,1650847881489688.0
-1.0,0.0,2.0,0.0,-2.0,-2.0,-1.0,0.0,1650847881504776.0
-1.0,-2.0,-4.0,0.0,-1.0,0.0,-1.0,-1.0,1650847881504776.0
1.0,-1.0,-3.0,-1.0,-1.0,-3.0,-2.0,-2.0,1650847881506777.0
0.0,-3.0,-2.0,-2.0,-4.0,0.0,-1.0,-1.0,1650847881506777.0
0.0,1.0,1.0,1.0,2.0,1.0,0.0,0.0,1650847881526856.0
-1.0,0.0,3.0,1.0,1.0,0.0,-1.0,2.0,1650847881526856.0
-3.0,0.0,-1.0,0.0,-1.0,-2.0,1.0,-1.0,1650847881528781.0
-2.0,-1.0,-2.0,-2.0,1.0,1.0,-2.0,-2.0,1650847881528781.0
0.0,-2.0,-3.0,-3.0,-1.0,0.0,-1.0,0.0,1650847881540816.0
-3.0,0.0,-4.0,1.0,1.0,1.0,0.0,-2.0,1650847881540816.0
2.0,-1.0,2.0,2.0,-1.0,0.0,1.0,0.0,1650847881549725.0
1.0,2.0,-4.0,-4.0,-1.0,-2.0,0.0,1.0,1650847881549725.0
-2.0,-2.0,-1.0,-2.0,-1.0,-1.0,0.0,-1.0,1650847881564832.0
1.0,0.0,2.0,1.0,-1.0,0.0,-1.0,0.0,1650847881564832.0
-1.0,-1.0,1.0,1.0,2.0,-2.0,-1.0,-1.0,1650847881566796.0
0.0,0.0,0.0,1.0,0.0,0.0,0.0,-1.0,1650847881566796.0
0.0,-1.0,1.0,0.0,-2.0,-1.0,2.0,-1.0,1650847881586886.0
-2.0,0.0,0.0,-2.0,-1.0,-2.0,-2.0,0.0,1650847881586886.0
0.0,0.0,2.0,-1.0,0.0,0.0,-2.0,-1.0,1650847881588865.0
0.0,-2.0,1.0,1.0,1.0,2.0,1.0,-1.0,1650847881588865.0
0.0,0.0,-4.0,-1.0,-1.0,1.0,-1.0,-1.0,1650847881600886.0
0.0,-1.0,3.0,0.0,-1.0,-1.0,-2.0,-1.0,1650847881600886.0
-2.0,0.0,-3.0,2.0,-1.0,-1.0,0.0,1.0,1650847881609795.0
-1.0,-1.0,0.0,-2.0,-3.0,-2.0,-2.0,-1.0,1650847881609795.0
-2.0,-3.0,-4.0,-6.0,-3.0,1.0,0.0,0.0,1650847881624800.0
1.0,1.0,2.0,0.0,-1.0,0.0,0.0,0.0,1650847881624800.0
0.0,2.0,3.0,2.0,1.0,0.0,1.0,-3.0,1650847881626798.0
0.0,-1.0,-2.0,-3.0,-2.0,-2.0,1.0,2.0,1650847881626798.0
1.0,1.0,1.0,3.0,-1.0,-1.0,-1.0,-2.0,1650847881646865.0
-1.0,-1.0,-2.0,1.0,-1.0,-4.0,0.0,-1.0,1650847881646865.0
-1.0,0.0,-1.0,0.0,1.0,2.0,-1.0,-1.0,1650847881648794.0
-1.0,-1.0,-1.0,-1.0,1.0,0.0,-3.0,0.0,1650847881648794.0
0.0,1.0,-2.0,0.0,-1.0,0.0,-2.0,-1.0,1650847881660829.0
2.0,-2.0,-2.0,1.0,1.0,0.0,0.0,-2.0,1650847881660829.0
-1.0,-2.0,-6.0,-6.0,-2.0,-2.0,-2.0,1.0,1650847881670021.0
0.0,1.0,10.0,6.0,1.0,-1.0,0.0,-2.0,1650847881670021.0
-1.0,-1.0,-5.0,-5.0,-2.0,0.0,-1.0,-1.0,1650847881684133.0
0.0,0.0,-1.0,-1.0,-2.0,-2.0,-1.0,-2.0,1650847881684133.0
-2.0,-1.0,-3.0,0.0,-2.0,-1.0,-1.0,-1.0,1650847881691116.0
0.0,-2.0,0.0,2.0,-1.0,0.0,-1.0,0.0,1650847881691116.0
-2.0,-1.0,5.0,5.0,5.0,0.0,-1.0,1.0,1650847881707115.0
1.0,1.0,-2.0,-1.0,-3.0,0.0,0.0,-1.0,1650847881707115.0
-1.0,-2.0,-1.0,-3.0,-4.0,1.0,0.0,-1.0,1650847881709130.0
-1.0,0.0,-2.0,-3.0,-2.0,-1.0,0.0,-3.0,1650847881709130.0
0.0,-1.0,2.0,2.0,-2.0,-2.0,0.0,1.0,1650847881721071.0
-2.0,-1.0,0.0,-2.0,2.0,1.0,0.0,1.0,1650847881721071.0
-1.0,0.0,-4.0,-2.0,-3.0,-1.0,-1.0,-1.0,1650847881730310.0
0.0,-1.0,1.0,1.0,1.0,0.0,0.0,-2.0,1650847881730310.0
-1.0,1.0,-2.0,-2.0,-1.0,-3.0,0.0,0.0,1650847881744560.0
-2.0,-1.0,4.0,1.0,-1.0,0.0,0.0,0.0,1650847881744560.0
2.0,2.0,0.0,3.0,0.0,0.0,-1.0,0.0,1650847881746490.0
-1.0,-1.0,-8.0,-3.0,-3.0,-3.0,0.0,-1.0,1650847881746490.0
-1.0,-3.0,-6.0,-7.0,0.0,1.0,1.0,-4.0,1650847881767499.0
-1.0,0.0,1.0,2.0,0.0,-2.0,-1.0,-2.0,1650847881767499.0
0.0,-2.0,6.0,3.0,1.0,-1.0,0.0,-1.0,1650847881768431.0
-1.0,-1.0,-2.0,-2.0,0.0,-1.0,-1.0,0.0,1650847881768431.0
-1.0,0.0,3.0,4.0,-3.0,1.0,0.0,1.0,1650847881781395.0
1.0,-1.0,-2.0,-3.0,0.0,0.0,-2.0,-1.0,1650847881781395.0
-1.0,-2.0,-5.0,-4.0,-2.0,-2.0,0.0,-1.0,1650847881789440.0
-1.0,0.0,-2.0,-1.0,-1.0,1.0,-1.0,-1.0,1650847881789440.0
-1.0,0.0,2.0,1.0,0.0,-4.0,0.0,-1.0,1650847881805515.0
0.0,-1.0,-2.0,-1.0,0.0,0.0,0.0,1.0,1650847881805515.0
-2.0,1.0,-2.0,-1.0,0.0,-1.0,-1.0,-1.0,1650847881806508.0
0.0,-2.0,-2.0,-1.0,-1.0,0.0,-1.0,0.0,1650847881806508.0
0.0,1.0,1.0,3.0,1.0,-1.0,0.0,1.0,1650847881827616.0
-1.0,1.0,-1.0,-2.0,-1.0,-1.0,0.0,-1.0,1650847881827616.0
1.0,-1.0,-1.0,-2.0,1.0,-2.0,-2.0,0.0,1650847881828560.0
-1.0,1.0,0.0,-1.0,-3.0,-3.0,1.0,0.0,1650847881828560.0
0.0,-2.0,1.0,3.0,1.0,0.0,-1.0,0.0,1650847881840582.0
0.0,-1.0,2.0,5.0,2.0,1.0,0.0,-1.0,1650847881840582.0
0.0,-2.0,-8.0,-10.0,-3.0,-1.0,1.0,2.0,1650847881849504.0
-1.0,1.0,3.0,3.0,0.0,-1.0,0.0,-1.0,1650847881849504.0
-1.0,-1.0,-3.0,-2.0,-1.0,-1.0,-2.0,-1.0,1650847881864613.0
1.0,0.0,-1.0,-1.0,0.0,-2.0,1.0,0.0,1650847881864613.0
-1.0,-1.0,2.0,1.0,-2.0,0.0,0.0,-1.0,1650847881866571.0
-1.0,0.0,-1.0,-2.0,0.0,-1.0,-1.0,-1.0,1650847881866571.0
-1.0,0.0,3.0,2.0,0.0,-1.0,0.0,-2.0,1650847881886808.0
1.0,1.0,-4.0,-2.0,1.0,0.0,-2.0,1.0,1650847881886808.0
-2.0,1.0,-1.0,-1.0,0.0,-1.0,-1.0,-1.0,1650847881888737.0
0.0,0.0,-2.0,-2.0,-2.0,-2.0,0.0,1.0,1650847881888737.0
-1.0,-2.0,0.0,-2.0,-2.0,-2.0,-1.0,0.0,1650847881909864.0
-3.0,-2.0,-2.0,0.0,-1.0,2.0,0.0,2.0,1650847881909864.0
-1.0,2.0,2.0,2.0,0.0,0.0,1.0,2.0,1650847881910892.0
0.0,0.0,-3.0,0.0,-1.0,-2.0,-1.0,-1.0,1650847881910892.0
0.0,-1.0,-1.0,0.0,-1.0,1.0,-2.0,1.0,1650847881924893.0
0.0,1.0,-2.0,-2.0,-1.0,0.0,1.0,0.0,1650847881924893.0
0.0,-2.0,-3.0,1.0,0.0,0.0,-1.0,-3.0,1650847881926824.0
0.0,3.0,2.0,-2.0,2.0,-1.0,0.0,0.0,1650847881926824.0
2.0,1.0,0.0,-1.0,-1.0,-2.0,0.0,0.0,1650847881946878.0
1.0,0.0,-2.0,-3.0,-3.0,-1.0,-2.0,-2.0,1650847881946878.0
1.0,-1.0,0.0,3.0,0.0,-1.0,0.0,-2.0,1650847881948876.0
-1.0,-2.0,3.0,0.0,-1.0,-1.0,-1.0,-1.0,1650847881948876.0
-3.0,-2.0,-7.0,-2.0,-2.0,-2.0,2.0,-2.0,1650847881970028.0
0.0,0.0,1.0,2.0,0.0,-2.0,1.0,-1.0,1650847881970028.0
0.0,-1.0,-2.0,-2.0,-1.0,1.0,-1.0,-1.0,1650847881970960.0
0.0,0.0,-2.0,1.0,0.0,0.0,0.0,2.0,1650847881970960.0
-1.0,-1.0,2.0,3.0,1.0,1.0,0.0,0.0,1650847881985920.0
1.0,1.0,-5.0,-4.0,-5.0,-1.0,1.0,-2.0,1650847881985920.0
-1.0,-1.0,1.0,2.0,-1.0,0.0,-1.0,-1.0,1650847881986917.0
0.0,-1.0,-6.0,-1.0,3.0,0.0,0.0,0.0,1650847881986917.0
-1.0,2.0,3.0,0.0,0.0,-1.0,-2.0,0.0,1650847882007035.0
-3.0,-2.0,-2.0,-2.0,-1.0,1.0,-1.0,0.0,1650847882007035.0
-1.0,-1.0,2.0,-1.0,-1.0,0.0,0.0,1.0,1650847882008962.0
0.0,-2.0,2.0,2.0,0.0,-1.0,-1.0,-2.0,1650847882008962.0
0.0,-2.0,1.0,1.0,2.0,2.0,1.0,-1.0,1650847882029842.0
1.0,-1.0,2.0,-1.0,0.0,-2.0,-1.0,-1.0,1650847882029842.0
-2.0,-3.0,-5.0,-4.0,-2.0,-2.0,-2.0,-1.0,1650847882030869.0
-2.0,1.0,6.0,3.0,-1.0,1.0,-1.0,-1.0,1650847882030869.0
-1.0,0.0,-3.0,-3.0,0.0,0.0,0.0,-2.0,1650847882043873.0
0.0,-2.0,-9.0,-7.0,-1.0,-1.0,-2.0,-1.0,1650847882043873.0
-1.0,2.0,1.0,2.0,0.0,0.0,1.0,1.0,1650847882050855.0
2.0,0.0,-2.0,-1.0,-2.0,0.0,-1.0,-3.0,1650847882050855.0
-1.0,1.0,2.0,2.0,-3.0,-1.0,-3.0,0.0,1650847882067699.0
-1.0,1.0,0.0,3.0,1.0,0.0,-1.0,1.0,1650847882067699.0
0.0,-1.0,-4.0,-5.0,-2.0,-1.0,-1.0,-2.0,1650847882068699.0
-2.0,-3.0,-2.0,-2.0,-1.0,1.0,0.0,0.0,1650847882068699.0
-1.0,-1.0,-4.0,-5.0,-3.0,-2.0,0.0,-1.0,1650847882089713.0
2.0,2.0,6.0,3.0,1.0,-1.0,0.0,-1.0,1650847882089713.0
0.0,0.0,-3.0,-5.0,-2.0,-1.0,-1.0,-1.0,1650847882091667.0
-2.0,-2.0,-2.0,3.0,4.0,0.0,-1.0,0.0,1650847882091667.0
1.0,0.0,-12.0,-13.0,-4.0,-1.0,-1.0,1.0,1650847882103686.0
-1.0,-2.0,1.0,2.0,0.0,0.0,0.0,0.0,1650847882103686.0
0.0,1.0,3.0,4.0,2.0,1.0,1.0,2.0,1650847882110738.0
0.0,-2.0,0.0,-1.0,-2.0,-1.0,-2.0,0.0,1650847882110738.0
0.0,1.0,3.0,0.0,0.0,1.0,-1.0,-1.0,1650847882127723.0
-2.0,-3.0,-3.0,0.0,-2.0,-2.0,-2.0,-2.0,1650847882127723.0
0.0,0.0,-2.0,0.0,0.0,-1.0,0.0,0.0,1650847882128723.0
-1.0,-1.0,-2.0,-2.0,-1.0,1.0,2.0,-1.0,1650847882128723.0
1.0,0.0,1.0,1.0,1.0,0.0,-2.0,1.0,1650847882149755.0
2.0,0.0,2.0,1.0,-1.0,-1.0,-1.0,0.0,1650847882149755.0
1.0,-1.0,-1.0,-4.0,-4.0,-2.0,-1.0,0.0,1650847882151777.0
0.0,0.0,0.0,1.0,1.0,-2.0,-1.0,-2.0,1650847882151777.0
1.0,-1.0,-1.0,-2.0,0.0,-1.0,-1.0,-2.0,1650847882163787.0
-2.0,-2.0,2.0,1.0,2.0,0.0,0.0,0.0,1650847882163787.0
-2.0,1.0,0.0,3.0,2.0,-2.0,-1.0,-1.0,1650847882170769.0
0.0,-1.0,4.0,-4.0,-3.0,-2.0,0.0,1.0,1650847882170769.0
-1.0,0.0,-3.0,0.0,-2.0,-1.0,1.0,-1.0,1650847882187716.0
-1.0,-2.0,-4.0,-6.0,-4.0,-3.0,-1.0,-1.0,1650847882187716.0
-1.0,0.0,1.0,0.0,0.0,1.0,0.0,-2.0,1650847882188654.0
0.0,1.0,1.0,-1.0,0.0,0.0,-1.0,0.0,1650847882188654.0
1.0,1.0,4.0,5.0,0.0,-1.0,-1.0,-1.0,1650847882209299.0
-2.0,-1.0,-3.0,1.0,2.0,1.0,2.0,-2.0,1650847882209299.0
1.0,-1.0,0.0,1.0,1.0,3.0,-1.0,-1.0,1650847882211296.0
-1.0,1.0,0.0,-5.0,-3.0,-2.0,-1.0,-1.0,1650847882211296.0
-1.0,-2.0,4.0,2.0,1.0,0.0,-1.0,0.0,1650847882224327.0
0.0,-1.0,-5.0,-5.0,-3.0,-1.0,-3.0,0.0,1650847882224327.0
0.0,-1.0,3.0,3.0,2.0,0.0,-1.0,-1.0,1650847882231310.0
0.0,-5.0,-7.0,-5.0,-3.0,-2.0,-2.0,-1.0,1650847882231310.0
-1.0,0.0,-1.0,0.0,0.0,3.0,0.0,-1.0,1650847882247699.0
0.0,0.0,3.0,3.0,2.0,-1.0,0.0,0.0,1650847882247699.0
-3.0,-1.0,0.0,-1.0,-1.0,-4.0,-3.0,0.0,1650847882248703.0
1.0,-1.0,-5.0,-3.0,0.0,-2.0,-1.0,0.0,1650847882248703.0
0.0,1.0,3.0,4.0,-1.0,0.0,0.0,-1.0,1650847882269925.0
1.0,0.0,-3.0,-2.0,-3.0,0.0,1.0,1.0,1650847882269925.0
1.0,1.0,0.0,-1.0,0.0,0.0,0.0,0.0,1650847882270882.0
-1.0,-1.0,1.0,1.0,0.0,-1.0,-1.0,0.0,1650847882270882.0
-2.0,-3.0,-4.0,-5.0,-2.0,0.0,1.0,-2.0,1650847882283832.0
-1.0,-2.0,0.0,-2.0,-2.0,-1.0,-1.0,-2.0,1650847882283832.0
0.0,0.0,0.0,1.0,-2.0,-1.0,0.0,0.0,1650847882290869.0
-1.0,-1.0,0.0,0.0,1.0,1.0,0.0,-2.0,1650847882290869.0
0.0,-2.0,-2.0,-1.0,3.0,-2.0,0.0,0.0,1650847882306858.0
1.0,0.0,0.0,0.0,-2.0,0.0,-1.0,0.0,1650847882306858.0
0.0,-2.0,-7.0,-6.0,-3.0,-1.0,-1.0,0.0,1650847882308854.0
-1.0,-1.0,-1.0,-3.0,-2.0,-1.0,-1.0,1.0,1650847882308854.0
-2.0,-1.0,-1.0,-2.0,-2.0,-1.0,-1.0,-1.0,1650847882330134.0
-1.0,1.0,2.0,2.0,3.0,-2.0,0.0,-1.0,1650847882330134.0
0.0,0.0,2.0,2.0,-2.0,0.0,-1.0,0.0,1650847882331068.0
-1.0,-1.0,-1.0,3.0,-1.0,0.0,1.0,0.0,1650847882331068.0
-1.0,-3.0,0.0,1.0,1.0,-1.0,0.0,1.0,1650847882344098.0
-2.0,0.0,-3.0,-1.0,0.0,0.0,1.0,-1.0,1650847882344098.0
-1.0,-3.0,-8.0,-9.0,-5.0,-5.0,-2.0,-2.0,1650847882351122.0
1.0,2.0,3.0,2.0,-2.0,0.0,-1.0,1.0,1650847882351122.0
0.0,2.0,1.0,2.0,2.0,1.0,-1.0,0.0,1650847882367095.0
1.0,-2.0,1.0,3.0,1.0,0.0,1.0,-3.0,1650847882367095.0
-2.0,-2.0,0.0,0.0,0.0,0.0,-1.0,0.0,1650847882369062.0
-1.0,0.0,-4.0,-1.0,-2.0,-2.0,-1.0,-1.0,1650847882369062.0
-1.0,-1.0,-2.0,-1.0,0.0,0.0,0.0,-1.0,1650847882390007.0
-1.0,2.0,2.0,4.0,1.0,0.0,-1.0,0.0,1650847882390007.0
1.0,2.0,-3.0,-3.0,-1.0,-2.0,-1.0,-1.0,1650847882391008.0
1.0,-2.0,-5.0,0.0,-3.0,-2.0,1.0,-2.0,1650847882391008.0
0.0,-2.0,-3.0,-2.0,-1.0,0.0,0.0,-2.0,1650847882402970.0
-1.0,0.0,0.0,0.0,1.0,1.0,-1.0,-1.0,1650847882402970.0
0.0,0.0,3.0,0.0,-1.0,1.0,0.0,-1.0,1650847882419940.0
-2.0,-4.0,0.0,-3.0,-2.0,-1.0,0.0,2.0,1650847882419940.0
0.0,2.0,1.0,1.0,0.0,0.0,-1.0,0.0,1650847882426972.0
-1.0,-4.0,-7.0,-4.0,-2.0,-2.0,0.0,2.0,1650847882426972.0
1.0,-1.0,2.0,4.0,1.0,-1.0,-1.0,1.0,1650847882428901.0
0.0,1.0,-1.0,2.0,1.0,0.0,0.0,0.0,1650847882428901.0
-1.0,1.0,0.0,-3.0,0.0,1.0,0.0,0.0,1650847882449302.0
-1.0,1.0,3.0,1.0,-1.0,0.0,-2.0,-2.0,1650847882449302.0
-1.0,-1.0,0.0,2.0,2.0,0.0,0.0,-1.0,1650847882451309.0
0.0,0.0,0.0,-2.0,-2.0,-2.0,-1.0,-2.0,1650847882451309.0
0.0,-1.0,2.0,-2.0,-2.0,-2.0,-3.0,1.0,1650847882471891.0
0.0,-1.0,-2.0,-3.0,-2.0,1.0,0.0,1.0,1650847882471891.0
0.0,-1.0,-2.0,0.0,-2.0,2.0,0.0,-2.0,1650847882472821.0
-3.0,1.0,0.0,2.0,1.0,1.0,-1.0,-1.0,1650847882472821.0
0.0,-1.0,-3.0,-3.0,-1.0,-2.0,0.0,0.0,1650847882486807.0
1.0,2.0,5.0,-2.0,-5.0,0.0,-1.0,0.0,1650847882486807.0
-2.0,-1.0,-1.0,1.0,1.0,-1.0,1.0,0.0,1650847882487737.0
1.0,3.0,1.0,1.0,4.0,3.0,-1.0,0.0,1650847882487737.0
-1.0,-3.0,-4.0,-2.0,-3.0,0.0,0.0,0.0,1650847882509487.0
-1.0,1.0,4.0,0.0,1.0,-1.0,0.0,-1.0,1650847882509487.0
0.0,-4.0,-5.0,0.0,0.0,0.0,-2.0,-1.0,1650847882509755.0
-1.0,-1.0,2.0,2.0,-1.0,-1.0,-1.0,-1.0,1650847882509755.0
0.0,1.0,0.0,1.0,0.0,0.0,0.0,-1.0,1650847882531766.0
0.0,-1.0,-9.0,-7.0,-3.0,0.0,-1.0,-1.0,1650847882531766.0
1.0,2.0,6.0,3.0,2.0,0.0,1.0,0.0,1650847882532746.0
-1.0,0.0,-8.0,-7.0,0.0,1.0,-1.0,-1.0,1650847882532746.0
-1.0,-1.0,3.0,1.0,-2.0,-3.0,0.0,-1.0,1650847882546859.0
0.0,-1.0,0.0,2.0,-1.0,0.0,-2.0,0.0,1650847882546859.0
-2.0,-2.0,0.0,-3.0,-1.0,-1.0,-1.0,-1.0,1650847882546859.0
1.0,1.0,4.0,2.0,0.0,0.0,1.0,-1.0,1650847882546859.0
-1.0,-1.0,-4.0,-2.0,-1.0,-1.0,1.0,2.0,1650847882568869.0
0.0,-1.0,2.0,2.0,1.0,-3.0,-1.0,-1.0,1650847882568869.0
0.0,-1.0,1.0,0.0,0.0,0.0,1.0,-1.0,1650847882569800.0
0.0,-1.0,0.0,-4.0,-1.0,-2.0,0.0,-3.0,1650847882569800.0
0.0,-1.0,2.0,3.0,3.0,0.0,-1.0,-3.0,1650847882591948.0
-1.0,-1.0,-5.0,-7.0,-1.0,-1.0,1.0,0.0,1650847882591948.0
0.0,0.0,3.0,0.0,0.0,0.0,-1.0,1.0,1650847882591948.0
-2.0,-1.0,-1.0,0.0,-2.0,-1.0,0.0,0.0,1650847882591948.0
1.0,0.0,-1.0,3.0,1.0,1.0,2.0,0.0,1650847882605913.0
-1.0,-2.0,-4.0,-4.0,0.0,-2.0,-2.0,-1.0,1650847882605913.0
0.0,-1.0,0.0,0.0,-3.0,-2.0,-1.0,0.0,1650847882613919.0
-1.0,-4.0,-2.0,-3.0,-2.0,0.0,0.0,1.0,1650847882613919.0
0.0,1.0,5.0,3.0,2.0,-1.0,-1.0,-2.0,1650847882629852.0
-2.0,-1.0,-1.0,0.0,0.0,1.0,-2.0,0.0,1650847882629852.0
1.0,0.0,-4.0,-4.0,-3.0,-5.0,0.0,-3.0,1650847882630872.0
1.0,2.0,2.0,5.0,5.0,2.0,-2.0,-1.0,1650847882630872.0
0.0,0.0,-3.0,-3.0,-3.0,-2.0,-2.0,0.0,1650847882660051.0
-1.0,-5.0,-10.0,-2.0,1.0,1.0,0.0,-1.0,1650847882660051.0
2.0,1.0,4.0,2.0,2.0,0.0,0.0,0.0,1650847882660997.0
-1.0,-1.0,-1.0,-3.0,-3.0,-2.0,-1.0,1.0,1650847882660997.0
0.0,-1.0,-2.0,-3.0,-1.0,0.0,-2.0,-1.0,1650847882666970.0
-2.0,-1.0,3.0,1.0,0.0,-1.0,1.0,-2.0,1650847882666970.0
0.0,2.0,-1.0,2.0,-2.0,1.0,1.0,-1.0,1650847882666970.0
-2.0,1.0,1.0,0.0,0.0,-1.0,0.0,-2.0,1650847882666970.0
-1.0,-1.0,-5.0,-4.0,-1.0,0.0,-1.0,-1.0,1650847882688806.0
-1.0,1.0,2.0,2.0,-1.0,-1.0,0.0,0.0,1650847882688806.0
-2.0,-1.0,-1.0,-2.0,1.0,3.0,-1.0,0.0,1650847882689739.0
-1.0,-1.0,-1.0,-1.0,-1.0,-2.0,0.0,1.0,1650847882689739.0
-2.0,-3.0,-1.0,-4.0,-2.0,-1.0,1.0,-1.0,1650847882711860.0
0.0,1.0,0.0,-3.0,-1.0,0.0,0.0,-2.0,1650847882711860.0
1.0,3.0,1.0,1.0,0.0,-3.0,0.0,0.0,1650847882711860.0
0.0,-2.0,3.0,4.0,2.0,1.0,-1.0,-2.0,1650847882711860.0
-2.0,1.0,-1.0,-5.0,-4.0,-3.0,-2.0,-1.0,1650847882727695.0
2.0,-2.0,-6.0,-2.0,-1.0,0.0,-1.0,1.0,1650847882727695.0
-3.0,-1.0,2.0,-1.0,-2.0,2.0,-1.0,0.0,1650847882728700.0
0.0,-1.0,-1.0,-2.0,-1.0,-2.0,-2.0,-1.0,1650847882728700.0
-1.0,-1.0,1.0,3.0,1.0,-2.0,1.0,0.0,1650847882749460.0
-1.0,0.0,2.0,-1.0,-1.0,0.0,0.0,0.0,1650847882749460.0
-1.0,-3.0,1.0,0.0,-1.0,-1.0,-3.0,0.0,1650847882749764.0
0.0,-1.0,-2.0,0.0,3.0,-1.0,0.0,0.0,1650847882749764.0
-1.0,0.0,0.0,3.0,0.0,0.0,-1.0,-1.0,1650847882771808.0
-1.0,-2.0,1.0,-3.0,-2.0,-2.0,-2.0,1.0,1650847882771808.0
-1.0,-1.0,-3.0,-2.0,-1.0,1.0,-1.0,-2.0,1650847882772762.0
-2.0,-1.0,-1.0,-3.0,-2.0,-1.0,0.0,-2.0,1650847882772762.0
1.0,1.0,-2.0,-2.0,0.0,0.0,-1.0,0.0,1650847882786818.0
-1.0,1.0,1.0,3.0,1.0,0.0,-1.0,0.0,1650847882786818.0
0.0,0.0,3.0,0.0,0.0,-1.0,-1.0,0.0,1650847882786818.0
-1.0,-1.0,-2.0,-2.0,-2.0,-1.0,1.0,0.0,1650847882786818.0
0.0,0.0,0.0,0.0,-1.0,0.0,0.0,0.0,1650847882809461.0
0.0,-1.0,0.0,0.0,-2.0,-1.0,1.0,-2.0,1650847882809461.0
0.0,0.0,0.0,-2.0,0.0,-2.0,0.0,0.0,1650847882809758.0
0.0,-1.0,-4.0,-3.0,-2.0,-3.0,-1.0,-1.0,1650847882809758.0
-1.0,-2.0,0.0,-3.0,1.0,0.0,0.0,-1.0,1650847882831770.0
0.0,0.0,0.0,3.0,2.0,0.0,-1.0,1.0,1650847882831770.0
-1.0,2.0,-1.0,1.0,1.0,1.0,1.0,-1.0,1650847882832699.0
0.0,0.0,0.0,0.0,1.0,-1.0,1.0,0.0,1650847882832699.0
-1.0,-3.0,0.0,-1.0,-4.0,0.0,0.0,-1.0,1650847882846728.0
0.0,2.0,5.0,3.0,5.0,1.0,-1.0,0.0,1650847882846728.0
0.0,2.0,-5.0,-1.0,-2.0,-2.0,-1.0,-2.0,1650847882847658.0
-2.0,2.0,-3.0,-2.0,-2.0,0.0,-1.0,-1.0,1650847882847658.0
1.0,1.0,3.0,2.0,1.0,-2.0,-2.0,-1.0,1650847882869311.0
-1.0,-3.0,-3.0,-3.0,-3.0,-2.0,0.0,-1.0,1650847882869311.0
-1.0,-3.0,3.0,6.0,2.0,3.0,-4.0,1.0,1650847882870250.0
0.0,0.0,-4.0,-6.0,-2.0,2.0,1.0,0.0,1650847882870250.0
0.0,-1.0,-1.0,-1.0,0.0,0.0,-1.0,0.0,1650847882891316.0
0.0,1.0,-2.0,0.0,-2.0,-1.0,1.0,0.0,1650847882891316.0
0.0,-2.0,-2.0,-1.0,0.0,-1.0,-1.0,-1.0,1650847882892304.0
0.0,3.0,7.0,-1.0,-3.0,-1.0,-2.0,0.0,1650847882892304.0
-1.0,1.0,-6.0,-3.0,2.0,0.0,1.0,-1.0,1650847882914858.0
-1.0,0.0,2.0,-2.0,0.0,-1.0,0.0,-2.0,1650847882914858.0
1.0,0.0,-4.0,-4.0,-2.0,-2.0,0.0,0.0,1650847882915818.0
1.0,-3.0,-2.0,1.0,-5.0,-2.0,1.0,1.0,1650847882915818.0
-1.0,0.0,0.0,1.0,2.0,2.0,0.0,-2.0,1650847882928762.0
0.0,2.0,1.0,1.0,-1.0,-1.0,-1.0,0.0,1650847882928762.0
0.0,-2.0,-5.0,-3.0,-1.0,-1.0,-1.0,-2.0,1650847882929750.0
-2.0,0.0,2.0,5.0,3.0,-1.0,0.0,-2.0,1650847882929750.0
0.0,0.0,0.0,-2.0,-3.0,1.0,-1.0,0.0,1650847882951866.0
-2.0,0.0,-2.0,-1.0,0.0,-1.0,-1.0,-2.0,1650847882951866.0
1.0,0.0,3.0,0.0,-1.0,0.0,0.0,-1.0,1650847882951866.0
-1.0,0.0,0.0,-1.0,-2.0,1.0,0.0,-1.0,1650847882951866.0
-1.0,-4.0,-5.0,-1.0,-2.0,-2.0,0.0,-1.0,1650847882966873.0
-1.0,-1.0,-2.0,2.0,1.0,-1.0,-2.0,0.0,1650847882966873.0
-2.0,0.0,1.0,-4.0,0.0,0.0,1.0,0.0,1650847882966873.0
0.0,0.0,3.0,3.0,1.0,-2.0,-1.0,-1.0,1650847882966873.0
1.0,3.0,3.0,1.0,-3.0,-2.0,-1.0,1.0,1650847882989056.0
0.0,-2.0,-2.0,-1.0,1.0,0.0,1.0,-2.0,1650847882989056.0
-2.0,0.0,-4.0,0.0,-1.0,-1.0,-1.0,0.0,1650847882989993.0
-2.0,-4.0,-3.0,-3.0,-2.0,1.0,-1.0,-1.0,1650847882989993.0
0.0,1.0,5.0,1.0,1.0,0.0,-2.0,-2.0,1650847883019973.0
0.0,0.0,-1.0,-1.0,-1.0,-1.0,-1.0,-2.0,1650847883019973.0
-2.0,0.0,2.0,2.0,1.0,-1.0,-2.0,-1.0,1650847883020903.0
1.0,2.0,-1.0,-4.0,0.0,1.0,2.0,1.0,1650847883020903.0
-1.0,-1.0,1.0,0.0,-1.0,-1.0,1.0,0.0,1650847883034867.0
1.0,-2.0,-2.0,-3.0,-2.0,-1.0,-2.0,-1.0,1650847883034867.0
0.0,0.0,-1.0,-1.0,2.0,0.0,-1.0,-1.0,1650847883035863.0
2.0,-1.0,1.0,1.0,0.0,-2.0,-1.0,-2.0,1650847883035863.0
0.0,-2.0,-4.0,-3.0,-2.0,-1.0,-1.0,0.0,1650847883048894.0
0.0,3.0,3.0,0.0,0.0,0.0,1.0,0.0,1650847883048894.0
-1.0,-3.0,-1.0,0.0,-1.0,0.0,1.0,-1.0,1650847883049825.0
-2.0,1.0,-3.0,4.0,1.0,-1.0,-3.0,-2.0,1650847883049825.0
1.0,-1.0,-2.0,-4.0,0.0,-1.0,-1.0,1.0,1650847883071833.0
0.0,0.0,-1.0,-2.0,-2.0,-1.0,-2.0,0.0,1650847883071833.0
-2.0,-1.0,0.0,1.0,0.0,0.0,-1.0,0.0,1650847883072764.0
-3.0,-2.0,-2.0,0.0,4.0,1.0,-2.0,-1.0,1650847883072764.0
0.0,-1.0,1.0,2.0,0.0,-1.0,-1.0,1.0,1650847883086793.0
-1.0,1.0,0.0,-4.0,-4.0,0.0,-2.0,0.0,1650847883086793.0
-2.0,-2.0,-1.0,0.0,1.0,0.0,1.0,-1.0,1650847883087725.0
1.0,-1.0,-2.0,-1.0,-2.0,0.0,-2.0,0.0,1650847883087725.0
-1.0,2.0,4.0,-1.0,-1.0,-1.0,-1.0,0.0,1650847883108668.0
0.0,-1.0,-1.0,3.0,2.0,-2.0,1.0,-2.0,1650847883108668.0
-1.0,-2.0,-6.0,-7.0,-2.0,-1.0,-3.0,0.0,1650847883109666.0
-2.0,-3.0,0.0,0.0,1.0,2.0,0.0,0.0,1650847883109666.0
-1.0,2.0,-2.0,1.0,-2.0,-1.0,-1.0,0.0,1650847883131874.0
1.0,-1.0,2.0,2.0,-1.0,-2.0,2.0,2.0,1650847883131874.0
1.0,0.0,1.0,1.0,-1.0,-1.0,0.0,-1.0,1650847883131874.0
0.0,-1.0,1.0,-3.0,-2.0,-3.0,1.0,-1.0,1650847883131874.0
0.0,-2.0,-3.0,-1.0,-2.0,2.0,-1.0,-1.0,1650847883146902.0
-2.0,-2.0,-1.0,-1.0,1.0,-1.0,0.0,-1.0,1650847883146902.0
0.0,1.0,-2.0,-2.0,0.0,0.0,1.0,0.0,1650847883146902.0
-1.0,2.0,2.0,1.0,-2.0,-2.0,-1.0,1.0,1650847883146902.0
0.0,-1.0,0.0,1.0,1.0,0.0,0.0,-2.0,1650847883168813.0
-3.0,-3.0,-4.0,-4.0,-5.0,-1.0,0.0,-1.0,1650847883168813.0
0.0,1.0,3.0,2.0,2.0,1.0,-1.0,-1.0,1650847883169826.0
-2.0,-1.0,-7.0,-3.0,-2.0,-2.0,0.0,0.0,1650847883169826.0
-2.0,-1.0,0.0,-1.0,-1.0,-1.0,-1.0,-1.0,1650847883191803.0
1.0,-1.0,0.0,0.0,0.0,1.0,0.0,0.0,1650847883191803.0
1.0,-1.0,1.0,0.0,-1.0,-1.0,0.0,-1.0,1650847883192800.0
0.0,-2.0,1.0,-1.0,-1.0,-1.0,-1.0,-1.0,1650847883192800.0
-1.0,-1.0,-4.0,-2.0,-2.0,-2.0,-3.0,-1.0,1650847883206767.0
0.0,-2.0,3.0,0.0,2.0,2.0,0.0,0.0,1650847883206767.0
-1.0,-2.0,-5.0,-3.0,-1.0,-1.0,0.0,-1.0,1650847883207774.0
0.0,0.0,8.0,3.0,1.0,1.0,-1.0,-1.0,1650847883207774.0
-1.0,-3.0,-7.0,-8.0,-2.0,0.0,0.0,0.0,1650847883229767.0
-1.0,2.0,0.0,2.0,2.0,-1.0,-1.0,-1.0,1650847883229767.0
0.0,-5.0,-1.0,1.0,-2.0,-2.0,-2.0,-1.0,1650847883230699.0
0.0,0.0,-3.0,-1.0,-1.0,-2.0,1.0,-2.0,1650847883230699.0
-2.0,-3.0,3.0,3.0,1.0,1.0,0.0,-1.0,1650847883251643.0
0.0,-1.0,0.0,0.0,-4.0,-3.0,0.0,-1.0,1650847883251643.0
-1.0,0.0,-2.0,-3.0,0.0,2.0,0.0,-1.0,1650847883252640.0
-1.0,0.0,-1.0,-3.0,-1.0,-1.0,-1.0,-1.0,1650847883252640.0
1.0,-1.0,0.0,0.0,1.0,0.0,0.0,0.0,1650847883266842.0
1.0,-3.0,-3.0,0.0,-1.0,1.0,0.0,0.0,1650847883266842.0
0.0,-2.0,-1.0,-1.0,1.0,1.0,-1.0,-2.0,1650847883266842.0
-2.0,1.0,2.0,2.0,0.0,-2.0,-2.0,1.0,1650847883266842.0
0.0,0.0,-2.0,-3.0,0.0,0.0,-1.0,-2.0,1650847883288903.0
-1.0,2.0,1.0,1.0,-1.0,-2.0,-1.0,-1.0,1650847883288903.0
0.0,2.0,1.0,-1.0,-4.0,-3.0,0.0,-1.0,1650847883289866.0
2.0,-2.0,-1.0,-2.0,3.0,1.0,1.0,1.0,1650847883289866.0
-1.0,0.0,1.0,4.0,0.0,-2.0,-1.0,0.0,1650847883311873.0
1.0,-1.0,2.0,4.0,3.0,0.0,-1.0,-1.0,1650847883311873.0
0.0,-2.0,-7.0,-7.0,-5.0,-5.0,0.0,0.0,1650847883312803.0
2.0,1.0,4.0,4.0,-1.0,1.0,1.0,-2.0,1650847883312803.0
1.0,3.0,1.0,-1.0,0.0,2.0,1.0,0.0,1650847883326878.0
-1.0,-7.0,-6.0,-3.0,-3.0,-1.0,0.0,-1.0,1650847883326878.0
1.0,3.0,-1.0,0.0,-1.0,1.0,-1.0,2.0,1650847883326878.0
-3.0,1.0,-6.0,-1.0,-2.0,-2.0,-2.0,-4.0,1650847883326878.0
-1.0,-13.0,-2.0,1.0,-1.0,1.0,-1.0,-1.0,1650847883349231.0
3.0,15.0,6.0,3.0,3.0,1.0,2.0,0.0,1650847883349231.0
-2.0,-3.0,5.0,2.0,-2.0,-2.0,-1.0,0.0,1650847883350162.0
0.0,0.0,-2.0,-3.0,-1.0,1.0,-1.0,1.0,1650847883350162.0
-3.0,-13.0,-5.0,-1.0,-1.0,-3.0,-1.0,-1.0,1650847883371171.0
2.0,8.0,-3.0,-5.0,-3.0,-3.0,-2.0,-2.0,1650847883371171.0
-4.0,-26.0,-2.0,-1.0,-1.0,-2.0,1.0,-1.0,1650847883372116.0
4.0,19.0,3.0,-3.0,-1.0,1.0,0.0,3.0,1650847883372116.0
0.0,-1.0,-1.0,4.0,1.0,1.0,0.0,1.0,1650847883386178.0
1.0,-2.0,0.0,-1.0,5.0,2.0,0.0,0.0,1650847883386178.0
1.0,6.0,2.0,-1.0,-2.0,-2.0,0.0,-1.0,1650847883394223.0
-5.0,-23.0,-12.0,-20.0,-8.0,-2.0,-1.0,-4.0,1650847883394223.0
1.0,12.0,-8.0,-15.0,-7.0,0.0,-1.0,1.0,1650847883409122.0
-4.0,-5.0,11.0,31.0,3.0,-5.0,-4.0,-3.0,1650847883409122.0
5.0,10.0,1.0,0.0,9.0,4.0,9.0,9.0,1650847883417107.0
-1.0,-4.0,2.0,2.0,-2.0,-5.0,-7.0,-2.0,1650847883417107.0
2.0,10.0,-6.0,-7.0,-2.0,-2.0,-5.0,-3.0,1650847883431274.0
-1.0,-7.0,-13.0,-26.0,-15.0,0.0,-2.0,1.0,1650847883431274.0
1.0,4.0,2.0,1.0,-1.0,1.0,2.0,-3.0,1650847883432203.0
-3.0,-5.0,-4.0,3.0,-1.0,-2.0,4.0,4.0,1650847883432203.0
-8.0,1.0,6.0,-9.0,-6.0,-5.0,-9.0,-4.0,1650847883446232.0
3.0,2.0,5.0,7.0,7.0,3.0,-2.0,2.0,1650847883446232.0
-1.0,-1.0,-3.0,-2.0,-2.0,1.0,-1.0,-1.0,1650847883454314.0
5.0,19.0,4.0,4.0,2.0,3.0,3.0,1.0,1650847883454314.0
0.0,-31.0,-2.0,10.0,6.0,0.0,2.0,0.0,1650847883469318.0
0.0,3.0,1.0,3.0,2.0,-2.0,0.0,3.0,1650847883469318.0
-1.0,4.0,-5.0,0.0,-3.0,1.0,-2.0,-2.0,1650847883469318.0
-3.0,-3.0,-5.0,-2.0,2.0,5.0,1.0,0.0,1650847883469318.0
7.0,15.0,6.0,9.0,2.0,2.0,-1.0,4.0,1650847883491262.0
-7.0,-19.0,-21.0,-21.0,-8.0,-4.0,0.0,-3.0,1650847883491262.0
0.0,0.0,1.0,-2.0,-6.0,-1.0,11.0,10.0,1650847883492260.0
-2.0,-4.0,6.0,9.0,-4.0,-7.0,-14.0,-7.0,1650847883492260.0
-4.0,12.0,7.0,2.0,7.0,2.0,12.0,-8.0,1650847883506314.0
0.0,-11.0,-9.0,-8.0,0.0,5.0,-2.0,-3.0,1650847883506314.0
5.0,11.0,9.0,12.0,-9.0,-2.0,9.0,7.0,1650847883514267.0
0.0,-19.0,1.0,27.0,30.0,8.0,16.0,13.0,1650847883514267.0
-2.0,13.0,1.0,-10.0,-12.0,-11.0,-23.0,-9.0,1650847883529227.0
-2.0,11.0,5.0,5.0,2.0,3.0,-6.0,-9.0,1650847883529227.0
-2.0,-4.0,-3.0,-9.0,-1.0,4.0,6.0,-1.0,1650847883530158.0
-1.0,-1.0,-1.0,-13.0,-11.0,-1.0,-1.0,-2.0,1650847883530158.0
9.0,8.0,4.0,9.0,5.0,6.0,8.0,5.0,1650847883551272.0
-5.0,-1.0,-8.0,-16.0,-5.0,-4.0,-13.0,-4.0,1650847883551272.0
3.0,4.0,2.0,8.0,2.0,-1.0,-8.0,-1.0,1650847883552202.0
3.0,-4.0,-2.0,-4.0,0.0,5.0,10.0,3.0,1650847883552202.0
-6.0,-21.0,0.0,2.0,1.0,0.0,2.0,-2.0,1650847883566234.0
0.0,20.0,4.0,0.0,1.0,11.0,2.0,2.0,1650847883566234.0
-13.0,-27.0,-1.0,3.0,0.0,-13.0,-45.0,-28.0,1650847883574209.0
-8.0,13.0,-1.0,-5.0,-13.0,-5.0,27.0,13.0,1650847883574209.0
7.0,-4.0,-17.0,-13.0,-12.0,-3.0,52.0,23.0,1650847883589171.0
3.0,-44.0,-8.0,-3.0,1.0,0.0,-5.0,-2.0,1650847883589171.0
-40.0,5.0,1.0,1.0,4.0,2.0,-8.0,-14.0,1650847883590130.0
18.0,9.0,12.0,9.0,6.0,6.0,-26.0,-7.0,1650847883590130.0
-7.0,20.0,9.0,4.0,-1.0,-2.0,-9.0,-5.0,1650847883612042.0
5.0,-3.0,1.0,1.0,-1.0,-3.0,11.0,0.0,1650847883612042.0
10.0,-12.0,-8.0,-7.0,2.0,2.0,5.0,5.0,1650847883612042.0
-12.0,4.0,3.0,0.0,-3.0,-8.0,-29.0,-18.0,1650847883612042.0
15.0,20.0,13.0,12.0,12.0,12.0,37.0,26.0,1650847883626071.0
1.0,8.0,5.0,6.0,-2.0,-3.0,-12.0,-2.0,1650847883626071.0
4.0,-8.0,-3.0,0.0,1.0,0.0,6.0,-8.0,1650847883634051.0
2.0,35.0,5.0,0.0,-4.0,-6.0,-17.0,2.0,1650847883634051.0
-5.0,-47.0,-12.0,-4.0,4.0,3.0,-21.0,-19.0,1650847883649158.0
3.0,25.0,11.0,8.0,1.0,-2.0,25.0,15.0,1650847883649158.0
6.0,15.0,5.0,6.0,6.0,1.0,-5.0,1.0,1650847883650089.0
-9.0,-56.0,-12.0,-1.0,-6.0,-6.0,-10.0,-5.0,1650847883650089.0
-8.0,9.0,-14.0,-18.0,-12.0,-10.0,-31.0,-15.0,1650847883671850.0
-2.0,23.0,1.0,-5.0,-3.0,2.0,36.0,25.0,1650847883671850.0
14.0,-28.0,-6.0,-5.0,-6.0,-4.0,20.0,16.0,1650847883672780.0
-2.0,38.0,12.0,3.0,6.0,4.0,-54.0,-41.0,1650847883672780.0
-3.0,-34.0,-11.0,-12.0,-1.0,11.0,74.0,40.0,1650847883685745.0
10.0,44.0,22.0,29.0,6.0,8.0,-1.0,8.0,1650847883685745.0
3.0,-23.0,-14.0,-15.0,-6.0,-6.0,-7.0,-1.0,1650847883693790.0
-1.0,17.0,-7.0,-6.0,0.0,-2.0,-1.0,6.0,1650847883693790.0
-11.0,-13.0,-1.0,4.0,-2.0,-7.0,-50.0,-30.0,1650847883708894.0
6.0,27.0,4.0,-15.0,-2.0,-1.0,4.0,-5.0,1650847883708894.0
0.0,13.0,0.0,1.0,0.0,0.0,7.0,4.0,1650847883709825.0
-1.0,-13.0,-3.0,-5.0,-6.0,-5.0,-23.0,-17.0,1650847883709825.0
4.0,4.0,-1.0,-7.0,-2.0,-2.0,7.0,7.0,1650847883731833.0
0.0,-4.0,8.0,17.0,5.0,3.0,39.0,15.0,1650847883731833.0
1.0,6.0,-3.0,3.0,2.0,1.0,-11.0,0.0,1650847883732770.0
0.0,-10.0,-12.0,-23.0,-14.0,-2.0,12.0,2.0,1650847883732770.0
-1.0,-11.0,12.0,65.0,43.0,6.0,-25.0,-17.0,1650847883755007.0
-6.0,-18.0,-5.0,-3.0,-10.0,-3.0,-6.0,0.0,1650847883755007.0
-4.0,17.0,10.0,4.0,-4.0,1.0,4.0,-20.0,1650847883755938.0
6.0,-47.0,-10.0,2.0,6.0,12.0,47.0,42.0,1650847883755938.0
0.0,56.0,-2.0,-26.0,-16.0,-8.0,-31.0,-12.0,1650847883768973.0
-13.0,-33.0,-8.0,-4.0,-8.0,-15.0,-45.0,-28.0,1650847883768973.0
9.0,11.0,13.0,11.0,20.0,17.0,27.0,13.0,1650847883769913.0
-6.0,-63.0,-10.0,-2.0,-4.0,-6.0,14.0,-5.0,1650847883769913.0
-8.0,35.0,5.0,-23.0,-21.0,-10.0,-27.0,-6.0,1650847883791731.0
-1.0,-18.0,-4.0,17.0,38.0,22.0,49.0,29.0,1650847883791731.0
-12.0,-19.0,-5.0,4.0,-18.0,-22.0,-46.0,-26.0,1650847883792721.0
8.0,-7.0,13.0,13.0,9.0,4.0,17.0,5.0,1650847883792721.0
4.0,32.0,7.0,-1.0,-8.0,-8.0,-14.0,-7.0,1650847883814729.0
-10.0,-6.0,10.0,-15.0,-4.0,-1.0,-23.0,-18.0,1650847883814729.0
11.0,16.0,-19.0,-10.0,2.0,12.0,25.0,25.0,1650847883815659.0
-32.0,-29.0,-11.0,-7.0,-12.0,-21.0,-11.0,-10.0,1650847883815659.0
17.0,-1.0,18.0,2.0,-2.0,-1.0,-16.0,-10.0,1650847883829485.0
19.0,-38.0,-38.0,-18.0,-13.0,-9.0,1.0,5.0,1650847883829485.0
-23.0,16.0,21.0,21.0,10.0,3.0,5.0,-4.0,1650847883829638.0
21.0,21.0,4.0,2.0,6.0,12.0,35.0,19.0,1650847883829638.0
-3.0,5.0,0.0,-15.0,-7.0,1.0,11.0,-2.0,1650847883851888.0
6.0,9.0,4.0,-5.0,3.0,-4.0,-18.0,-11.0,1650847883851888.0
13.0,-26.0,-32.0,-6.0,-15.0,-4.0,-4.0,9.0,1650847883851888.0
13.0,62.0,19.0,14.0,8.0,-4.0,6.0,11.0,1650847883851888.0
-24.0,-54.0,-12.0,6.0,5.0,0.0,0.0,-12.0,1650847883874827.0
-14.0,6.0,-15.0,-24.0,-14.0,-7.0,-41.0,-27.0,1650847883874827.0
15.0,15.0,12.0,-16.0,-10.0,-10.0,15.0,14.0,1650847883875785.0
-9.0,-30.0,-22.0,0.0,-6.0,-2.0,8.0,-3.0,1650847883875785.0
13.0,24.0,3.0,6.0,11.0,2.0,-34.0,4.0,1650847883888905.0
8.0,2.0,10.0,12.0,-5.0,-12.0,-1.0,-7.0,1650847883888905.0
-20.0,-24.0,0.0,17.0,12.0,16.0,28.0,6.0,1650847883889841.0
6.0,42.0,13.0,5.0,20.0,15.0,-4.0,-13.0,1650847883889841.0
9.0,-44.0,-8.0,9.0,8.0,7.0,31.0,32.0,1650847883911848.0
2.0,-20.0,-15.0,-32.0,-16.0,-9.0,-42.0,-30.0,1650847883911848.0
-8.0,13.0,31.0,35.0,11.0,-6.0,-30.0,-4.0,1650847883911848.0
-5.0,-22.0,-11.0,-14.0,-6.0,9.0,15.0,-11.0,1650847883911848.0
9.0,40.0,11.0,18.0,14.0,12.0,16.0,9.0,1650847883934807.0
-9.0,-26.0,7.0,-3.0,11.0,4.0,10.0,13.0,1650847883934807.0
12.0,-3.0,-19.0,-33.0,-15.0,-11.0,-21.0,-18.0,1650847883935742.0
-29.0,-45.0,-19.0,-10.0,-10.0,-10.0,-19.0,-8.0,1650847883935742.0
5.0,5.0,5.0,-8.0,-10.0,-5.0,-13.0,-8.0,1650847883948774.0
5.0,9.0,1.0,5.0,-7.0,-8.0,-16.0,-12.0,1650847883948774.0
7.0,28.0,20.0,16.0,20.0,20.0,69.0,46.0,1650847883949705.0
23.0,27.0,15.0,11.0,17.0,8.0,-22.0,1.0,1650847883949705.0
4.0,18.0,-1.0,-1.0,-12.0,-9.0,-9.0,-11.0,1650847883971713.0
-9.0,-6.0,7.0,5.0,-1.0,0.0,-4.0,10.0,1650847883971713.0
3.0,-18.0,-11.0,-16.0,-8.0,-4.0,-26.0,-35.0,1650847883972644.0
10.0,40.0,3.0,-9.0,-4.0,1.0,17.0,19.0,1650847883972644.0
3.0,-26.0,8.0,24.0,5.0,-3.0,13.0,12.0,1650847883994751.0
8.0,39.0,17.0,18.0,5.0,2.0,-10.0,-8.0,1650847883994751.0
-13.0,18.0,2.0,9.0,2.0,3.0,0.0,-1.0,1650847883995749.0
-7.0,-95.0,-29.0,-14.0,-5.0,-8.0,20.0,8.0,1650847883995749.0
-7.0,37.0,-4.0,-22.0,-19.0,-19.0,-35.0,-22.0,1650847884008687.0
-4.0,-9.0,-13.0,-4.0,-7.0,1.0,22.0,15.0,1650847884008687.0
20.0,71.0,23.0,2.0,13.0,3.0,-32.0,-5.0,1650847884009685.0
-10.0,-9.0,-4.0,-15.0,-9.0,1.0,17.0,-6.0,1650847884009685.0
6.0,-18.0,-10.0,10.0,19.0,10.0,15.0,17.0,1650847884031931.0
-9.0,25.0,-7.0,-9.0,-16.0,-11.0,-7.0,-8.0,1650847884031931.0
-2.0,-21.0,-9.0,-7.0,-2.0,-2.0,6.0,12.0,1650847884031931.0
5.0,18.0,13.0,7.0,-3.0,-3.0,-28.0,-16.0,1650847884031931.0
-17.0,-27.0,-18.0,-19.0,-12.0,-6.0,16.0,-11.0,1650847884054868.0
11.0,50.0,34.0,5.0,10.0,13.0,10.0,4.0,1650847884054868.0
-6.0,-45.0,-19.0,10.0,5.0,-2.0,-8.0,-2.0,1650847884055825.0
0.0,52.0,10.0,11.0,-1.0,0.0,-11.0,4.0,1650847884055825.0
-13.0,-17.0,-7.0,-16.0,-5.0,-1.0,23.0,4.0,1650847884069068.0
-8.0,-20.0,2.0,13.0,6.0,1.0,-6.0,-12.0,1650847884069068.0
-5.0,-8.0,-8.0,-19.0,-12.0,-6.0,-19.0,-9.0,1650847884069729.0
2.0,-8.0,0.0,2.0,-5.0,-3.0,13.0,13.0,1650847884069729.0
0.0,-5.0,3.0,-6.0,1.0,8.0,-4.0,-6.0,1650847884091675.0
-5.0,-5.0,-11.0,-1.0,0.0,0.0,11.0,8.0,1650847884091675.0
6.0,-16.0,1.0,-2.0,2.0,-1.0,-6.0,6.0,1650847884092678.0
4.0,22.0,0.0,-13.0,-5.0,-9.0,-13.0,-6.0,1650847884092678.0
-4.0,-14.0,-1.0,17.0,-2.0,5.0,30.0,14.0,1650847884114366.0
-9.0,-43.0,-14.0,-13.0,-5.0,0.0,-14.0,-2.0,1650847884114366.0
-13.0,5.0,7.0,11.0,4.0,-1.0,-3.0,-21.0,1650847884115305.0
4.0,27.0,5.0,-2.0,-6.0,-6.0,-12.0,-3.0,1650847884115305.0
-17.0,-6.0,-15.0,-27.0,-16.0,-19.0,-10.0,-10.0,1650847884129260.0
11.0,-3.0,3.0,18.0,11.0,-1.0,-12.0,7.0,1650847884129260.0
0.0,34.0,1.0,-8.0,-11.0,-7.0,9.0,-6.0,1650847884130259.0
-2.0,-6.0,-10.0,-15.0,-7.0,-2.0,-10.0,-6.0,1650847884130259.0
8.0,-4.0,6.0,0.0,4.0,6.0,13.0,14.0,1650847884151269.0
1.0,1.0,-3.0,2.0,-1.0,0.0,8.0,6.0,1650847884151269.0
2.0,-13.0,5.0,0.0,0.0,0.0,12.0,12.0,1650847884152200.0
-7.0,-2.0,3.0,10.0,3.0,3.0,9.0,-2.0,1650847884152200.0
6.0,10.0,2.0,1.0,1.0,-2.0,-21.0,-8.0,1650847884175191.0
-10.0,-2.0,-5.0,-12.0,4.0,4.0,21.0,-3.0,1650847884175191.0
3.0,-4.0,12.0,32.0,-1.0,3.0,-9.0,6.0,1650847884175191.0
7.0,36.0,6.0,5.0,5.0,0.0,-4.0,4.0,1650847884175191.0
0.0,-19.0,-2.0,7.0,4.0,6.0,2.0,4.0,1650847884189433.0
2.0,-14.0,-2.0,-4.0,3.0,3.0,1.0,3.0,1650847884189433.0
-2.0,1.0,-20.0,-15.0,-7.0,-5.0,-11.0,-14.0,1650847884189736.0
-4.0,13.0,2.0,-5.0,-7.0,-2.0,17.0,5.0,1650847884189736.0
-3.0,-2.0,7.0,17.0,5.0,0.0,-17.0,-11.0,1650847884211746.0
3.0,2.0,0.0,-8.0,-7.0,-3.0,17.0,17.0,1650847884211746.0
0.0,11.0,5.0,0.0,1.0,3.0,2.0,-4.0,1650847884212677.0
-6.0,-29.0,-7.0,5.0,-5.0,-6.0,-17.0,-1.0,1650847884212677.0
-11.0,-2.0,-14.0,-6.0,13.0,9.0,-11.0,-24.0,1650847884234686.0
5.0,-9.0,-3.0,6.0,-10.0,-11.0,3.0,-5.0,1650847884234686.0
3.0,5.0,-3.0,-13.0,1.0,2.0,16.0,13.0,1650847884235616.0
4.0,-18.0,1.0,1.0,-3.0,1.0,2.0,4.0,1650847884235616.0
2.0,-8.0,2.0,-23.0,-7.0,-4.0,-5.0,5.0,1650847884248647.0
6.0,48.0,10.0,32.0,1.0,-4.0,-19.0,-13.0,1650847884248647.0
-5.0,-7.0,2.0,4.0,3.0,4.0,0.0,-4.0,1650847884249578.0
-2.0,-34.0,-3.0,9.0,10.0,7.0,12.0,6.0,1650847884249578.0
8.0,37.0,4.0,-6.0,-6.0,-5.0,-9.0,-1.0,1650847884271586.0
1.0,-20.0,-12.0,1.0,8.0,8.0,20.0,13.0,1650847884271586.0
-6.0,-20.0,-5.0,-14.0,-10.0,-11.0,-4.0,-7.0,1650847884272517.0
3.0,14.0,-2.0,-3.0,-2.0,-4.0,-10.0,-6.0,1650847884272517.0
2.0,-6.0,-1.0,6.0,-1.0,5.0,28.0,20.0,1650847884294519.0
-6.0,15.0,5.0,-9.0,-6.0,-5.0,-29.0,-8.0,1650847884294519.0
-1.0,-17.0,-6.0,4.0,5.0,2.0,12.0,-6.0,1650847884295455.0
4.0,2.0,3.0,0.0,2.0,3.0,7.0,6.0,1650847884295455.0
-5.0,-11.0,1.0,2.0,-2.0,-4.0,-13.0,-8.0,1650847884309462.0
-8.0,-12.0,2.0,-3.0,1.0,2.0,8.0,10.0,1650847884309462.0
1.0,-16.0,-18.0,-30.0,-14.0,-1.0,9.0,-8.0,1650847884309462.0
3.0,-14.0,9.0,20.0,13.0,2.0,-7.0,-3.0,1650847884309462.0
3.0,45.0,15.0,1.0,-1.0,-4.0,9.0,2.0,1650847884331425.0
-1.0,-27.0,-19.0,1.0,4.0,6.0,-2.0,8.0,1650847884331425.0
12.0,33.0,3.0,-2.0,0.0,-1.0,-10.0,-2.0,1650847884332358.0
-1.0,-11.0,-2.0,-8.0,-9.0,-5.0,12.0,3.0,1650847884332358.0
5.0,-7.0,3.0,3.0,-1.0,-3.0,4.0,12.0,1650847884354299.0
-10.0,-12.0,1.0,-1.0,-3.0,-9.0,-21.0,-26.0,1650847884354299.0
-4.0,0.0,-4.0,-4.0,2.0,4.0,17.0,17.0,1650847884355297.0
-7.0,-13.0,-7.0,2.0,2.0,-2.0,-10.0,-14.0,1650847884355297.0
-2.0,-4.0,-3.0,-1.0,-3.0,-2.0,-2.0,5.0,1650847884368808.0
7.0,10.0,-1.0,-8.0,-1.0,4.0,9.0,7.0,1650847884368808.0
-8.0,-14.0,-1.0,-7.0,-8.0,-6.0,-7.0,1.0,1650847884376217.0
-2.0,41.0,1.0,2.0,2.0,1.0,4.0,-4.0,1650847884376217.0
-7.0,-38.0,-28.0,-9.0,-4.0,-2.0,-22.0,-16.0,1650847884391856.0
11.0,4.0,8.0,6.0,2.0,3.0,9.0,12.0,1650847884391856.0
-3.0,30.0,-3.0,-20.0,-7.0,-7.0,5.0,-11.0,1650847884392786.0
-5.0,25.0,5.0,1.0,-10.0,-5.0,-12.0,-3.0,1650847884392786.0
5.0,1.0,8.0,27.0,19.0,7.0,11.0,10.0,1650847884414795.0
4.0,10.0,10.0,22.0,22.0,5.0,3.0,-6.0,1650847884414795.0
-2.0,-13.0,2.0,-4.0,-2.0,-1.0,-26.0,-4.0,1650847884415725.0
10.0,13.0,3.0,1.0,-3.0,-5.0,5.0,12.0,1650847884415725.0
-7.0,11.0,-6.0,-21.0,-17.0,-1.0,11.0,-11.0,1650847884428759.0
-6.0,-38.0,-4.0,-4.0,-4.0,1.0,-5.0,-4.0,1650847884428759.0
0.0,-11.0,-3.0,12.0,4.0,-3.0,-14.0,3.0,1650847884436905.0
-2.0,-11.0,-9.0,-24.0,-2.0,2.0,-8.0,-7.0,1650847884436905.0
4.0,10.0,9.0,25.0,2.0,-3.0,-7.0,-1.0,1650847884451372.0
-6.0,-24.0,2.0,-11.0,3.0,3.0,8.0,0.0,1650847884451372.0
1.0,5.0,32.0,13.0,-7.0,1.0,13.0,6.0,1650847884452303.0
-5.0,-4.0,-45.0,-6.0,7.0,-2.0,-6.0,-4.0,1650847884452303.0
4.0,1.0,12.0,-6.0,0.0,0.0,-3.0,3.0,1650847884474798.0
-7.0,27.0,2.0,5.0,-5.0,-5.0,-21.0,-18.0,1650847884474798.0
14.0,6.0,8.0,-3.0,1.0,7.0,33.0,21.0,1650847884475728.0
-17.0,-54.0,-9.0,-11.0,-11.0,-6.0,-6.0,-4.0,1650847884475728.0
3.0,7.0,7.0,28.0,24.0,13.0,11.0,-5.0,1650847884488850.0
-2.0,6.0,-8.0,-14.0,-13.0,-7.0,-6.0,10.0,1650847884488850.0
-5.0,-2.0,-9.0,-1.0,0.0,-8.0,-27.0,-25.0,1650847884496859.0
1.0,-18.0,13.0,10.0,6.0,11.0,31.0,25.0,1650847884496859.0
9.0,-2.0,-6.0,-7.0,-2.0,3.0,13.0,-1.0,1650847884511905.0
0.0,16.0,1.0,0.0,-8.0,-8.0,4.0,-3.0,1650847884511905.0
-6.0,-55.0,-24.0,-27.0,-2.0,4.0,-41.0,-13.0,1650847884511905.0
4.0,41.0,19.0,43.0,10.0,4.0,41.0,15.0,1650847884511905.0
-7.0,-47.0,-3.0,-15.0,-9.0,-7.0,-13.0,2.0,1650847884534844.0
1.0,9.0,-2.0,4.0,4.0,5.0,3.0,-5.0,1650847884534844.0
2.0,14.0,-4.0,-4.0,3.0,-2.0,-3.0,1.0,1650847884535773.0
-12.0,-42.0,-7.0,-9.0,-9.0,-7.0,-31.0,-25.0,1650847884535773.0
-1.0,18.0,-5.0,-15.0,-8.0,-1.0,11.0,11.0,1650847884548863.0
8.0,43.0,18.0,9.0,1.0,5.0,30.0,15.0,1650847884548863.0
-3.0,-34.0,-22.0,-15.0,-5.0,-2.0,14.0,20.0,1650847884556901.0
1.0,8.0,14.0,23.0,11.0,5.0,-15.0,-28.0,1650847884556901.0
-5.0,-11.0,-22.0,-6.0,-3.0,-3.0,-2.0,-5.0,1650847884571886.0
-5.0,-27.0,-6.0,-10.0,-10.0,-6.0,-10.0,-1.0,1650847884571886.0
3.0,29.0,-3.0,1.0,-4.0,-1.0,-14.0,-9.0,1650847884571886.0
1.0,12.0,21.0,7.0,5.0,5.0,31.0,23.0,1650847884571886.0
-1.0,15.0,3.0,0.0,0.0,-2.0,-8.0,0.0,1650847884594904.0
-2.0,-36.0,-19.0,-13.0,-6.0,0.0,-7.0,-22.0,1650847884594904.0
4.0,5.0,12.0,27.0,18.0,8.0,14.0,20.0,1650847884595836.0
4.0,22.0,-4.0,-18.0,-7.0,-3.0,-10.0,-2.0,1650847884595836.0
-3.0,-13.0,1.0,3.0,-2.0,-1.0,-5.0,-2.0,1650847884608863.0
1.0,16.0,-3.0,-21.0,-9.0,-6.0,16.0,15.0,1650847884608863.0
0.0,8.0,6.0,17.0,4.0,3.0,5.0,-9.0,1650847884616959.0
-1.0,-25.0,2.0,7.0,8.0,3.0,-5.0,-1.0,1650847884616959.0
8.0,50.0,11.0,-6.0,-6.0,0.0,14.0,11.0,1650847884632012.0
-9.0,-25.0,-16.0,-6.0,-4.0,-5.0,-24.0,-12.0,1650847884632012.0
0.0,23.0,10.0,11.0,2.0,-3.0,-5.0,-2.0,1650847884632012.0
2.0,21.0,-11.0,-22.0,-11.0,0.0,24.0,14.0,1650847884632012.0
-2.0,-17.0,6.0,7.0,2.0,2.0,-10.0,-12.0,1650847884654839.0
0.0,7.0,4.0,0.0,-5.0,-4.0,-9.0,-6.0,1650847884654839.0
0.0,3.0,-2.0,6.0,5.0,0.0,-4.0,0.0,1650847884655808.0
0.0,-8.0,5.0,5.0,4.0,-2.0,-19.0,-14.0,1650847884655808.0
-1.0,-1.0,-3.0,4.0,0.0,-1.0,1.0,-1.0,1650847884668808.0
-4.0,-17.0,-5.0,-10.0,-1.0,3.0,5.0,0.0,1650847884668808.0
2.0,17.0,5.0,11.0,-1.0,-1.0,0.0,-3.0,1650847884676805.0
3.0,1.0,0.0,-15.0,-5.0,-7.0,-18.0,-4.0,1650847884676805.0
5.0,9.0,2.0,-7.0,-4.0,-4.0,8.0,8.0,1650847884691764.0
-4.0,-7.0,-2.0,11.0,3.0,-3.0,0.0,0.0,1650847884691764.0
4.0,18.0,3.0,-12.0,-5.0,-3.0,1.0,-5.0,1650847884692696.0
-2.0,-38.0,-6.0,9.0,0.0,5.0,1.0,5.0,1650847884692696.0
-3.0,-1.0,-6.0,-3.0,6.0,0.0,0.0,3.0,1650847884714664.0
3.0,28.0,11.0,3.0,5.0,0.0,-1.0,-5.0,1650847884714664.0
-5.0,-34.0,-14.0,-10.0,-9.0,-4.0,3.0,3.0,1650847884715635.0
1.0,22.0,-1.0,-5.0,-5.0,-3.0,-3.0,-3.0,1650847884715635.0
-4.0,-14.0,1.0,1.0,1.0,-3.0,-1.0,1.0,1650847884736810.0
-2.0,-23.0,-3.0,3.0,2.0,-1.0,-5.0,0.0,1650847884736810.0
-3.0,1.0,0.0,0.0,1.0,0.0,0.0,-3.0,1650847884737740.0
2.0,5.0,2.0,0.0,2.0,0.0,-9.0,-5.0,1650847884737740.0
0.0,1.0,4.0,4.0,-1.0,-1.0,-5.0,-2.0,1650847884751769.0
3.0,12.0,3.0,4.0,1.0,4.0,2.0,1.0,1650847884751769.0
-4.0,-15.0,-8.0,-6.0,-5.0,-3.0,11.0,13.0,1650847884752705.0
1.0,5.0,2.0,-1.0,-2.0,-3.0,-10.0,-18.0,1650847884752705.0
2.0,4.0,1.0,-1.0,-2.0,-1.0,-2.0,1.0,1650847884774707.0
0.0,5.0,2.0,4.0,2.0,1.0,3.0,3.0,1650847884774707.0
-2.0,-4.0,-4.0,-4.0,-3.0,-2.0,1.0,-7.0,1650847884775639.0
0.0,7.0,3.0,2.0,4.0,0.0,-1.0,7.0,1650847884775639.0
-3.0,-12.0,-6.0,-2.0,-1.0,4.0,1.0,0.0,1650847884797647.0
-1.0,-6.0,-1.0,1.0,0.0,0.0,3.0,2.0,1650847884797647.0
2.0,-8.0,4.0,5.0,0.0,-3.0,-7.0,-5.0,1650847884797647.0
4.0,15.0,1.0,0.0,2.0,1.0,7.0,7.0,1650847884797647.0
-3.0,13.0,3.0,2.0,-1.0,-1.0,-5.0,-4.0,1650847884811570.0
5.0,5.0,-2.0,0.0,1.0,2.0,3.0,8.0,1650847884811570.0
-6.0,0.0,0.0,0.0,-3.0,-4.0,-2.0,-4.0,1650847884812540.0
-3.0,-10.0,-4.0,0.0,-1.0,0.0,-3.0,-4.0,1650847884812540.0
3.0,-5.0,-4.0,-6.0,-2.0,2.0,3.0,0.0,1650847884834367.0
-2.0,2.0,0.0,3.0,-1.0,-3.0,2.0,1.0,1650847884834367.0
-3.0,0.0,1.0,-1.0,2.0,3.0,-4.0,-4.0,1650847884835303.0
1.0,9.0,0.0,-4.0,-5.0,-3.0,-3.0,-2.0,1650847884835303.0
-2.0,-13.0,-2.0,5.0,1.0,-1.0,-1.0,-1.0,1650847884857739.0
-2.0,4.0,-4.0,-8.0,-3.0,-1.0,3.0,1.0,1650847884857739.0
0.0,-2.0,2.0,2.0,1.0,1.0,-2.0,0.0,1650847884857739.0
-3.0,-2.0,-3.0,-1.0,-2.0,-2.0,-4.0,-10.0,1650847884857739.0
6.0,-6.0,2.0,3.0,1.0,6.0,9.0,16.0,1650847884871696.0
0.0,8.0,-2.0,1.0,1.0,1.0,1.0,-3.0,1650847884871696.0
2.0,-5.0,4.0,3.0,0.0,0.0,-4.0,0.0,1650847884872708.0
-8.0,-4.0,-16.0,-7.0,-2.0,-5.0,0.0,-11.0,1650847884872708.0
-5.0,2.0,4.0,4.0,-1.0,-8.0,-6.0,-6.0,1650847884894767.0
3.0,4.0,20.0,13.0,6.0,4.0,2.0,2.0,1650847884894767.0
-7.0,-14.0,-14.0,-11.0,-1.0,5.0,6.0,-5.0,1650847884895750.0
11.0,9.0,4.0,-1.0,-5.0,-1.0,1.0,9.0,1650847884895750.0
6.0,3.0,15.0,0.0,4.0,8.0,2.0,5.0,1650847884917662.0
-17.0,-17.0,-57.0,-7.0,-4.0,-7.0,-5.0,-13.0,1650847884917662.0
3.0,2.0,17.0,8.0,2.0,-2.0,1.0,3.0,1650847884917662.0
-4.0,17.0,52.0,7.0,0.0,-1.0,-3.0,-10.0,1650847884917662.0
-2.0,-7.0,-14.0,-16.0,-5.0,-3.0,1.0,2.0,1650847884931387.0
6.0,22.0,18.0,18.0,9.0,6.0,1.0,-2.0,1650847884931387.0
-6.0,-38.0,-101.0,-20.0,-8.0,-4.0,-3.0,-3.0,1650847884932321.0
-1.0,-4.0,41.0,-10.0,-7.0,-3.0,0.0,6.0,1650847884932321.0
3.0,9.0,5.0,4.0,-3.0,-5.0,-4.0,-5.0,1650847884954611.0
-2.0,-3.0,11.0,-6.0,0.0,0.0,0.0,0.0,1650847884954611.0
5.0,12.0,4.0,12.0,7.0,0.0,-1.0,0.0,1650847884954611.0
3.0,-8.0,-26.0,-3.0,4.0,4.0,4.0,8.0,1650847884954611.0
-6.0,-3.0,12.0,4.0,-1.0,-2.0,-3.0,-10.0,1650847884976849.0
4.0,-1.0,3.0,1.0,1.0,1.0,2.0,5.0,1650847884976849.0
-3.0,-7.0,-40.0,-11.0,-4.0,-4.0,-4.0,-3.0,1650847884977780.0
5.0,0.0,15.0,-1.0,-5.0,-1.0,1.0,5.0,1650847884977780.0
-5.0,-6.0,-43.0,-12.0,1.0,-2.0,-2.0,-18.0,1650847884991930.0
3.0,2.0,23.0,5.0,1.0,6.0,3.0,22.0,1650847884991930.0
1.0,14.0,42.0,12.0,-2.0,-3.0,-3.0,-3.0,1650847884991930.0
3.0,25.0,69.0,15.0,4.0,2.0,0.0,6.0,1650847884991930.0
-20.0,-36.0,-98.0,-19.0,-6.0,-4.0,-4.0,-17.0,1650847885013797.0
11.0,10.0,32.0,-3.0,-5.0,-4.0,-1.0,-3.0,1650847885013797.0
-2.0,-3.0,-6.0,2.0,3.0,2.0,-1.0,-4.0,1650847885014733.0
1.0,-9.0,-21.0,-13.0,-3.0,-2.0,-4.0,5.0,1650847885014733.0
6.0,19.0,51.0,18.0,5.0,8.0,10.0,9.0,1650847885037468.0
-10.0,-21.0,-31.0,-9.0,-4.0,-2.0,-3.0,-6.0,1650847885037468.0
1.0,15.0,26.0,0.0,-1.0,-1.0,1.0,4.0,1650847885038398.0
-1.0,1.0,-22.0,8.0,2.0,0.0,-4.0,-7.0,1650847885038398.0
4.0,17.0,27.0,3.0,-2.0,-2.0,-4.0,4.0,1650847885051430.0
-6.0,-27.0,-33.0,-4.0,-1.0,-1.0,2.0,-4.0,1650847885051430.0
6.0,17.0,33.0,9.0,-1.0,2.0,0.0,3.0,1650847885052361.0
-4.0,-11.0,-28.0,-9.0,1.0,1.0,3.0,0.0,1650847885052361.0
1.0,3.0,9.0,3.0,-2.0,-3.0,-2.0,2.0,1650847885082491.0
3.0,3.0,1.0,-8.0,-4.0,-1.0,1.0,1.0,1650847885082491.0
-4.0,-5.0,0.0,0.0,1.0,1.0,1.0,-1.0,1650847885083428.0
-4.0,-8.0,-39.0,-5.0,-1.0,-1.0,-1.0,-3.0,1650847885083428.0
1.0,0.0,6.0,-1.0,-2.0,-1.0,-1.0,5.0,1650847885097454.0
2.0,11.0,21.0,10.0,0.0,-1.0,-2.0,-3.0,1650847885097454.0
-1.0,2.0,16.0,-2.0,0.0,2.0,1.0,-1.0,1650847885098409.0
-4.0,-9.0,-20.0,-1.0,-2.0,-2.0,-2.0,-3.0,1650847885098409.0
6.0,2.0,5.0,3.0,2.0,-1.0,-2.0,2.0,1650847885112431.0
-4.0,-6.0,-14.0,-6.0,-1.0,0.0,-2.0,-2.0,1650847885112431.0
0.0,3.0,-2.0,-3.0,-3.0,-1.0,-1.0,-1.0,1650847885112431.0
1.0,1.0,-1.0,0.0,0.0,0.0,0.0,1.0,1650847885112431.0
-1.0,-5.0,13.0,3.0,1.0,-3.0,-2.0,2.0,1650847885134395.0
-1.0,2.0,-9.0,-3.0,-2.0,-3.0,1.0,1.0,1650847885134395.0
0.0,0.0,3.0,1.0,2.0,2.0,1.0,0.0,1650847885134395.0
-1.0,0.0,-3.0,1.0,-1.0,-2.0,1.0,-2.0,1650847885134395.0
2.0,0.0,-2.0,2.0,1.0,0.0,1.0,1.0,1650847885156871.0
-2.0,2.0,1.0,0.0,2.0,0.0,-2.0,-2.0,1650847885156871.0
-2.0,-4.0,0.0,-1.0,-2.0,-4.0,-1.0,1.0,1650847885157803.0
-1.0,-1.0,-5.0,0.0,-1.0,1.0,1.0,1.0,1650847885157803.0
-1.0,-1.0,-3.0,4.0,2.0,5.0,0.0,-2.0,1650847885171765.0
-1.0,2.0,4.0,-7.0,-1.0,-2.0,-1.0,-1.0,1650847885171765.0
-2.0,-1.0,-3.0,-3.0,-1.0,0.0,-1.0,-2.0,1650847885172765.0
-1.0,0.0,-1.0,1.0,-1.0,-1.0,-1.0,-2.0,1650847885172765.0
1.0,-2.0,3.0,-1.0,-4.0,-4.0,-1.0,1.0,1650847885193825.0
0.0,1.0,-10.0,-2.0,-2.0,1.0,0.0,-1.0,1650847885193825.0
0.0,-1.0,11.0,3.0,1.0,-1.0,-1.0,0.0,1650847885194756.0
-1.0,-2.0,-6.0,-3.0,1.0,1.0,0.0,-1.0,1650847885194756.0
1.0,2.0,4.0,2.0,-3.0,0.0,-1.0,-1.0,1650847885217693.0
-1.0,1.0,3.0,-1.0,-1.0,-1.0,1.0,0.0,1650847885217693.0
0.0,1.0,-5.0,-3.0,-1.0,0.0,0.0,1.0,1650847885217693.0
-1.0,0.0,1.0,4.0,-1.0,1.0,0.0,-1.0,1650847885217693.0
-1.0,-5.0,2.0,-1.0,1.0,0.0,0.0,1.0,1650847885231771.0
-2.0,-2.0,-9.0,-3.0,-2.0,-2.0,-1.0,-1.0,1650847885231771.0
0.0,1.0,3.0,2.0,0.0,-1.0,-2.0,-3.0,1650847885232737.0
-1.0,-1.0,7.0,0.0,-3.0,-2.0,-2.0,-2.0,1650847885232737.0
-1.0,1.0,-6.0,-2.0,3.0,2.0,1.0,0.0,1650847885253810.0
1.0,1.0,22.0,4.0,-1.0,0.0,1.0,1.0,1650847885253810.0
-1.0,-6.0,-25.0,-3.0,0.0,-1.0,-1.0,0.0,1650847885254740.0
3.0,0.0,0.0,1.0,0.0,0.0,0.0,2.0,1650847885254740.0
-6.0,1.0,-1.0,-2.0,-4.0,-3.0,0.0,-6.0,1650847885276932.0
1.0,0.0,1.0,2.0,2.0,1.0,0.0,-1.0,1650847885276932.0
-1.0,0.0,7.0,2.0,-1.0,0.0,-1.0,-1.0,1650847885277898.0
0.0,0.0,-1.0,-3.0,-1.0,0.0,-1.0,2.0,1650847885277898.0
-1.0,-1.0,-5.0,-4.0,0.0,1.0,0.0,1.0,1650847885290932.0
-2.0,1.0,-2.0,1.0,-1.0,0.0,0.0,-1.0,1650847885290932.0
-2.0,0.0,3.0,-3.0,-2.0,-2.0,-1.0,1.0,1650847885298846.0
-2.0,-2.0,-11.0,-3.0,0.0,0.0,1.0,-3.0,1650847885298846.0
0.0,-3.0,16.0,4.0,0.0,2.0,-2.0,0.0,1650847885314366.0
-1.0,-1.0,-6.0,-1.0,1.0,0.0,0.0,-2.0,1650847885314366.0
2.0,1.0,8.0,-1.0,-2.0,1.0,0.0,0.0,1650847885315295.0
1.0,0.0,-5.0,-1.0,2.0,-1.0,2.0,-1.0,1650847885315295.0
-1.0,-2.0,-13.0,-7.0,-3.0,-3.0,1.0,1.0,1650847885337417.0
1.0,1.0,12.0,7.0,1.0,2.0,-2.0,0.0,1650847885337417.0
-1.0,-3.0,-11.0,-1.0,-2.0,0.0,-1.0,-2.0,1650847885338375.0
0.0,0.0,2.0,0.0,0.0,1.0,0.0,-1.0,1650847885338375.0
1.0,1.0,-1.0,0.0,-1.0,-2.0,-2.0,2.0,1650847885351362.0
1.0,-1.0,-4.0,-5.0,-3.0,-2.0,0.0,0.0,1650847885351362.0
-1.0,3.0,5.0,4.0,4.0,0.0,0.0,0.0,1650847885359168.0
-1.0,-4.0,-8.0,-2.0,-1.0,-2.0,-1.0,-1.0,1650847885359168.0
1.0,-1.0,1.0,-3.0,0.0,0.0,2.0,0.0,1650847885373873.0
-1.0,-1.0,-4.0,-1.0,-3.0,-2.0,1.0,-1.0,1650847885373873.0
2.0,-1.0,6.0,-9.0,-4.0,-1.0,-1.0,-1.0,1650847885374814.0
-1.0,3.0,-3.0,8.0,2.0,2.0,-1.0,0.0,1650847885374814.0
-2.0,-1.0,5.0,3.0,2.0,0.0,0.0,0.0,1650847885396971.0
-1.0,-1.0,0.0,0.0,0.0,0.0,1.0,-1.0,1650847885396971.0
-1.0,-1.0,-1.0,0.0,-2.0,-2.0,0.0,0.0,1650847885397941.0
-2.0,0.0,1.0,-2.0,-1.0,0.0,0.0,0.0,1650847885397941.0
0.0,-1.0,-4.0,-2.0,-3.0,-2.0,-1.0,-2.0,1650847885411015.0
0.0,-4.0,-4.0,-1.0,-3.0,-2.0,0.0,1.0,1650847885411015.0
2.0,4.0,-2.0,-4.0,-3.0,0.0,2.0,1.0,1650847885419507.0
-4.0,-10.0,-2.0,2.0,2.0,0.0,-1.0,-3.0,1650847885419507.0
2.0,1.0,-2.0,2.0,1.0,0.0,-1.0,-1.0,1650847885433644.0
0.0,3.0,-1.0,-1.0,0.0,-1.0,-2.0,0.0,1650847885433644.0
-2.0,-1.0,2.0,-1.0,-1.0,-2.0,-1.0,-1.0,1650847885434575.0
-1.0,-2.0,-1.0,0.0,-1.0,-1.0,0.0,-2.0,1650847885434575.0
0.0,-1.0,-2.0,1.0,0.0,0.0,-1.0,-2.0,1650847885457659.0
-1.0,-2.0,-1.0,-2.0,-2.0,-1.0,0.0,-1.0,1650847885457659.0
0.0,-3.0,-8.0,-1.0,-1.0,-1.0,0.0,1.0,1650847885457659.0
1.0,2.0,3.0,-1.0,-1.0,-2.0,-1.0,-1.0,1650847885457659.0
-1.0,-3.0,2.0,0.0,0.0,0.0,-1.0,1.0,1650847885470891.0
3.0,2.0,-1.0,2.0,0.0,0.0,0.0,1.0,1650847885470891.0
-4.0,-5.0,-14.0,-8.0,0.0,0.0,1.0,-3.0,1650847885478870.0
0.0,3.0,6.0,3.0,-1.0,-1.0,-2.0,0.0,1650847885478870.0
-1.0,-1.0,1.0,0.0,0.0,-1.0,2.0,0.0,1650847885493920.0
1.0,0.0,-2.0,0.0,0.0,-1.0,-1.0,0.0,1650847885493920.0
1.0,0.0,3.0,1.0,-2.0,0.0,-1.0,0.0,1650847885494880.0
-1.0,-1.0,-1.0,0.0,0.0,0.0,-1.0,-1.0,1650847885494880.0
0.0,1.0,-7.0,-6.0,-6.0,-2.0,-1.0,-2.0,1650847885516907.0
-3.0,-3.0,4.0,4.0,4.0,2.0,0.0,-1.0,1650847885516907.0
0.0,-2.0,0.0,2.0,1.0,1.0,1.0,-1.0,1650847885517877.0
0.0,0.0,-2.0,-2.0,1.0,2.0,0.0,0.0,1650847885517877.0
0.0,1.0,0.0,-1.0,-2.0,-2.0,-1.0,0.0,1650847885531037.0
-1.0,-1.0,-3.0,-3.0,-3.0,-2.0,-1.0,-1.0,1650847885531037.0
-1.0,2.0,1.0,-2.0,-2.0,0.0,-1.0,0.0,1650847885538991.0
2.0,0.0,3.0,1.0,0.0,-2.0,-1.0,0.0,1650847885538991.0
1.0,-1.0,-1.0,-1.0,2.0,1.0,1.0,-1.0,1650847885553970.0
-1.0,0.0,0.0,-1.0,0.0,-1.0,0.0,0.0,1650847885553970.0
1.0,1.0,3.0,0.0,1.0,0.0,0.0,-1.0,1650847885554905.0
-1.0,1.0,-2.0,-3.0,-5.0,-3.0,-2.0,2.0,1650847885554905.0
-2.0,-2.0,0.0,0.0,1.0,0.0,-2.0,0.0,1650847885577411.0
0.0,0.0,-4.0,-4.0,-3.0,-2.0,0.0,-1.0,1650847885577411.0
-1.0,-5.0,-1.0,-2.0,-1.0,0.0,0.0,3.0,1650847885578338.0
-1.0,0.0,-6.0,-3.0,-4.0,-2.0,-2.0,0.0,1650847885578338.0
0.0,5.0,10.0,5.0,0.0,-1.0,-2.0,-3.0,1650847885590427.0
-1.0,0.0,2.0,1.0,0.0,-1.0,-1.0,1.0,1650847885590427.0
0.0,-1.0,3.0,3.0,2.0,1.0,0.0,-1.0,1650847885599489.0
0.0,-3.0,-7.0,-4.0,0.0,0.0,1.0,-1.0,1650847885599489.0
1.0,2.0,-5.0,-4.0,-2.0,-1.0,-1.0,2.0,1650847885613689.0
-6.0,-1.0,-2.0,-2.0,0.0,0.0,0.0,-6.0,1650847885613689.0
1.0,1.0,4.0,0.0,0.0,-2.0,-2.0,-1.0,1650847885614621.0
-1.0,1.0,6.0,0.0,-1.0,-1.0,-1.0,0.0,1650847885614621.0
-1.0,-1.0,-3.0,2.0,0.0,0.0,-1.0,0.0,1650847885637625.0
2.0,2.0,-1.0,1.0,0.0,-1.0,1.0,1.0,1650847885637625.0
-1.0,-3.0,-5.0,-2.0,0.0,-1.0,-1.0,0.0,1650847885637625.0
-1.0,0.0,-1.0,0.0,-1.0,-1.0,-1.0,-1.0,1650847885637625.0
2.0,1.0,1.0,-2.0,-2.0,-2.0,-2.0,2.0,1650847885659823.0
-2.0,-4.0,-1.0,-4.0,-4.0,-1.0,-1.0,0.0,1650847885659823.0
-1.0,1.0,2.0,5.0,3.0,1.0,-1.0,-2.0,1650847885660823.0
1.0,0.0,4.0,1.0,0.0,-1.0,0.0,-1.0,1650847885660823.0
-4.0,-2.0,-13.0,-6.0,0.0,1.0,-1.0,-3.0,1650847885673796.0
-1.0,-2.0,7.0,2.0,-3.0,-3.0,-1.0,1.0,1650847885673796.0
0.0,0.0,-2.0,1.0,1.0,1.0,1.0,0.0,1650847885674785.0
-2.0,-1.0,1.0,-1.0,-1.0,1.0,1.0,-1.0,1650847885674785.0
-1.0,-2.0,0.0,-2.0,0.0,1.0,0.0,0.0,1650847885697747.0
1.0,-2.0,-5.0,-4.0,0.0,0.0,-2.0,0.0,1650847885697747.0
1.0,0.0,3.0,1.0,-2.0,-2.0,-1.0,-1.0,1650847885697747.0
0.0,0.0,-1.0,2.0,2.0,0.0,-1.0,0.0,1650847885697747.0
-1.0,-2.0,1.0,-1.0,-3.0,0.0,0.0,-2.0,1650847885719836.0
0.0,-1.0,-7.0,-4.0,-4.0,-1.0,0.0,-1.0,1650847885719836.0
-1.0,0.0,0.0,3.0,2.0,-1.0,1.0,-1.0,1650847885720864.0
-1.0,-2.0,-3.0,-3.0,-2.0,1.0,0.0,-2.0,1650847885720864.0
0.0,2.0,10.0,6.0,0.0,-1.0,-2.0,-1.0,1650847885733868.0
-1.0,-5.0,-4.0,-1.0,0.0,-2.0,-2.0,-1.0,1650847885733868.0
1.0,0.0,0.0,-2.0,-7.0,0.0,-1.0,0.0,1650847885734800.0
1.0,1.0,-4.0,0.0,0.0,-2.0,0.0,3.0,1650847885734800.0
-2.0,-2.0,-3.0,-1.0,2.0,0.0,1.0,-2.0,1650847885756891.0
1.0,1.0,-3.0,-2.0,1.0,0.0,1.0,0.0,1650847885756891.0
-1.0,4.0,13.0,2.0,-2.0,-1.0,-2.0,1.0,1650847885757878.0
-2.0,-2.0,-2.0,-3.0,-4.0,-1.0,1.0,-1.0,1650847885757878.0
1.0,1.0,3.0,2.0,1.0,-1.0,0.0,2.0,1650847885779925.0
-1.0,-1.0,-4.0,-5.0,-2.0,-1.0,1.0,-2.0,1650847885779925.0
0.0,-1.0,-2.0,1.0,4.0,0.0,1.0,-2.0,1650847885780895.0
0.0,0.0,2.0,-4.0,0.0,0.0,0.0,0.0,1650847885780895.0
-2.0,-2.0,-4.0,0.0,-2.0,-2.0,-1.0,-1.0,1650847885793926.0
-1.0,-2.0,0.0,2.0,2.0,3.0,-2.0,-2.0,1650847885793926.0
-1.0,1.0,-1.0,0.0,0.0,-3.0,0.0,1.0,1650847885794859.0
-1.0,-2.0,1.0,1.0,-1.0,1.0,-1.0,-2.0,1650847885794859.0
0.0,-3.0,-2.0,-2.0,0.0,0.0,-1.0,0.0,1650847885817734.0
-1.0,4.0,1.0,3.0,1.0,-2.0,-2.0,-1.0,1650847885817734.0
1.0,-4.0,-2.0,-4.0,-4.0,-1.0,-1.0,0.0,1650847885817734.0
0.0,-2.0,-3.0,-3.0,1.0,-1.0,-1.0,-1.0,1650847885817734.0
0.0,0.0,-1.0,-1.0,-3.0,0.0,1.0,-1.0,1650847885839891.0
1.0,1.0,-1.0,0.0,2.0,3.0,-1.0,0.0,1650847885839891.0
-4.0,-1.0,-1.0,-2.0,2.0,-1.0,-2.0,-1.0,1650847885840894.0
-2.0,-1.0,2.0,0.0,-4.0,-3.0,-1.0,0.0,1650847885840894.0
-1.0,1.0,0.0,0.0,-1.0,1.0,0.0,2.0,1650847885853916.0
0.0,-1.0,3.0,3.0,4.0,-1.0,-1.0,0.0,1650847885853916.0
-1.0,-5.0,-8.0,-1.0,0.0,0.0,0.0,-1.0,1650847885854851.0
0.0,1.0,0.0,1.0,1.0,-1.0,-1.0,0.0,1650847885854851.0
0.0,2.0,0.0,-4.0,-2.0,-2.0,-3.0,0.0,1650847885877057.0
-1.0,1.0,3.0,3.0,-1.0,-1.0,-1.0,-1.0,1650847885877057.0
-1.0,2.0,1.0,2.0,3.0,0.0,0.0,-1.0,1650847885877998.0
0.0,1.0,-4.0,-5.0,-3.0,-1.0,0.0,-2.0,1650847885877998.0
1.0,-2.0,0.0,1.0,-1.0,0.0,-1.0,-2.0,1650847885900092.0
4.0,3.0,2.0,2.0,1.0,0.0,0.0,0.0,1650847885900092.0
-3.0,-3.0,-2.0,0.0,-1.0,1.0,0.0,-2.0,1650847885900092.0
-1.0,-1.0,-1.0,-1.0,4.0,1.0,1.0,1.0,1650847885900092.0
-2.0,-3.0,-3.0,-1.0,0.0,-2.0,-3.0,-4.0,1650847885914054.0
3.0,0.0,0.0,-3.0,-7.0,-5.0,0.0,6.0,1650847885914054.0
1.0,0.0,-1.0,-2.0,-5.0,-2.0,-1.0,0.0,1650847885914986.0
-1.0,1.0,2.0,4.0,3.0,-1.0,-1.0,-1.0,1650847885914986.0
0.0,-3.0,-3.0,-3.0,-2.0,0.0,0.0,-2.0,1650847885936993.0
-2.0,-1.0,-1.0,0.0,-1.0,-2.0,-4.0,-1.0,1650847885936993.0
0.0,0.0,-2.0,-3.0,-4.0,-1.0,-1.0,0.0,1650847885937924.0
0.0,-3.0,2.0,1.0,-2.0,0.0,-2.0,-2.0,1650847885937924.0
1.0,0.0,-1.0,1.0,1.0,-2.0,0.0,0.0,1650847885959822.0
-2.0,-1.0,0.0,-3.0,-2.0,-1.0,0.0,-3.0,1650847885959822.0
-2.0,0.0,-2.0,1.0,0.0,0.0,0.0,0.0,1650847885960853.0
1.0,0.0,2.0,1.0,1.0,2.0,0.0,0.0,1650847885960853.0
0.0,-1.0,-1.0,-3.0,-1.0,-2.0,0.0,-1.0,1650847885973747.0
-2.0,-1.0,-1.0,-2.0,-1.0,0.0,-1.0,0.0,1650847885973747.0
0.0,1.0,-2.0,-4.0,-1.0,-3.0,-1.0,-2.0,1650847885974744.0
-3.0,-2.0,2.0,2.0,1.0,1.0,-1.0,-1.0,1650847885974744.0
-1.0,0.0,0.0,-1.0,-3.0,-2.0,2.0,1.0,1650847885997757.0
1.0,-2.0,1.0,-1.0,-1.0,0.0,0.0,1.0,1650847885997757.0
-3.0,0.0,0.0,0.0,-1.0,-2.0,-2.0,-1.0,1650847885997757.0
1.0,1.0,-4.0,-5.0,-5.0,-1.0,-2.0,-2.0,1650847885997757.0
1.0,0.0,-2.0,0.0,1.0,-1.0,0.0,0.0,1650847886019755.0
-2.0,-1.0,-1.0,0.0,0.0,-5.0,-2.0,-3.0,1650847886019755.0
-2.0,-2.0,0.0,2.0,3.0,10.0,2.0,-1.0,1650847886020781.0
1.0,1.0,-3.0,-3.0,-5.0,-6.0,-1.0,2.0,1650847886020781.0
-2.0,0.0,1.0,3.0,2.0,5.0,-1.0,-2.0,1650847886033787.0
1.0,1.0,-1.0,0.0,0.0,-3.0,-2.0,0.0,1650847886033787.0
1.0,-2.0,1.0,-1.0,-2.0,-1.0,-3.0,-1.0,1650847886034717.0
-1.0,0.0,1.0,0.0,2.0,0.0,-1.0,-1.0,1650847886034717.0
-1.0,-2.0,-4.0,-6.0,-4.0,-8.0,-3.0,0.0,1650847886056752.0
-1.0,-2.0,0.0,0.0,-1.0,3.0,5.0,1.0,1650847886056752.0
1.0,2.0,-4.0,0.0,2.0,1.0,1.0,1.0,1650847886057750.0
-2.0,0.0,-1.0,0.0,-2.0,1.0,-1.0,0.0,1650847886057750.0
0.0,0.0,3.0,2.0,2.0,1.0,-2.0,-1.0,1650847886079709.0
-1.0,-1.0,0.0,-1.0,-2.0,0.0,-2.0,-3.0,1650847886079709.0
-1.0,-3.0,0.0,-2.0,-3.0,-4.0,-2.0,-1.0,1650847886080679.0
-1.0,3.0,0.0,0.0,-3.0,2.0,2.0,0.0,1650847886080679.0
-3.0,-3.0,-1.0,2.0,2.0,0.0,2.0,-1.0,1650847886093711.0
-2.0,0.0,0.0,1.0,1.0,1.0,-1.0,0.0,1650847886093711.0
-2.0,0.0,-3.0,0.0,0.0,1.0,0.0,-3.0,1650847886094645.0
-1.0,-1.0,-1.0,0.0,0.0,-3.0,-3.0,0.0,1650847886094645.0
-2.0,-1.0,0.0,-3.0,-5.0,-3.0,1.0,-1.0,1650847886117663.0
-1.0,-1.0,0.0,0.0,0.0,2.0,0.0,-1.0,1650847886117663.0
-2.0,-3.0,-2.0,-1.0,-2.0,-15.0,-6.0,-1.0,1650847886117663.0
0.0,-1.0,0.0,1.0,2.0,13.0,6.0,-1.0,1650847886117663.0
-1.0,0.0,0.0,-1.0,-7.0,-10.0,-4.0,0.0,1650847886139677.0
-1.0,1.0,-2.0,-2.0,5.0,16.0,10.0,1.0,1650847886139677.0
-1.0,-1.0,0.0,1.0,1.0,-4.0,-2.0,0.0,1650847886140608.0
0.0,-4.0,-3.0,0.0,-1.0,-5.0,-3.0,0.0,1650847886140608.0
2.0,1.0,-1.0,-1.0,-1.0,-2.0,-1.0,-1.0,1650847886154580.0
0.0,-1.0,0.0,-1.0,-4.0,-7.0,-6.0,-4.0,1650847886154580.0
0.0,-1.0,0.0,-1.0,0.0,3.0,1.0,-1.0,1650847886154580.0
-2.0,-1.0,-2.0,1.0,-1.0,-3.0,-1.0,-2.0,1650847886154580.0
0.0,-1.0,0.0,-1.0,-3.0,3.0,1.0,0.0,1650847886176903.0
0.0,2.0,1.0,0.0,0.0,-4.0,-2.0,0.0,1650847886176903.0
0.0,1.0,-1.0,-4.0,0.0,3.0,2.0,-3.0,1650847886177839.0
0.0,0.0,0.0,2.0,0.0,-4.0,-1.0,-2.0,1650847886177839.0
-2.0,-2.0,-1.0,2.0,1.0,3.0,0.0,1.0,1650847886199358.0
0.0,0.0,-3.0,0.0,-3.0,-3.0,-1.0,0.0,1650847886199358.0
-1.0,-1.0,2.0,1.0,-1.0,1.0,1.0,1.0,1650847886200358.0
0.0,0.0,-1.0,-1.0,0.0,-1.0,0.0,-2.0,1650847886200358.0
-1.0,-1.0,-2.0,0.0,-1.0,1.0,0.0,1.0,1650847886214381.0
-3.0,-2.0,1.0,0.0,4.0,2.0,-1.0,-1.0,1650847886214381.0
-1.0,-2.0,-1.0,-2.0,-2.0,1.0,1.0,0.0,1650847886214381.0
0.0,4.0,-2.0,-5.0,-1.0,-5.0,-6.0,-2.0,1650847886214381.0
0.0,-3.0,1.0,1.0,2.0,2.0,1.0,-1.0,1650847886237476.0
0.0,-1.0,-1.0,-1.0,-7.0,-2.0,-2.0,0.0,1650847886237476.0
1.0,-2.0,0.0,2.0,0.0,-7.0,-3.0,-1.0,1650847886238422.0
-3.0,0.0,-1.0,2.0,1.0,5.0,1.0,-1.0,1650847886238422.0
-1.0,1.0,0.0,-3.0,0.0,0.0,-2.0,1.0,1650847886259416.0
-1.0,-1.0,-2.0,1.0,3.0,-1.0,-1.0,-1.0,1650847886259416.0
-2.0,0.0,-1.0,-4.0,-8.0,-12.0,-3.0,0.0,1650847886260347.0
-1.0,-4.0,0.0,-2.0,-3.0,2.0,1.0,-1.0,1650847886260347.0
-2.0,-2.0,0.0,3.0,5.0,0.0,-2.0,-1.0,1650847886273379.0
-1.0,3.0,-1.0,-1.0,-4.0,-3.0,-1.0,1.0,1650847886273379.0
0.0,0.0,-1.0,0.0,0.0,1.0,1.0,-1.0,1650847886281318.0
1.0,0.0,1.0,-1.0,-3.0,-4.0,0.0,1.0,1650847886281318.0
0.0,0.0,-1.0,0.0,-2.0,0.0,1.0,1.0,1650847886296862.0
0.0,-3.0,-1.0,-1.0,0.0,-6.0,-6.0,-2.0,1650847886296862.0
0.0,2.0,-1.0,0.0,1.0,13.0,8.0,0.0,1650847886297863.0
0.0,-1.0,0.0,-1.0,-2.0,-3.0,0.0,2.0,1650847886297863.0
1.0,0.0,0.0,3.0,8.0,3.0,2.0,-1.0,1650847886320826.0
-2.0,-2.0,-2.0,-1.0,-3.0,-5.0,-3.0,-1.0,1650847886320826.0
0.0,2.0,-2.0,-1.0,-3.0,-1.0,-5.0,-3.0,1650847886320826.0
0.0,-3.0,0.0,-1.0,0.0,0.0,-1.0,1.0,1650847886320826.0
0.0,1.0,1.0,-1.0,-1.0,3.0,3.0,1.0,1650847886333409.0
0.0,-1.0,0.0,-1.0,0.0,2.0,3.0,1.0,1650847886333409.0
1.0,-1.0,0.0,2.0,0.0,2.0,0.0,2.0,1650847886341515.0
1.0,1.0,-2.0,-3.0,-1.0,1.0,0.0,-2.0,1650847886341515.0
0.0,-2.0,-1.0,-1.0,2.0,1.0,-1.0,-2.0,1650847886357595.0
-2.0,0.0,1.0,0.0,-3.0,-5.0,2.0,-2.0,1650847886357595.0
-1.0,-2.0,0.0,1.0,-2.0,2.0,0.0,0.0,1650847886357595.0
1.0,1.0,0.0,-1.0,-2.0,-4.0,-4.0,-1.0,1650847886357595.0
-1.0,-2.0,0.0,1.0,0.0,-1.0,-2.0,-3.0,1650847886379787.0
0.0,0.0,1.0,-1.0,2.0,5.0,2.0,-1.0,1650847886379787.0
0.0,0.0,0.0,-1.0,-2.0,-1.0,1.0,2.0,1650847886380784.0
-2.0,-2.0,-1.0,3.0,0.0,-9.0,-3.0,-1.0,1650847886380784.0
-2.0,0.0,-3.0,-4.0,-6.0,-5.0,-4.0,-3.0,1650847886393835.0
1.0,0.0,-1.0,2.0,2.0,9.0,5.0,3.0,1650847886393835.0
1.0,1.0,1.0,1.0,4.0,2.0,3.0,-1.0,1650847886402730.0
-1.0,-1.0,1.0,1.0,3.0,7.0,5.0,0.0,1650847886402730.0
0.0,-2.0,-3.0,-4.0,-9.0,-15.0,-11.0,-3.0,1650847886416842.0
0.0,0.0,-1.0,0.0,-1.0,-4.0,-3.0,0.0,1650847886416842.0
0.0,3.0,-1.0,-1.0,2.0,5.0,4.0,0.0,1650847886418771.0
-1.0,-1.0,0.0,1.0,4.0,14.0,11.0,3.0,1650847886418771.0
1.0,5.0,3.0,3.0,-1.0,-4.0,0.0,1.0,1650847886440179.0
-1.0,-10.0,-10.0,-10.0,-10.0,-12.0,-11.0,-5.0,1650847886440179.0
-1.0,-2.0,1.0,3.0,2.0,3.0,-3.0,-2.0,1650847886441183.0
0.0,4.0,-2.0,-6.0,-1.0,-2.0,6.0,2.0,1650847886441183.0
-3.0,1.0,0.0,0.0,0.0,2.0,2.0,0.0,1650847886453207.0
-2.0,3.0,1.0,2.0,0.0,4.0,-3.0,-2.0,1650847886453207.0
1.0,2.0,-1.0,2.0,-3.0,-7.0,-1.0,-1.0,1650847886462137.0
-1.0,-1.0,-5.0,-5.0,-1.0,4.0,0.0,1.0,1650847886462137.0
2.0,-2.0,1.0,0.0,-2.0,0.0,-1.0,1.0,1650847886476169.0
-1.0,-2.0,-4.0,1.0,4.0,3.0,2.0,1.0,1650847886476169.0
-1.0,-8.0,-9.0,-8.0,-3.0,-2.0,-3.0,-1.0,1650847886485079.0
1.0,6.0,3.0,3.0,-1.0,0.0,-1.0,0.0,1650847886485079.0
0.0,-2.0,-2.0,-3.0,-2.0,-1.0,-3.0,-1.0,1650847886500098.0
3.0,-2.0,8.0,4.0,3.0,-6.0,3.0,5.0,1650847886500098.0
-7.0,-1.0,-11.0,-2.0,-3.0,4.0,-3.0,-6.0,1650847886501048.0
2.0,-2.0,8.0,6.0,7.0,10.0,7.0,1.0,1650847886501048.0
-1.0,-6.0,-8.0,-6.0,-5.0,-2.0,3.0,-1.0,1650847886513003.0
-2.0,4.0,2.0,2.0,-2.0,2.0,3.0,0.0,1650847886513003.0
2.0,-2.0,2.0,0.0,-1.0,-9.0,-1.0,14.0,1650847886522035.0
-4.0,-2.0,2.0,3.0,-3.0,-4.0,-13.0,-20.0,1650847886522035.0
-4.0,7.0,1.0,-2.0,1.0,5.0,2.0,-1.0,1650847886536009.0
3.0,-2.0,5.0,-1.0,0.0,-4.0,1.0,1.0,1650847886536009.0
-4.0,-2.0,1.0,3.0,-1.0,-1.0,1.0,6.0,1650847886544946.0
3.0,-4.0,2.0,-1.0,-4.0,-6.0,-6.0,2.0,1650847886544946.0
4.0,2.0,8.0,5.0,-1.0,-4.0,1.0,2.0,1650847886560037.0
-3.0,6.0,-14.0,-4.0,-1.0,6.0,-1.0,-5.0,1650847886560037.0
-2.0,-4.0,4.0,-5.0,-4.0,-1.0,-3.0,0.0,1650847886560971.0
-5.0,-4.0,-2.0,4.0,-3.0,-16.0,-10.0,-1.0,1650847886560971.0
3.0,-1.0,-13.0,0.0,-3.0,-3.0,3.0,0.0,1650847886572935.0
6.0,-3.0,-12.0,-17.0,0.0,14.0,7.0,13.0,1650847886572935.0
-12.0,-2.0,0.0,1.0,-1.0,-2.0,-5.0,-24.0,1650847886581980.0
2.0,-1.0,-3.0,0.0,4.0,6.0,6.0,6.0,1650847886581980.0
2.0,8.0,10.0,-3.0,-2.0,-6.0,-4.0,-12.0,1650847886596293.0
6.0,-8.0,1.0,5.0,-5.0,-4.0,-2.0,32.0,1650847886596293.0
-5.0,2.0,15.0,8.0,7.0,-4.0,-2.0,-8.0,1650847886605271.0
-2.0,-11.0,-25.0,-19.0,-6.0,2.0,-2.0,-2.0,1650847886605271.0
-11.0,-6.0,-3.0,4.0,7.0,8.0,6.0,-3.0,1650847886620234.0
5.0,12.0,0.0,-2.0,-1.0,-5.0,-3.0,-8.0,1650847886620234.0
5.0,-12.0,10.0,3.0,1.0,2.0,1.0,3.0,1650847886621225.0
2.0,19.0,11.0,6.0,0.0,-6.0,-2.0,3.0,1650847886621225.0
-3.0,-10.0,-1.0,3.0,3.0,9.0,3.0,5.0,1650847886641859.0
-1.0,12.0,9.0,7.0,0.0,-5.0,-1.0,-10.0,1650847886641859.0
0.0,-1.0,-19.0,-13.0,-7.0,0.0,-2.0,0.0,1650847886643854.0
3.0,-6.0,9.0,14.0,2.0,-2.0,4.0,0.0,1650847886643854.0
14.0,14.0,-9.0,-27.0,-8.0,-3.0,-1.0,0.0,1650847886655899.0
-14.0,-16.0,20.0,13.0,10.0,8.0,5.0,4.0,1650847886655899.0
7.0,7.0,-7.0,13.0,2.0,-6.0,-3.0,-3.0,1650847886671821.0
-2.0,-4.0,-16.0,-20.0,-5.0,-5.0,-8.0,6.0,1650847886671821.0
10.0,9.0,7.0,15.0,7.0,15.0,18.0,13.0,1650847886679799.0
-11.0,-11.0,8.0,2.0,-4.0,-14.0,-13.0,-18.0,1650847886679799.0
8.0,1.0,-9.0,-9.0,-4.0,-3.0,2.0,11.0,1650847886681767.0
-13.0,-3.0,-10.0,3.0,1.0,4.0,-2.0,-16.0,1650847886681767.0
0.0,-12.0,7.0,8.0,5.0,-6.0,-12.0,-21.0,1650847886702780.0
-7.0,0.0,-1.0,-2.0,-2.0,3.0,1.0,10.0,1650847886702780.0
4.0,0.0,-6.0,-11.0,-4.0,-2.0,6.0,5.0,1650847886708695.0
5.0,34.0,10.0,-3.0,-6.0,-5.0,-1.0,-2.0,1650847886708695.0
-6.0,-46.0,-9.0,11.0,4.0,7.0,-4.0,5.0,1650847886717630.0
9.0,19.0,11.0,-15.0,-8.0,-6.0,-3.0,-15.0,1650847886717630.0
-4.0,-6.0,-18.0,0.0,0.0,-3.0,4.0,2.0,1650847886718332.0
3.0,-4.0,25.0,10.0,6.0,7.0,6.0,10.0,1650847886718332.0
1.0,11.0,-31.0,-13.0,-2.0,-2.0,0.0,6.0,1650847886739473.0
0.0,-1.0,19.0,12.0,6.0,1.0,-3.0,-2.0,1650847886739473.0
-4.0,-4.0,3.0,2.0,1.0,2.0,-3.0,-12.0,1650847886741471.0
-2.0,-11.0,2.0,-1.0,-4.0,-6.0,-10.0,-5.0,1650847886741471.0
-4.0,26.0,-4.0,1.0,0.0,-1.0,-6.0,0.0,1650847886761831.0
-1.0,-12.0,2.0,1.0,-1.0,1.0,21.0,8.0,1650847886761831.0
2.0,5.0,3.0,3.0,6.0,4.0,-3.0,-1.0,1650847886763822.0
7.0,-5.0,-14.0,-4.0,-3.0,-2.0,0.0,8.0,1650847886763822.0
-23.0,-5.0,5.0,-3.0,-3.0,-7.0,-15.0,-14.0,1650847886776962.0
4.0,5.0,-35.0,-15.0,-2.0,7.0,-1.0,-6.0,1650847886776962.0
-2.0,2.0,13.0,2.0,-4.0,-13.0,-1.0,-2.0,1650847886782966.0
-1.0,-2.0,23.0,1.0,0.0,7.0,-13.0,4.0,1650847886782966.0
8.0,0.0,-25.0,-3.0,2.0,-6.0,4.0,-8.0,1650847886800054.0
-5.0,-1.0,-12.0,-5.0,-5.0,-5.0,33.0,19.0,1650847886800054.0
0.0,-1.0,22.0,14.0,6.0,13.0,-3.0,1.0,1650847886800998.0
5.0,3.0,2.0,-4.0,-1.0,-5.0,-8.0,-5.0,1650847886800998.0
0.0,12.0,16.0,-8.0,-4.0,-3.0,-7.0,8.0,1650847886822096.0
-6.0,-11.0,-10.0,5.0,0.0,3.0,-7.0,-9.0,1650847886822096.0
6.0,1.0,-22.0,-12.0,-6.0,-9.0,-1.0,-3.0,1650847886824122.0
1.0,-4.0,3.0,4.0,2.0,-5.0,4.0,11.0,1650847886824122.0
-9.0,-7.0,11.0,4.0,0.0,2.0,-1.0,-9.0,1650847886845216.0
4.0,-1.0,0.0,1.0,1.0,-1.0,-11.0,-4.0,1650847886845216.0
3.0,12.0,5.0,-4.0,-2.0,7.0,9.0,12.0,1650847886846199.0
-2.0,-3.0,-12.0,2.0,4.0,6.0,17.0,-4.0,1650847886846199.0
-5.0,-1.0,7.0,2.0,1.0,4.0,9.0,0.0,1650847886860195.0
3.0,-6.0,3.0,5.0,5.0,-1.0,-9.0,-4.0,1650847886860195.0
-8.0,-5.0,8.0,0.0,1.0,0.0,-12.0,-5.0,1650847886861147.0
-5.0,-6.0,-35.0,-8.0,-7.0,-9.0,-5.0,-1.0,1650847886861147.0
3.0,-3.0,13.0,1.0,-3.0,7.0,10.0,8.0,1650847886881942.0
1.0,4.0,-2.0,2.0,2.0,-3.0,-8.0,-4.0,1650847886881942.0
-1.0,-1.0,3.0,1.0,2.0,3.0,1.0,0.0,1650847886883869.0
0.0,1.0,-1.0,-3.0,0.0,0.0,2.0,-5.0,1650847886883869.0
6.0,-6.0,10.0,2.0,1.0,-4.0,6.0,2.0,1650847886896846.0
2.0,4.0,-11.0,-1.0,-2.0,2.0,1.0,-1.0,1650847886896846.0
-3.0,-6.0,-3.0,1.0,0.0,0.0,0.0,-2.0,1650847886903814.0
5.0,15.0,-5.0,-3.0,-2.0,-2.0,-4.0,-3.0,1650847886903814.0
-10.0,-14.0,-14.0,-6.0,-6.0,-7.0,-10.0,-4.0,1650847886919936.0
10.0,-1.0,13.0,2.0,0.0,2.0,16.0,13.0,1650847886919936.0
-7.0,-5.0,-5.0,4.0,3.0,-2.0,-7.0,-7.0,1650847886920894.0
-2.0,-4.0,1.0,1.0,3.0,10.0,4.0,-4.0,1650847886920894.0
5.0,7.0,2.0,2.0,-2.0,-14.0,-17.0,-2.0,1650847886941812.0
-11.0,-12.0,-34.0,-7.0,2.0,29.0,27.0,16.0,1650847886941812.0
-2.0,1.0,0.0,-12.0,-7.0,-8.0,-13.0,-16.0,1650847886943817.0
-6.0,-3.0,0.0,7.0,7.0,1.0,3.0,-18.0,1650847886943817.0
10.0,2.0,2.0,-3.0,-3.0,1.0,5.0,27.0,1650847886956833.0
-3.0,0.0,17.0,-1.0,-6.0,-14.0,-13.0,-9.0,1650847886956833.0
-2.0,2.0,-16.0,-6.0,2.0,10.0,4.0,-3.0,1650847886963819.0
-4.0,2.0,22.0,10.0,0.0,-2.0,-8.0,0.0,1650847886963819.0
10.0,-4.0,-17.0,-6.0,-3.0,-1.0,4.0,-1.0,1650847886979842.0
-16.0,2.0,4.0,1.0,2.0,-6.0,-8.0,-9.0,1650847886979842.0
-6.0,-10.0,-3.0,-6.0,-5.0,-2.0,-11.0,-2.0,1650847886980868.0
13.0,5.0,11.0,1.0,-1.0,-2.0,10.0,11.0,1650847886980868.0
-3.0,0.0,23.0,10.0,6.0,6.0,18.0,17.0,1650847887002002.0
5.0,2.0,-36.0,-8.0,-2.0,-5.0,-24.0,-18.0,1650847887002002.0
6.0,12.0,16.0,-1.0,-6.0,-3.0,-3.0,0.0,1650847887003929.0
-10.0,-9.0,11.0,7.0,6.0,4.0,-4.0,-5.0,1650847887003929.0
-1.0,-4.0,6.0,-2.0,0.0,-1.0,-3.0,-9.0,1650847887016976.0
12.0,15.0,9.0,-4.0,-1.0,-3.0,3.0,7.0,1650847887016976.0
1.0,-2.0,4.0,7.0,2.0,0.0,3.0,7.0,1650847887023012.0
-4.0,-3.0,10.0,-3.0,0.0,-5.0,2.0,3.0,1650847887023012.0
2.0,-1.0,-40.0,-4.0,0.0,2.0,0.0,-2.0,1650847887039840.0
-5.0,0.0,19.0,1.0,-1.0,-4.0,5.0,-4.0,1650847887039840.0
-5.0,0.0,8.0,19.0,7.0,4.0,1.0,-1.0,1650847887041850.0
7.0,13.0,-13.0,-21.0,-13.0,-6.0,-5.0,3.0,1650847887041850.0
-6.0,-2.0,9.0,-6.0,0.0,1.0,-12.0,-14.0,1650847887062788.0
5.0,5.0,-2.0,-1.0,1.0,-5.0,1.0,6.0,1650847887062788.0
-5.0,-12.0,-15.0,-4.0,-4.0,3.0,-9.0,-22.0,1650847887063778.0
0.0,6.0,3.0,4.0,0.0,1.0,6.0,3.0,1650847887063778.0
-2.0,0.0,-14.0,-5.0,-4.0,-2.0,-5.0,-7.0,1650847887075746.0
1.0,-5.0,-5.0,-5.0,-4.0,-15.0,-21.0,0.0,1650847887075746.0
-3.0,2.0,25.0,1.0,-3.0,8.0,28.0,1.0,1650847887084722.0
-16.0,-11.0,-21.0,0.0,6.0,-3.0,2.0,1.0,1650847887084722.0
13.0,-2.0,7.0,2.0,3.0,8.0,15.0,8.0,1650847887099749.0
0.0,0.0,15.0,-1.0,-3.0,-2.0,-12.0,-6.0,1650847887099749.0
-2.0,7.0,1.0,1.0,-4.0,-8.0,-7.0,-3.0,1650847887101704.0
-8.0,-16.0,-13.0,4.0,-1.0,-6.0,-11.0,-7.0,1650847887101704.0
-6.0,9.0,8.0,5.0,2.0,0.0,2.0,8.0,1650847887129924.0
-2.0,-3.0,-8.0,0.0,4.0,7.0,-6.0,-24.0,1650847887129924.0
10.0,12.0,22.0,-8.0,-5.0,-6.0,0.0,30.0,1650847887131830.0
-2.0,-6.0,-16.0,3.0,1.0,1.0,-7.0,-28.0,1650847887131830.0
-3.0,2.0,-13.0,-9.0,-8.0,-12.0,1.0,2.0,1650847887135846.0
13.0,3.0,-4.0,-5.0,-1.0,9.0,18.0,8.0,1650847887135846.0
-13.0,-1.0,-1.0,0.0,2.0,-2.0,7.0,6.0,1650847887144795.0
7.0,-8.0,0.0,-2.0,1.0,10.0,-2.0,8.0,1650847887144795.0
-4.0,-1.0,23.0,10.0,2.0,-5.0,-8.0,-8.0,1650847887159785.0
-9.0,-2.0,-3.0,6.0,1.0,-1.0,-10.0,-6.0,1650847887159785.0
3.0,-9.0,-53.0,-8.0,-3.0,0.0,18.0,6.0,1650847887161749.0
11.0,3.0,36.0,7.0,3.0,6.0,10.0,26.0,1650847887161749.0
-23.0,-11.0,-16.0,-5.0,-7.0,-8.0,-17.0,-30.0,1650847887182719.0
-7.0,-9.0,0.0,0.0,0.0,4.0,6.0,9.0,1650847887182719.0
6.0,2.0,7.0,7.0,9.0,2.0,-6.0,-4.0,1650847887183698.0
-7.0,5.0,8.0,-5.0,-4.0,-3.0,7.0,-1.0,1650847887183698.0
7.0,1.0,-4.0,6.0,6.0,4.0,4.0,6.0,1650847887195721.0
0.0,-8.0,-10.0,-8.0,-7.0,-7.0,2.0,3.0,1650847887195721.0
-1.0,4.0,-6.0,-2.0,1.0,2.0,-6.0,3.0,1650847887204635.0
13.0,4.0,-17.0,-15.0,-5.0,-6.0,5.0,-11.0,1650847887204635.0
1.0,2.0,10.0,5.0,3.0,3.0,7.0,8.0,1650847887219678.0
-5.0,3.0,35.0,10.0,-1.0,-6.0,-8.0,-9.0,1650847887219678.0
2.0,-8.0,-42.0,-12.0,-4.0,2.0,4.0,4.0,1650847887221702.0
2.0,-6.0,-24.0,3.0,0.0,-6.0,-14.0,4.0,1650847887221702.0
-8.0,9.0,7.0,-7.0,0.0,10.0,3.0,-8.0,1650847887241841.0
-1.0,-2.0,2.0,8.0,4.0,-1.0,4.0,-3.0,1650847887241841.0
1.0,-2.0,17.0,-2.0,-2.0,-2.0,-8.0,2.0,1650847887243769.0
0.0,-3.0,-11.0,-13.0,0.0,-4.0,2.0,1.0,1650847887243769.0
9.0,1.0,0.0,1.0,0.0,4.0,1.0,2.0,1650847887255804.0
1.0,2.0,-7.0,0.0,-2.0,-2.0,-5.0,2.0,1650847887255804.0
2.0,2.0,21.0,4.0,-3.0,-3.0,-1.0,-5.0,1650847887264758.0
-5.0,-3.0,4.0,3.0,3.0,1.0,13.0,15.0,1650847887264758.0
-6.0,-6.0,-4.0,-2.0,-3.0,-12.0,-15.0,-9.0,1650847887279832.0
-2.0,4.0,12.0,3.0,2.0,18.0,9.0,-4.0,1650847887279832.0
6.0,4.0,16.0,-2.0,-3.0,-15.0,-9.0,-4.0,1650847887280859.0
-3.0,-10.0,-36.0,-3.0,1.0,13.0,1.0,0.0,1650847887280859.0
1.0,3.0,3.0,3.0,1.0,6.0,10.0,3.0,1650847887302420.0
-1.0,-2.0,5.0,-4.0,-6.0,-9.0,-7.0,0.0,1650847887302420.0
10.0,5.0,9.0,10.0,3.0,0.0,5.0,9.0,1650847887303377.0
-20.0,-6.0,7.0,-2.0,-2.0,-1.0,0.0,-8.0,1650847887303377.0
7.0,6.0,-6.0,-4.0,-2.0,2.0,-4.0,-14.0,1650847887316331.0
-1.0,-10.0,-22.0,-4.0,-2.0,-4.0,4.0,4.0,1650847887316331.0
-2.0,-2.0,18.0,3.0,-1.0,-2.0,-7.0,-3.0,1650847887325314.0
6.0,14.0,19.0,3.0,-3.0,-4.0,-8.0,0.0,1650847887325314.0
-19.0,-29.0,-63.0,-11.0,-4.0,2.0,1.0,-13.0,1650847887339281.0
4.0,-1.0,12.0,0.0,1.0,-7.0,3.0,18.0,1650847887339281.0
-1.0,-3.0,-20.0,-3.0,0.0,1.0,4.0,-1.0,1650847887341250.0
5.0,5.0,22.0,4.0,-1.0,0.0,0.0,4.0,1650847887341250.0
-2.0,8.0,23.0,1.0,-1.0,-4.0,-9.0,2.0,1650847887362261.0
4.0,-4.0,-12.0,-3.0,6.0,1.0,-11.0,-16.0,1650847887362261.0
-4.0,2.0,19.0,-2.0,-5.0,7.0,16.0,4.0,1650847887364211.0
-4.0,-10.0,-47.0,-2.0,-4.0,-1.0,-10.0,-7.0,1650847887364211.0
9.0,8.0,25.0,-4.0,-5.0,-7.0,-5.0,6.0,1650847887376157.0
-7.0,-9.0,18.0,9.0,4.0,1.0,-2.0,-6.0,1650847887376157.0
4.0,4.0,-13.0,-5.0,0.0,-1.0,-14.0,-1.0,1650847887385148.0
10.0,13.0,34.0,-5.0,-8.0,-3.0,11.0,3.0,1650847887385148.0
3.0,-7.0,-41.0,2.0,2.0,5.0,7.0,9.0,1650847887400151.0
-5.0,-11.0,-1.0,-5.0,-2.0,-5.0,-5.0,-1.0,1650847887400151.0
-6.0,7.0,-4.0,4.0,3.0,5.0,4.0,-8.0,1650847887401090.0
-4.0,1.0,8.0,-4.0,-7.0,-8.0,-7.0,3.0,1650847887401090.0
3.0,1.0,16.0,1.0,-2.0,0.0,2.0,11.0,1650847887423038.0
-6.0,-6.0,-6.0,-1.0,2.0,5.0,3.0,-12.0,1650847887423038.0
10.0,1.0,-1.0,4.0,1.0,-8.0,-11.0,-10.0,1650847887424028.0
-4.0,-6.0,21.0,6.0,5.0,4.0,-11.0,-7.0,1650847887424028.0
2.0,-6.0,-55.0,-8.0,2.0,11.0,26.0,15.0,1650847887436062.0
-2.0,8.0,5.0,-1.0,-4.0,-5.0,-1.0,0.0,1650847887436062.0
-7.0,-4.0,2.0,2.0,2.0,3.0,2.0,-6.0,1650847887445004.0
1.0,-2.0,4.0,-3.0,-7.0,-18.0,-13.0,12.0,1650847887445004.0
-5.0,-1.0,4.0,3.0,5.0,13.0,-19.0,-14.0,1650847887459750.0
2.0,2.0,-4.0,-4.0,-4.0,3.0,16.0,6.0,1650847887459750.0
-1.0,-3.0,0.0,2.0,2.0,0.0,3.0,4.0,1650847887461772.0
-11.0,-1.0,15.0,6.0,2.0,2.0,2.0,-13.0,1650847887461772.0
3.0,-7.0,-8.0,-6.0,-4.0,-11.0,-6.0,4.0,1650847887481839.0
5.0,8.0,-25.0,-4.0,1.0,2.0,4.0,8.0,1650847887481839.0
-3.0,-3.0,0.0,-3.0,-1.0,-2.0,-7.0,-4.0,1650847887483834.0
-2.0,3.0,2.0,0.0,-2.0,1.0,1.0,-5.0,1650847887483834.0
3.0,1.0,-20.0,0.0,0.0,-2.0,4.0,5.0,1650847887495871.0
-3.0,-7.0,-8.0,-3.0,1.0,-1.0,-2.0,-3.0,1650847887495871.0
-4.0,0.0,-13.0,-7.0,-3.0,-2.0,3.0,-3.0,1650847887504777.0
-2.0,-10.0,-9.0,2.0,3.0,3.0,-1.0,-3.0,1650847887504777.0
-4.0,0.0,32.0,7.0,0.0,-4.0,1.0,-2.0,1650847887519819.0
11.0,8.0,5.0,2.0,-3.0,-2.0,-1.0,7.0,1650847887519819.0
-3.0,-13.0,-46.0,-10.0,1.0,3.0,-3.0,-1.0,1650847887521822.0
1.0,-1.0,0.0,-3.0,-1.0,2.0,7.0,-1.0,1650847887521822.0
-11.0,5.0,19.0,4.0,-2.0,-5.0,-6.0,-6.0,1650847887542632.0
-3.0,2.0,19.0,3.0,-2.0,-4.0,1.0,6.0,1650847887542632.0
-3.0,-2.0,18.0,4.0,5.0,9.0,0.0,-8.0,1650847887543632.0
4.0,-3.0,-31.0,-3.0,3.0,8.0,7.0,0.0,1650847887543632.0
-2.0,-5.0,24.0,0.0,-1.0,-4.0,0.0,2.0,1650847887564816.0
-1.0,3.0,-1.0,-1.0,-5.0,-6.0,-5.0,-2.0,1650847887564816.0
1.0,1.0,-1.0,-2.0,-7.0,-5.0,4.0,3.0,1650847887566750.0
-1.0,-5.0,-4.0,2.0,7.0,6.0,1.0,-2.0,1650847887566750.0
5.0,4.0,3.0,2.0,0.0,-3.0,2.0,5.0,1650847887579926.0
-4.0,-1.0,-7.0,-2.0,-2.0,-2.0,-2.0,-8.0,1650847887579926.0
-2.0,-4.0,-5.0,1.0,-1.0,-2.0,-2.0,3.0,1650847887580886.0
0.0,1.0,-5.0,-4.0,-6.0,0.0,2.0,0.0,1650847887580886.0
-1.0,-2.0,13.0,4.0,3.0,-1.0,-1.0,-2.0,1650847887601868.0
2.0,3.0,-1.0,0.0,3.0,4.0,-1.0,-2.0,1650847887601868.0
-1.0,-4.0,11.0,1.0,0.0,0.0,2.0,2.0,1650847887603796.0
3.0,13.0,5.0,3.0,-2.0,-7.0,-5.0,0.0,1650847887603796.0
-2.0,-11.0,-9.0,-5.0,-4.0,0.0,-1.0,-3.0,1650847887624807.0
0.0,15.0,-3.0,-1.0,0.0,1.0,0.0,1.0,1650847887624807.0
1.0,1.0,-1.0,-1.0,-2.0,-2.0,-1.0,2.0,1650847887626734.0
0.0,-2.0,6.0,2.0,0.0,0.0,1.0,-1.0,1650847887626734.0
0.0,-1.0,7.0,0.0,0.0,0.0,-1.0,-1.0,1650847887639887.0
0.0,-4.0,-10.0,-4.0,-2.0,-1.0,-1.0,-2.0,1650847887639887.0
0.0,0.0,4.0,-1.0,-1.0,-3.0,1.0,-1.0,1650847887641820.0
2.0,3.0,-3.0,2.0,2.0,2.0,3.0,-1.0,1650847887641820.0
-1.0,16.0,12.0,5.0,0.0,0.0,0.0,0.0,1650847887662022.0
-3.0,-40.0,-6.0,-1.0,1.0,0.0,-1.0,-2.0,1650847887662022.0
1.0,36.0,6.0,-5.0,-6.0,-3.0,0.0,2.0,1650847887663998.0
1.0,-10.0,-1.0,1.0,3.0,2.0,1.0,0.0,1650847887663998.0
-1.0,1.0,1.0,1.0,-1.0,-2.0,-2.0,0.0,1650847887684945.0
0.0,-6.0,6.0,15.0,6.0,5.0,0.0,-3.0,1650847887684945.0
-10.0,-14.0,-31.0,-25.0,-12.0,-6.0,-2.0,1.0,1650847887685939.0
4.0,13.0,6.0,-5.0,-6.0,-5.0,-2.0,0.0,1650847887685939.0
2.0,2.0,5.0,3.0,3.0,4.0,1.0,-2.0,1650847887698970.0
4.0,17.0,13.0,5.0,5.0,5.0,-1.0,1.0,1650847887698970.0
-10.0,-49.0,-6.0,2.0,0.0,-1.0,-2.0,-4.0,1650847887705952.0
-2.0,2.0,-15.0,0.0,-1.0,-2.0,-1.0,1.0,1650847887705952.0
4.0,-10.0,-17.0,-8.0,-2.0,-1.0,0.0,2.0,1650847887721887.0
0.0,31.0,14.0,5.0,-1.0,-5.0,0.0,-2.0,1650847887721887.0
2.0,-2.0,-7.0,-3.0,-3.0,-1.0,0.0,1.0,1650847887723816.0
-5.0,-17.0,1.0,-1.0,2.0,1.0,0.0,-1.0,1650847887723816.0
2.0,14.0,3.0,1.0,0.0,-2.0,0.0,0.0,1650847887744826.0
-2.0,-5.0,-11.0,-8.0,-3.0,1.0,1.0,0.0,1650847887744826.0
5.0,5.0,12.0,5.0,2.0,1.0,-1.0,-2.0,1650847887746755.0
-2.0,3.0,0.0,-2.0,-2.0,-1.0,-1.0,-4.0,1650847887746755.0
-2.0,-9.0,8.0,4.0,1.0,-2.0,1.0,0.0,1650847887759506.0
1.0,8.0,-11.0,-7.0,-1.0,2.0,1.0,1.0,1650847887759506.0
0.0,-7.0,-4.0,2.0,0.0,-1.0,-1.0,-2.0,1650847887765810.0
-4.0,-10.0,-8.0,-3.0,1.0,3.0,-1.0,0.0,1650847887765810.0
1.0,9.0,6.0,0.0,0.0,-1.0,-2.0,-1.0,1650847887789746.0
-5.0,-15.0,-13.0,-6.0,-4.0,-5.0,-3.0,-5.0,1650847887789746.0
4.0,22.0,23.0,9.0,3.0,1.0,4.0,8.0,1650847887791674.0
-1.0,14.0,-5.0,-1.0,3.0,3.0,-1.0,-2.0,1650847887791674.0
-1.0,-34.0,-9.0,-4.0,-2.0,-4.0,3.0,2.0,1650847887804725.0
0.0,-12.0,1.0,-4.0,-3.0,0.0,1.0,1.0,1650847887804725.0
2.0,4.0,-16.0,2.0,3.0,1.0,-1.0,-1.0,1650847887806680.0
-5.0,-3.0,3.0,-1.0,-5.0,-5.0,-3.0,-1.0,1650847887806680.0
2.0,4.0,7.0,3.0,2.0,5.0,0.0,1.0,1650847887818739.0
-4.0,7.0,5.0,1.0,-4.0,-3.0,1.0,-3.0,1650847887818739.0
1.0,-10.0,6.0,-1.0,1.0,0.0,0.0,-2.0,1650847887825757.0
-1.0,-5.0,-11.0,-3.0,-3.0,-4.0,0.0,4.0,1650847887825757.0
-2.0,9.0,-3.0,-4.0,-3.0,-3.0,-3.0,-11.0,1650847887842643.0
-2.0,-7.0,-1.0,3.0,2.0,4.0,-1.0,1.0,1650847887842643.0
0.0,8.0,7.0,2.0,2.0,2.0,-1.0,0.0,1650847887843643.0
-1.0,4.0,-2.0,2.0,0.0,0.0,1.0,-6.0,1650847887843643.0
0.0,-4.0,11.0,6.0,-1.0,-1.0,-2.0,3.0,1650847887864795.0
2.0,2.0,-4.0,-3.0,-2.0,-2.0,-2.0,3.0,1650847887864795.0
-1.0,-2.0,-13.0,-8.0,-5.0,-1.0,-1.0,-2.0,1650847887865784.0
2.0,-3.0,16.0,8.0,2.0,1.0,-1.0,0.0,1650847887865784.0
-3.0,14.0,-4.0,-6.0,-4.0,-1.0,-1.0,-1.0,1650847887879816.0
-3.0,-23.0,0.0,3.0,2.0,0.0,0.0,0.0,1650847887879816.0
2.0,11.0,0.0,4.0,2.0,0.0,0.0,-1.0,1650847887885802.0
-2.0,-2.0,-4.0,0.0,-1.0,-1.0,0.0,0.0,1650847887885802.0
1.0,-16.0,-2.0,-3.0,-3.0,-2.0,0.0,1.0,1650847887902687.0
2.0,16.0,0.0,0.0,1.0,-2.0,0.0,-1.0,1650847887902687.0
-5.0,-21.0,-8.0,-5.0,-2.0,0.0,-2.0,-2.0,1650847887903686.0
1.0,-15.0,2.0,0.0,0.0,-1.0,0.0,0.0,1650847887903686.0
0.0,19.0,-2.0,1.0,-1.0,1.0,0.0,0.0,1650847887924696.0
-2.0,-1.0,-1.0,-1.0,-4.0,-1.0,0.0,-1.0,1650847887924696.0
4.0,6.0,3.0,-1.0,-1.0,-3.0,-1.0,2.0,1650847887926651.0
0.0,-6.0,3.0,1.0,0.0,1.0,0.0,0.0,1650847887926651.0
-2.0,1.0,-1.0,0.0,2.0,0.0,1.0,-1.0,1650847887939590.0
-1.0,-4.0,-4.0,-3.0,-5.0,-2.0,-1.0,-1.0,1650847887939590.0
1.0,11.0,6.0,4.0,-1.0,2.0,-1.0,1.0,1650847887945640.0
-5.0,4.0,-4.0,-1.0,2.0,-1.0,-2.0,-6.0,1650847887945640.0
1.0,-3.0,-1.0,-2.0,-1.0,-1.0,-1.0,0.0,1650847887962597.0
0.0,5.0,-3.0,-2.0,0.0,0.0,-2.0,0.0,1650847887962597.0
1.0,-4.0,1.0,2.0,1.0,-2.0,1.0,-1.0,1650847887963524.0
0.0,3.0,-2.0,-3.0,-3.0,0.0,0.0,2.0,1650847887963524.0
-3.0,-6.0,-4.0,1.0,2.0,0.0,1.0,0.0,1650847887984596.0
-3.0,-2.0,0.0,0.0,-3.0,-2.0,-1.0,-2.0,1650847887984596.0
-2.0,3.0,2.0,2.0,3.0,1.0,1.0,-2.0,1650847887986611.0
0.0,0.0,-2.0,-3.0,-3.0,-3.0,1.0,1.0,1650847887986611.0
0.0,4.0,1.0,2.0,0.0,-1.0,-2.0,-1.0,1650847887999548.0
0.0,1.0,-2.0,-1.0,0.0,-1.0,-1.0,0.0,1650847887999548.0
0.0,-5.0,0.0,0.0,-1.0,-3.0,-1.0,-2.0,1650847888005599.0
3.0,16.0,3.0,1.0,0.0,2.0,0.0,0.0,1650847888005599.0
0.0,-5.0,-3.0,0.0,0.0,0.0,0.0,-1.0,1650847888022653.0
-1.0,-4.0,-3.0,-2.0,0.0,1.0,0.0,-1.0,1650847888022653.0
-2.0,-1.0,1.0,2.0,2.0,0.0,1.0,-2.0,1650847888023660.0
2.0,2.0,-1.0,-2.0,-2.0,-1.0,0.0,-1.0,1650847888023660.0
-2.0,-1.0,-1.0,-2.0,2.0,4.0,-1.0,-2.0,1650847888044718.0
1.0,1.0,0.0,0.0,-1.0,-2.0,0.0,0.0,1650847888044718.0
-1.0,-2.0,-1.0,-2.0,-4.0,-4.0,-3.0,-2.0,1650847888046711.0
0.0,-3.0,-2.0,-2.0,-1.0,-3.0,-2.0,0.0,1650847888046711.0
0.0,3.0,1.0,-2.0,-4.0,-2.0,0.0,-1.0,1650847888058778.0
-1.0,1.0,1.0,1.0,3.0,1.0,1.0,0.0,1650847888058778.0
-2.0,1.0,2.0,3.0,4.0,3.0,0.0,0.0,1650847888067764.0
-1.0,0.0,-3.0,-3.0,1.0,-1.0,-1.0,0.0,1650847888067764.0
1.0,1.0,-1.0,0.0,0.0,2.0,0.0,2.0,1650847888082736.0
0.0,-1.0,0.0,-1.0,-2.0,-1.0,-1.0,-1.0,1650847888082736.0
0.0,1.0,0.0,1.0,3.0,0.0,-1.0,-3.0,1650847888083702.0
0.0,-5.0,-3.0,-1.0,-2.0,-1.0,-2.0,-1.0,1650847888083702.0
-3.0,-2.0,-1.0,-1.0,-2.0,-1.0,-1.0,-1.0,1650847888104877.0
-4.0,-2.0,1.0,1.0,-2.0,-2.0,-1.0,-2.0,1650847888104877.0
0.0,-2.0,2.0,-1.0,2.0,1.0,0.0,1.0,1650847888105836.0
-2.0,-1.0,-2.0,-1.0,0.0,-1.0,-1.0,0.0,1650847888105836.0
0.0,0.0,-1.0,-1.0,1.0,-4.0,0.0,1.0,1650847888118904.0
3.0,3.0,0.0,1.0,1.0,0.0,-1.0,0.0,1650847888118904.0
-2.0,-4.0,-1.0,0.0,-1.0,-1.0,0.0,-2.0,1650847888126938.0
0.0,-1.0,-3.0,-4.0,0.0,1.0,0.0,-1.0,1650847888126938.0
-1.0,-1.0,-1.0,-3.0,-1.0,-1.0,-1.0,-2.0,1650847888142043.0
1.0,0.0,-1.0,-2.0,-3.0,0.0,0.0,0.0,1650847888142043.0
0.0,5.0,0.0,-1.0,1.0,1.0,-2.0,1.0,1650847888143982.0
1.0,0.0,-3.0,0.0,-1.0,-3.0,0.0,-1.0,1650847888143982.0
-1.0,0.0,-1.0,-1.0,0.0,-2.0,0.0,-1.0,1650847888164808.0
0.0,1.0,2.0,-1.0,-3.0,-1.0,0.0,1.0,1650847888164808.0
0.0,-2.0,-1.0,0.0,1.0,2.0,-1.0,-1.0,1650847888166741.0
-1.0,-4.0,0.0,1.0,-1.0,0.0,-1.0,-1.0,1650847888166741.0
0.0,1.0,-1.0,-2.0,-1.0,-2.0,-1.0,-2.0,1650847888178770.0
-1.0,-2.0,2.0,3.0,2.0,-2.0,0.0,-1.0,1650847888178770.0
-2.0,-5.0,-2.0,-1.0,-3.0,-2.0,0.0,2.0,1650847888187681.0
0.0,7.0,3.0,-2.0,-2.0,-1.0,-1.0,1.0,1650847888187681.0
0.0,-1.0,0.0,0.0,1.0,2.0,-1.0,0.0,1650847888209845.0
0.0,-1.0,-2.0,-2.0,0.0,1.0,0.0,0.0,1650847888209845.0
-3.0,-2.0,-2.0,-1.0,-1.0,-1.0,2.0,0.0,1650847888211772.0
-1.0,0.0,0.0,4.0,2.0,-1.0,0.0,-1.0,1650847888211772.0
0.0,-4.0,-2.0,-1.0,-4.0,-2.0,-1.0,0.0,1650847888224894.0
1.0,0.0,0.0,-1.0,1.0,1.0,-1.0,-1.0,1650847888224894.0
0.0,3.0,1.0,-3.0,-3.0,-2.0,0.0,-1.0,1650847888225854.0
2.0,0.0,-1.0,-1.0,-3.0,0.0,1.0,2.0,1650847888225854.0
-3.0,-2.0,0.0,1.0,-1.0,0.0,-2.0,0.0,1650847888238792.0
-2.0,-1.0,-1.0,-2.0,-3.0,-3.0,-2.0,-1.0,1650847888238792.0
0.0,3.0,0.0,1.0,0.0,2.0,0.0,0.0,1650847888246894.0
-2.0,-1.0,3.0,0.0,1.0,-1.0,-1.0,-1.0,1650847888246894.0
-2.0,-2.0,-4.0,-3.0,-1.0,-1.0,-1.0,-1.0,1650847888261807.0
-1.0,-2.0,-1.0,1.0,1.0,1.0,1.0,0.0,1650847888261807.0
0.0,4.0,-2.0,-1.0,-3.0,-1.0,0.0,-1.0,1650847888263801.0
-1.0,-5.0,-1.0,-2.0,1.0,0.0,-1.0,-3.0,1650847888263801.0
-1.0,-4.0,-3.0,-3.0,-4.0,-1.0,-1.0,-1.0,1650847888284857.0
1.0,1.0,-1.0,-1.0,0.0,0.0,-1.0,0.0,1650847888284857.0
1.0,0.0,-1.0,1.0,1.0,0.0,-1.0,0.0,1650847888286823.0
1.0,-2.0,-2.0,-2.0,-3.0,-3.0,0.0,0.0,1650847888286823.0
0.0,0.0,-2.0,1.0,2.0,0.0,-2.0,0.0,1650847888298790.0
-1.0,0.0,0.0,0.0,0.0,1.0,-1.0,-1.0,1650847888298790.0
-1.0,-3.0,-1.0,0.0,-1.0,0.0,-2.0,0.0,1650847888307717.0
0.0,-1.0,-2.0,-2.0,2.0,1.0,1.0,1.0,1650847888307717.0
2.0,2.0,-2.0,-1.0,-2.0,-2.0,-1.0,1.0,1650847888322706.0
-1.0,0.0,-2.0,-2.0,-2.0,-4.0,-1.0,-1.0,1650847888322706.0
0.0,0.0,-1.0,-1.0,0.0,1.0,-1.0,1.0,1650847888323675.0
0.0,0.0,1.0,1.0,1.0,0.0,-1.0,-1.0,1650847888323675.0
0.0,1.0,-1.0,-1.0,0.0,1.0,1.0,-1.0,1650847888344702.0
-3.0,-3.0,-1.0,2.0,4.0,0.0,-2.0,-2.0,1650847888344702.0
2.0,2.0,-1.0,-1.0,-4.0,-3.0,0.0,-1.0,1650847888346715.0
-3.0,-1.0,-1.0,-1.0,-3.0,-1.0,1.0,0.0,1650847888346715.0
2.0,-1.0,-1.0,-1.0,-1.0,0.0,3.0,0.0,1650847888358799.0
0.0,0.0,-2.0,-1.0,2.0,2.0,0.0,1.0,1650847888358799.0
-2.0,-1.0,-2.0,-1.0,0.0,-2.0,0.0,0.0,1650847888367722.0
0.0,0.0,1.0,0.0,-1.0,1.0,2.0,-1.0,1650847888367722.0
1.0,4.0,3.0,-1.0,-3.0,-3.0,0.0,-1.0,1650847888382680.0
1.0,0.0,2.0,0.0,0.0,0.0,0.0,-1.0,1650847888382680.0
0.0,1.0,1.0,0.0,0.0,1.0,-1.0,-2.0,1650847888383678.0
-1.0,-4.0,-2.0,0.0,0.0,-2.0,-2.0,-1.0,1650847888383678.0
-1.0,-2.0,-1.0,-1.0,1.0,0.0,-2.0,0.0,1650847888404778.0
-1.0,1.0,-1.0,-2.0,-1.0,-1.0,2.0,-1.0,1650847888404778.0
-1.0,0.0,0.0,0.0,-3.0,-1.0,-1.0,-2.0,1650847888406734.0
1.0,0.0,0.0,0.0,0.0,-2.0,-1.0,0.0,1650847888406734.0
-2.0,-2.0,0.0,2.0,0.0,0.0,0.0,-1.0,1650847888418802.0
0.0,0.0,-2.0,0.0,0.0,0.0,0.0,0.0,1650847888418802.0
0.0,-2.0,-1.0,-2.0,-2.0,-2.0,-3.0,-1.0,1650847888427701.0
-1.0,-4.0,-1.0,1.0,-3.0,-3.0,-1.0,2.0,1650847888427701.0
0.0,-1.0,0.0,1.0,-1.0,0.0,-1.0,-1.0,1650847888442292.0
1.0,3.0,-1.0,1.0,1.0,3.0,1.0,1.0,1650847888442292.0
1.0,0.0,-1.0,0.0,1.0,-1.0,-1.0,-1.0,1650847888444226.0
-3.0,-2.0,-3.0,-4.0,-2.0,1.0,-1.0,-1.0,1650847888444226.0
1.0,0.0,0.0,-3.0,-1.0,-1.0,-1.0,-1.0,1650847888465193.0
-1.0,-1.0,1.0,-1.0,-4.0,-1.0,0.0,1.0,1650847888465193.0
0.0,0.0,0.0,-2.0,0.0,0.0,1.0,0.0,1650847888466162.0
1.0,2.0,0.0,0.0,1.0,2.0,-1.0,0.0,1650847888466162.0
-1.0,0.0,-2.0,-1.0,-2.0,-1.0,0.0,-1.0,1650847888487133.0
1.0,0.0,0.0,2.0,2.0,2.0,1.0,-3.0,1650847888487133.0
-1.0,1.0,0.0,0.0,0.0,2.0,2.0,0.0,1650847888489101.0
-2.0,-1.0,0.0,2.0,2.0,0.0,1.0,0.0,1650847888489101.0
0.0,1.0,-1.0,-1.0,2.0,-1.0,2.0,-1.0,1650847888502132.0
-1.0,-4.0,-1.0,-2.0,-3.0,-3.0,-2.0,-2.0,1650847888502132.0
1.0,0.0,-2.0,-3.0,-3.0,-3.0,0.0,1.0,1650847888504061.0
-2.0,-3.0,-5.0,-4.0,-5.0,0.0,0.0,-1.0,1650847888504061.0
-2.0,0.0,1.0,2.0,3.0,1.0,-1.0,1.0,1650847888525096.0
-2.0,1.0,-1.0,-1.0,-2.0,0.0,-3.0,0.0,1650847888525096.0
0.0,0.0,0.0,1.0,2.0,0.0,0.0,-1.0,1650847888526002.0
1.0,2.0,0.0,0.0,-3.0,0.0,0.0,0.0,1650847888526002.0
0.0,0.0,-1.0,0.0,1.0,3.0,0.0,-1.0,1650847888547058.0
1.0,-1.0,-1.0,-1.0,-2.0,-2.0,-3.0,2.0,1650847888547058.0
-2.0,-4.0,-2.0,-2.0,-2.0,-3.0,-1.0,1.0,1650847888549028.0
1.0,4.0,-1.0,0.0,2.0,2.0,-1.0,-2.0,1650847888549028.0
-2.0,-2.0,-1.0,0.0,-1.0,-3.0,0.0,-2.0,1650847888562641.0
-1.0,1.0,-2.0,-2.0,-2.0,0.0,-1.0,0.0,1650847888562641.0
-4.0,-7.0,0.0,0.0,-1.0,-1.0,-1.0,0.0,1650847888563641.0
2.0,2.0,0.0,-2.0,0.0,-1.0,-2.0,-1.0,1650847888563641.0
-1.0,2.0,0.0,-1.0,-1.0,1.0,-2.0,0.0,1650847888584719.0
-2.0,-2.0,-3.0,-1.0,-1.0,0.0,1.0,-2.0,1650847888584719.0
-1.0,1.0,0.0,-1.0,-2.0,1.0,0.0,0.0,1650847888586702.0
1.0,-1.0,2.0,1.0,-1.0,-1.0,-2.0,0.0,1650847888586702.0
-1.0,-2.0,-3.0,-1.0,-1.0,0.0,-2.0,-1.0,1650847888607645.0
0.0,2.0,2.0,0.0,3.0,0.0,1.0,1.0,1650847888607645.0
-1.0,0.0,-1.0,2.0,1.0,-1.0,-3.0,-1.0,1650847888608646.0
-3.0,-3.0,0.0,-2.0,-2.0,-3.0,1.0,0.0,1650847888608646.0
-2.0,-1.0,-1.0,-1.0,-2.0,0.0,0.0,1.0,1650847888622682.0
-3.0,-6.0,-2.0,1.0,1.0,-2.0,-1.0,-1.0,1650847888622682.0
-1.0,-4.0,-7.0,-1.0,-3.0,-3.0,-2.0,-2.0,1650847888623603.0
-1.0,4.0,1.0,2.0,4.0,1.0,-1.0,0.0,1650847888623603.0
0.0,-1.0,6.0,2.0,-1.0,0.0,3.0,0.0,1650847888645838.0
-1.0,-9.0,-21.0,-9.0,-6.0,-4.0,0.0,0.0,1650847888645838.0
1.0,5.0,6.0,-2.0,3.0,2.0,1.0,2.0,1650847888646836.0
-1.0,-2.0,-1.0,1.0,-2.0,-3.0,-2.0,-1.0,1650847888646836.0
0.0,0.0,-2.0,-3.0,-1.0,-1.0,-2.0,-1.0,1650847888667760.0
-3.0,-2.0,6.0,2.0,1.0,0.0,-2.0,-2.0,1650847888667760.0
-1.0,-5.0,-3.0,-2.0,0.0,-1.0,0.0,0.0,1650847888668758.0
-3.0,-4.0,-7.0,-4.0,-1.0,1.0,1.0,-1.0,1650847888668758.0
-1.0,-4.0,2.0,0.0,1.0,-2.0,-1.0,0.0,1650847888681835.0
3.0,2.0,-1.0,0.0,-3.0,0.0,1.0,2.0,1650847888681835.0
-2.0,-3.0,-2.0,-1.0,-2.0,-2.0,-1.0,0.0,1650847888688843.0
0.0,-4.0,1.0,-1.0,2.0,1.0,0.0,-1.0,1650847888688843.0
0.0,1.0,-5.0,-1.0,-1.0,-1.0,-2.0,-2.0,1650847888705023.0
-1.0,0.0,2.0,-2.0,0.0,-2.0,-2.0,-15.0,1650847888705023.0
-4.0,7.0,13.0,5.0,-4.0,-4.0,-3.0,17.0,1650847888705954.0
2.0,2.0,3.0,0.0,1.0,2.0,2.0,-1.0,1650847888705954.0
-1.0,-3.0,-6.0,-3.0,1.0,5.0,4.0,2.0,1650847888727016.0
-1.0,-3.0,-2.0,-4.0,-3.0,1.0,0.0,-1.0,1650847888727016.0
1.0,1.0,-5.0,-3.0,-1.0,1.0,-1.0,-5.0,1650847888728994.0
-4.0,-4.0,-2.0,1.0,-2.0,-3.0,-2.0,-3.0,1650847888728994.0
0.0,0.0,1.0,2.0,4.0,1.0,-4.0,3.0,1650847888741013.0
-2.0,3.0,7.0,1.0,-2.0,-1.0,1.0,2.0,1650847888741013.0
0.0,-3.0,-2.0,-1.0,-1.0,-1.0,1.0,-5.0,1650847888750116.0
-1.0,1.0,0.0,-2.0,-2.0,-1.0,-2.0,1.0,1650847888750116.0
1.0,1.0,2.0,3.0,-1.0,-2.0,-2.0,-4.0,1650847888764779.0
0.0,-1.0,-2.0,-2.0,-2.0,0.0,1.0,3.0,1650847888764779.0
0.0,4.0,0.0,5.0,4.0,2.0,1.0,-5.0,1650847888766734.0
0.0,-2.0,-9.0,-2.0,2.0,2.0,1.0,0.0,1650847888766734.0
-1.0,2.0,1.0,0.0,-2.0,-3.0,-2.0,-2.0,1650847888787652.0
-2.0,-7.0,-6.0,-4.0,-2.0,-3.0,-2.0,1.0,1650847888787652.0
3.0,0.0,1.0,1.0,-3.0,0.0,1.0,0.0,1650847888788648.0
0.0,2.0,0.0,-5.0,-2.0,-1.0,0.0,-1.0,1650847888788648.0
1.0,3.0,2.0,5.0,4.0,3.0,0.0,2.0,1650847888801613.0
-1.0,0.0,11.0,1.0,3.0,-1.0,-3.0,1.0,1650847888801613.0
-2.0,-2.0,0.0,-2.0,-3.0,-1.0,4.0,1.0,1650847888808661.0
2.0,3.0,1.0,1.0,-2.0,-1.0,-4.0,-10.0,1650847888808661.0
-2.0,-2.0,-11.0,-2.0,-1.0,-1.0,3.0,2.0,1650847888824619.0
3.0,7.0,8.0,6.0,5.0,4.0,2.0,3.0,1650847888824619.0
-3.0,-8.0,-5.0,-2.0,3.0,0.0,1.0,-5.0,1650847888826573.0
-2.0,-2.0,2.0,-2.0,-2.0,-5.0,-4.0,16.0,1650847888826573.0
-2.0,-2.0,0.0,-5.0,-6.0,-7.0,-1.0,-5.0,1650847888847689.0
0.0,0.0,-2.0,0.0,0.0,-1.0,-1.0,-4.0,1650847888847689.0
1.0,2.0,-2.0,-1.0,2.0,0.0,-3.0,0.0,1650847888848690.0
-4.0,-3.0,0.0,0.0,2.0,1.0,-1.0,-6.0,1650847888848690.0
-1.0,-3.0,0.0,0.0,-2.0,-1.0,0.0,-4.0,1650847888869699.0
2.0,3.0,-1.0,1.0,-3.0,-3.0,1.0,6.0,1650847888869699.0
-1.0,-2.0,-1.0,2.0,0.0,-1.0,-4.0,-6.0,1650847888871654.0
0.0,1.0,4.0,4.0,4.0,2.0,3.0,0.0,1650847888871654.0
-1.0,-2.0,2.0,-1.0,-2.0,-1.0,0.0,2.0,1650847888883779.0
-1.0,-1.0,-2.0,-1.0,-4.0,-1.0,0.0,-3.0,1650847888883779.0
0.0,-1.0,-3.0,-3.0,0.0,1.0,1.0,2.0,1650847888892693.0
1.0,5.0,4.0,3.0,2.0,0.0,-2.0,2.0,1650847888892693.0
-2.0,-7.0,-4.0,-5.0,-1.0,1.0,-2.0,-2.0,1650847888907655.0
-2.0,0.0,-2.0,-1.0,0.0,2.0,0.0,0.0,1650847888907655.0
-3.0,-2.0,-2.0,-2.0,-6.0,-6.0,-4.0,-2.0,1650847888908658.0
0.0,1.0,-2.0,1.0,0.0,4.0,3.0,1.0,1650847888908658.0
0.0,0.0,2.0,-1.0,2.0,-1.0,1.0,-1.0,1650847888921733.0
-1.0,2.0,-1.0,-2.0,-1.0,2.0,2.0,1.0,1650847888921733.0
0.0,2.0,-1.0,2.0,2.0,0.0,-5.0,-10.0,1650847888928747.0
0.0,0.0,-3.0,-5.0,-2.0,-1.0,1.0,-1.0,1650847888928747.0
2.0,5.0,8.0,9.0,-3.0,-3.0,0.0,0.0,1650847888944893.0
-1.0,-4.0,-4.0,0.0,1.0,-1.0,-5.0,-1.0,1650847888944893.0
0.0,0.0,2.0,-2.0,-5.0,-2.0,1.0,3.0,1650847888945827.0
0.0,1.0,-1.0,-2.0,-4.0,0.0,0.0,-2.0,1650847888945827.0
1.0,0.0,-4.0,-2.0,5.0,-1.0,-2.0,0.0,1650847888967766.0
-3.0,-3.0,-3.0,3.0,3.0,0.0,-2.0,1.0,1650847888967766.0
0.0,0.0,2.0,1.0,0.0,-3.0,2.0,-1.0,1650847888968763.0
0.0,-1.0,2.0,-1.0,-5.0,-4.0,-2.0,-3.0,1650847888968763.0
0.0,2.0,-1.0,-2.0,-1.0,1.0,3.0,2.0,1650847888980797.0
0.0,-1.0,-2.0,-1.0,1.0,-1.0,-3.0,-3.0,1650847888980797.0
1.0,-1.0,-1.0,-1.0,0.0,2.0,2.0,2.0,1650847888989688.0
-1.0,-2.0,-3.0,1.0,-3.0,-1.0,-2.0,0.0,1650847888989688.0
-3.0,-3.0,9.0,3.0,0.0,0.0,-1.0,0.0,1650847889004812.0
-1.0,1.0,-10.0,-4.0,-3.0,-3.0,1.0,-1.0,1650847889004812.0
-1.0,-1.0,-1.0,-5.0,0.0,1.0,1.0,1.0,1650847889006742.0
0.0,0.0,-1.0,-1.0,-3.0,-4.0,-3.0,0.0,1650847889006742.0
0.0,1.0,-7.0,-1.0,1.0,2.0,0.0,-2.0,1650847889027686.0
1.0,3.0,12.0,2.0,-2.0,-1.0,-2.0,-1.0,1650847889027686.0
0.0,-6.0,-20.0,-1.0,4.0,2.0,2.0,2.0,1650847889028688.0
-3.0,-7.0,-6.0,-2.0,-2.0,-2.0,-1.0,-2.0,1650847889028688.0
-3.0,-2.0,-8.0,-3.0,0.0,-1.0,-2.0,0.0,1650847889040720.0
0.0,-5.0,-8.0,-4.0,-1.0,-2.0,1.0,1.0,1650847889040720.0
-1.0,5.0,-1.0,1.0,-4.0,-1.0,-8.0,-13.0,1650847889049723.0
1.0,3.0,12.0,5.0,2.0,3.0,4.0,3.0,1650847889049723.0
-3.0,-9.0,-14.0,-5.0,-3.0,-3.0,-5.0,-2.0,1650847889065329.0
-1.0,-1.0,-10.0,-4.0,0.0,2.0,2.0,3.0,1650847889065329.0
2.0,3.0,29.0,8.0,3.0,2.0,1.0,2.0,1650847889067283.0
-1.0,-1.0,-5.0,-3.0,-1.0,-2.0,-2.0,-1.0,1650847889067283.0
1.0,3.0,2.0,-2.0,-8.0,-3.0,0.0,-1.0,1650847889087689.0
0.0,3.0,1.0,1.0,3.0,4.0,0.0,1.0,1650847889087689.0
-1.0,1.0,-2.0,-1.0,0.0,-1.0,2.0,2.0,1650847889088675.0
-3.0,-5.0,0.0,4.0,0.0,0.0,-1.0,-2.0,1650847889088675.0
0.0,2.0,3.0,-2.0,1.0,1.0,0.0,2.0,1650847889100819.0
-1.0,1.0,-4.0,1.0,-3.0,-2.0,-2.0,-1.0,1650847889100819.0
-4.0,-1.0,11.0,-1.0,-3.0,-3.0,-4.0,-2.0,1650847889109725.0
-1.0,-1.0,-7.0,-1.0,2.0,0.0,0.0,-1.0,1650847889109725.0
1.0,-5.0,-19.0,-4.0,1.0,1.0,1.0,0.0,1650847889131909.0
2.0,9.0,42.0,7.0,0.0,0.0,-1.0,-1.0,1650847889131909.0
-4.0,-13.0,-53.0,-13.0,-9.0,-6.0,0.0,0.0,1650847889133838.0
-1.0,3.0,11.0,3.0,2.0,-3.0,-12.0,-13.0,1650847889133838.0
-7.0,-2.0,13.0,2.0,-1.0,3.0,2.0,-19.0,1650847889146804.0
2.0,-1.0,5.0,-3.0,-1.0,-1.0,5.0,21.0,1650847889146804.0
0.0,0.0,-15.0,-2.0,1.0,-1.0,2.0,-2.0,1650847889148798.0
1.0,8.0,23.0,3.0,0.0,3.0,4.0,2.0,1650847889148798.0
2.0,1.0,0.0,3.0,6.0,3.0,0.0,-1.0,1650847889160810.0
-4.0,-7.0,5.0,-5.0,-10.0,-6.0,-5.0,-8.0,1650847889160810.0
-1.0,1.0,20.0,-1.0,-2.0,-1.0,-3.0,-2.0,1650847889177090.0
0.0,-3.0,-45.0,0.0,1.0,-2.0,-3.0,1.0,1650847889177090.0
2.0,1.0,6.0,2.0,4.0,-1.0,1.0,5.0,1650847889185070.0
3.0,18.0,37.0,8.0,4.0,9.0,5.0,-1.0,1650847889185070.0
-3.0,-16.0,-46.0,-10.0,-6.0,-2.0,1.0,4.0,1650847889186068.0
-2.0,1.0,17.0,-2.0,-1.0,-1.0,-2.0,-1.0,1650847889186068.0
5.0,10.0,4.0,4.0,2.0,1.0,6.0,7.0,1650847889207077.0
-2.0,-7.0,-14.0,2.0,0.0,-4.0,-17.0,-21.0,1650847889207077.0
5.0,13.0,25.0,3.0,2.0,4.0,7.0,6.0,1650847889209007.0
0.0,-7.0,-7.0,-6.0,0.0,1.0,2.0,-3.0,1650847889209007.0
-4.0,0.0,-19.0,-2.0,-4.0,-6.0,-9.0,12.0,1650847889221020.0
4.0,5.0,-1.0,0.0,0.0,-2.0,5.0,5.0,1650847889221020.0
-5.0,1.0,15.0,6.0,-2.0,-2.0,-7.0,-9.0,1650847889229951.0
2.0,-1.0,3.0,0.0,2.0,2.0,2.0,2.0,1650847889229951.0
-1.0,-8.0,-17.0,-2.0,-2.0,1.0,-1.0,-2.0,1650847889244976.0
-1.0,-2.0,-15.0,-2.0,0.0,-2.0,0.0,-2.0,1650847889244976.0
1.0,0.0,24.0,3.0,0.0,-2.0,0.0,6.0,1650847889245908.0
-2.0,1.0,4.0,-3.0,-3.0,-3.0,0.0,-1.0,1650847889245908.0
-1.0,3.0,5.0,-1.0,-5.0,-1.0,-4.0,-4.0,1650847889266919.0
-1.0,-3.0,-21.0,-6.0,0.0,2.0,3.0,2.0,1650847889266919.0
2.0,-4.0,1.0,3.0,-2.0,1.0,12.0,4.0,1650847889268846.0
-2.0,0.0,6.0,1.0,0.0,-4.0,-15.0,-6.0,1650847889268846.0
0.0,-4.0,-10.0,0.0,3.0,1.0,2.0,2.0,1650847889280881.0
-2.0,-1.0,19.0,-4.0,-3.0,-3.0,4.0,2.0,1650847889280881.0
-2.0,-11.0,-42.0,-7.0,1.0,1.0,-1.0,0.0,1650847889289790.0
1.0,0.0,-3.0,-4.0,-4.0,2.0,10.0,0.0,1650847889289790.0
-3.0,1.0,22.0,-3.0,-6.0,-5.0,-5.0,-2.0,1650847889305864.0
1.0,1.0,-7.0,-2.0,0.0,0.0,0.0,0.0,1650847889305864.0
0.0,-3.0,8.0,5.0,5.0,-1.0,-2.0,1.0,1650847889306837.0
-2.0,-3.0,13.0,3.0,0.0,-2.0,1.0,2.0,1650847889306837.0
2.0,-2.0,-18.0,-3.0,-1.0,0.0,7.0,-1.0,1650847889326979.0
-5.0,-1.0,6.0,-1.0,-7.0,-8.0,-9.0,-9.0,1650847889326979.0
-1.0,1.0,-5.0,-3.0,1.0,1.0,-3.0,11.0,1650847889328949.0
1.0,10.0,9.0,2.0,-2.0,-3.0,-3.0,-2.0,1650847889328949.0
1.0,1.0,12.0,19.0,5.0,7.0,11.0,0.0,1650847889340980.0
-2.0,3.0,9.0,2.0,-1.0,-5.0,-6.0,3.0,1650847889340980.0
1.0,-3.0,-6.0,-1.0,2.0,2.0,-4.0,-5.0,1650847889349975.0
0.0,0.0,-6.0,-17.0,-8.0,-3.0,3.0,2.0,1650847889349975.0
0.0,6.0,14.0,-26.0,-13.0,-3.0,-3.0,-5.0,1650847889364840.0
2.0,2.0,10.0,13.0,16.0,10.0,12.0,8.0,1650847889364840.0
-11.0,-41.0,-72.0,17.0,4.0,-5.0,-18.0,-15.0,1650847889366765.0
1.0,15.0,38.0,-6.0,-8.0,-4.0,14.0,8.0,1650847889366765.0
-15.0,-13.0,-3.0,10.0,-10.0,-19.0,-36.0,-27.0,1650847889387688.0
9.0,1.0,-47.0,-45.0,-19.0,3.0,8.0,15.0,1650847889387688.0
11.0,33.0,99.0,67.0,46.0,18.0,14.0,6.0,1650847889388696.0
-4.0,-18.0,-32.0,38.0,17.0,7.0,1.0,0.0,1650847889388696.0
10.0,-13.0,0.0,-4.0,8.0,9.0,4.0,19.0,1650847889400863.0
-7.0,-4.0,30.0,-21.0,-12.0,-10.0,-12.0,-19.0,1650847889400863.0
2.0,-11.0,-51.0,-34.0,-30.0,-12.0,1.0,8.0,1650847889410186.0
-10.0,47.0,33.0,-2.0,-4.0,-4.0,-7.0,-13.0,1650847889410186.0
0.0,-31.0,23.0,24.0,24.0,18.0,9.0,0.0,1650847889424788.0
-20.0,-46.0,-91.0,-11.0,-17.0,-20.0,-13.0,-9.0,1650847889424788.0
4.0,40.0,62.0,-17.0,-13.0,-6.0,-11.0,0.0,1650847889426750.0
1.0,27.0,-50.0,-2.0,3.0,9.0,13.0,3.0,1650847889426750.0
10.0,-38.0,38.0,-5.0,0.0,10.0,34.0,16.0,1650847889446818.0
-7.0,-15.0,-27.0,35.0,26.0,-6.0,-28.0,-18.0,1650847889446818.0
-8.0,3.0,32.0,3.0,-4.0,0.0,8.0,-2.0,1650847889448816.0
3.0,-50.0,35.0,-17.0,-10.0,0.0,17.0,11.0,1650847889448816.0
-10.0,39.0,-35.0,-27.0,-22.0,-14.0,-24.0,-20.0,1650847889469851.0
8.0,4.0,11.0,72.0,23.0,13.0,5.0,7.0,1650847889469851.0
-9.0,-51.0,-79.0,-85.0,-40.0,-17.0,2.0,-3.0,1650847889471789.0
-7.0,-32.0,57.0,51.0,2.0,-6.0,-24.0,-7.0,1650847889471789.0
7.0,37.0,26.0,-17.0,2.0,0.0,10.0,-1.0,1650847889484813.0
7.0,4.0,43.0,6.0,-11.0,0.0,12.0,9.0,1650847889484813.0
-12.0,8.0,-95.0,9.0,15.0,5.0,7.0,-5.0,1650847889486738.0
14.0,17.0,0.0,-56.0,-27.0,-4.0,-20.0,-5.0,1650847889486738.0
-3.0,-14.0,-28.0,-21.0,-5.0,-5.0,-4.0,4.0,1650847889507731.0
4.0,11.0,-37.0,49.0,28.0,14.0,0.0,-1.0,1650847889507731.0
-7.0,3.0,18.0,-26.0,-30.0,-3.0,-1.0,-10.0,1650847889508679.0
4.0,0.0,-21.0,17.0,22.0,2.0,17.0,17.0,1650847889508679.0
7.0,10.0,-1.0,-3.0,1.0,-3.0,-12.0,-4.0,1650847889529850.0
19.0,67.0,82.0,-10.0,16.0,20.0,41.0,26.0,1650847889529850.0
1.0,-60.0,-12.0,3.0,-2.0,-5.0,-23.0,-9.0,1650847889531797.0
-3.0,-1.0,-26.0,1.0,3.0,-5.0,8.0,9.0,1650847889531797.0
-12.0,-76.0,-26.0,37.0,9.0,-3.0,-1.0,-10.0,1650847889544798.0
26.0,86.0,47.0,-55.0,-21.0,1.0,18.0,27.0,1650847889544798.0
-11.0,-6.0,-50.0,26.0,9.0,-3.0,1.0,-2.0,1650847889546731.0
-8.0,3.0,32.0,-27.0,-12.0,-5.0,-41.0,-21.0,1650847889546731.0
-7.0,-4.0,29.0,33.0,14.0,6.0,21.0,11.0,1650847889567691.0
-10.0,-22.0,-18.0,-20.0,-30.0,-25.0,-32.0,-24.0,1650847889567691.0
2.0,4.0,23.0,35.0,38.0,16.0,1.0,-5.0,1650847889568697.0
15.0,21.0,-49.0,-39.0,-1.0,14.0,21.0,20.0,1650847889568697.0
-12.0,1.0,19.0,69.0,10.0,-11.0,-14.0,-16.0,1650847889589747.0
-11.0,-50.0,-66.0,-47.0,-20.0,-2.0,-19.0,-17.0,1650847889589747.0
12.0,56.0,101.0,69.0,40.0,15.0,10.0,11.0,1650847889591702.0
-1.0,-10.0,-13.0,37.0,19.0,6.0,11.0,-2.0,1650847889591702.0
10.0,9.0,-12.0,-38.0,-14.0,-4.0,14.0,22.0,1650847889605665.0
-16.0,-27.0,-7.0,-12.0,-4.0,-7.0,-25.0,-22.0,1650847889605665.0
10.0,1.0,0.0,-43.0,-36.0,-6.0,20.0,14.0,1650847889610626.0
-23.0,-7.0,16.0,8.0,11.0,-8.0,-41.0,-32.0,1650847889610626.0
3.0,21.0,-2.0,-22.0,-7.0,-1.0,2.0,2.0,1650847889627686.0
2.0,-13.0,23.0,31.0,15.0,11.0,14.0,12.0,1650847889627686.0
9.0,8.0,37.0,-38.0,-15.0,-6.0,-6.0,0.0,1650847889628699.0
-1.0,-4.0,7.0,30.0,-1.0,-3.0,1.0,-1.0,1650847889628699.0
-5.0,23.0,33.0,-21.0,-9.0,0.0,6.0,3.0,1650847889649300.0
-7.0,-9.0,-30.0,-29.0,-13.0,-15.0,-4.0,-6.0,1650847889649300.0
-3.0,50.0,32.0,3.0,-1.0,2.0,-14.0,-14.0,1650847889651298.0
2.0,-51.0,-10.0,6.0,-5.0,0.0,23.0,16.0,1650847889651298.0
-2.0,-29.0,-39.0,-25.0,1.0,3.0,-20.0,-5.0,1650847889664264.0
2.0,36.0,15.0,-3.0,-4.0,-4.0,-6.0,-5.0,1650847889664264.0
0.0,9.0,-15.0,17.0,15.0,7.0,11.0,7.0,1650847889671244.0
3.0,20.0,1.0,-34.0,-17.0,-7.0,5.0,5.0,1650847889671244.0
1.0,0.0,6.0,39.0,9.0,-4.0,-12.0,-11.0,1650847889687202.0
1.0,-29.0,-19.0,-5.0,4.0,9.0,26.0,14.0,1650847889687202.0
-4.0,9.0,23.0,-1.0,-9.0,-14.0,-38.0,-21.0,1650847889689226.0
-5.0,-31.0,-73.0,-14.0,1.0,11.0,22.0,5.0,1650847889689226.0
5.0,38.0,53.0,0.0,-6.0,-11.0,-14.0,-3.0,1650847889709884.0
-1.0,-5.0,-18.0,-12.0,-7.0,-6.0,-5.0,-2.0,1650847889709884.0
12.0,-1.0,35.0,43.0,26.0,15.0,20.0,16.0,1650847889710792.0
2.0,18.0,-26.0,-26.0,-17.0,-15.0,-14.0,-11.0,1650847889710792.0
-1.0,10.0,10.0,3.0,4.0,10.0,13.0,3.0,1650847889723823.0
-1.0,3.0,8.0,-16.0,-10.0,-2.0,-13.0,0.0,1650847889723823.0
-7.0,-29.0,15.0,-7.0,4.0,0.0,10.0,2.0,1650847889730747.0
1.0,-3.0,-5.0,6.0,-5.0,-4.0,-9.0,-7.0,1650847889730747.0
12.0,1.0,62.0,22.0,18.0,13.0,9.0,13.0,1650847889746761.0
-1.0,29.0,21.0,5.0,-1.0,-3.0,1.0,-2.0,1650847889746761.0
-4.0,-9.0,11.0,-19.0,-3.0,-8.0,-14.0,-15.0,1650847889748690.0
-1.0,-4.0,-15.0,10.0,2.0,6.0,24.0,15.0,1650847889748690.0
-4.0,0.0,5.0,16.0,1.0,-11.0,-31.0,-16.0,1650847889769634.0
-13.0,-30.0,19.0,-18.0,-13.0,-8.0,-8.0,-14.0,1650847889769634.0
11.0,27.0,-4.0,13.0,3.0,4.0,7.0,12.0,1650847889771658.0
-8.0,-8.0,15.0,-31.0,-14.0,-10.0,-11.0,-8.0,1650847889771658.0
0.0,-11.0,-25.0,-4.0,-6.0,1.0,4.0,-2.0,1650847889783662.0
3.0,18.0,17.0,32.0,21.0,15.0,13.0,6.0,1650847889783662.0
-13.0,-8.0,-11.0,-8.0,-7.0,-13.0,-26.0,-14.0,1650847889790647.0
7.0,6.0,45.0,4.0,6.0,7.0,-4.0,0.0,1650847889790647.0
-5.0,-9.0,-47.0,-21.0,-12.0,1.0,11.0,3.0,1650847889807728.0
-1.0,7.0,39.0,20.0,7.0,-1.0,3.0,-3.0,1650847889807728.0
4.0,-39.0,-45.0,-3.0,13.0,12.0,9.0,7.0,1650847889808712.0
-3.0,-1.0,14.0,25.0,13.0,4.0,8.0,1.0,1650847889808712.0
-1.0,14.0,-14.0,-9.0,2.0,-4.0,-10.0,-3.0,1650847889829960.0
2.0,0.0,1.0,-6.0,-3.0,2.0,8.0,5.0,1650847889829960.0
-12.0,-42.0,-41.0,-38.0,-26.0,-12.0,-3.0,-2.0,1650847889830904.0
7.0,35.0,65.0,47.0,24.0,5.0,-4.0,-7.0,1650847889830904.0
10.0,5.0,-66.0,-11.0,0.0,10.0,23.0,21.0,1650847889843920.0
-8.0,-11.0,-11.0,18.0,12.0,3.0,-2.0,1.0,1650847889843920.0
-3.0,8.0,11.0,-15.0,-16.0,-13.0,-20.0,-10.0,1650847889850904.0
-1.0,-33.0,-27.0,-10.0,3.0,5.0,5.0,6.0,1650847889850904.0
-4.0,29.0,32.0,-23.0,-20.0,-14.0,-10.0,-13.0,1650847889866861.0
12.0,13.0,37.0,37.0,23.0,15.0,25.0,19.0,1650847889866861.0
-9.0,-6.0,4.0,-13.0,-13.0,-7.0,-29.0,-16.0,1650847889868793.0
7.0,5.0,20.0,10.0,4.0,-1.0,-1.0,4.0,1650847889868793.0
-5.0,-7.0,-25.0,-24.0,-19.0,-8.0,3.0,0.0,1650847889889799.0
-5.0,-17.0,-9.0,-2.0,-2.0,-3.0,-10.0,-6.0,1650847889889799.0
-3.0,10.0,28.0,12.0,5.0,-3.0,-14.0,-8.0,1650847889891754.0
1.0,3.0,-20.0,-19.0,-9.0,2.0,4.0,1.0,1650847889891754.0
8.0,-3.0,18.0,-11.0,-1.0,1.0,7.0,6.0,1650847889903881.0
-18.0,-15.0,-29.0,-12.0,-12.0,-16.0,-32.0,-25.0,1650847889903881.0
11.0,14.0,-16.0,-8.0,6.0,13.0,41.0,20.0,1650847889910863.0
-8.0,-2.0,22.0,-2.0,-6.0,-9.0,-24.0,-12.0,1650847889910863.0
4.0,8.0,-38.0,4.0,9.0,9.0,5.0,1.0,1650847889927712.0
-9.0,-50.0,-14.0,-18.0,-12.0,-5.0,0.0,-6.0,1650847889927712.0
7.0,11.0,15.0,13.0,5.0,7.0,21.0,10.0,1650847889928712.0
-3.0,12.0,40.0,-30.0,-25.0,-12.0,-19.0,-10.0,1650847889928712.0
-7.0,-41.0,-39.0,21.0,22.0,9.0,6.0,0.0,1650847889949722.0
7.0,13.0,-2.0,-17.0,-6.0,2.0,14.0,11.0,1650847889949722.0
-4.0,10.0,5.0,6.0,-13.0,-12.0,-36.0,-14.0,1650847889951678.0
2.0,-5.0,-15.0,24.0,11.0,2.0,10.0,6.0,1650847889951678.0
6.0,32.0,38.0,-10.0,-14.0,-6.0,0.0,2.0,1650847889963618.0
-4.0,-3.0,-14.0,-8.0,-2.0,-10.0,-17.0,-11.0,1650847889963618.0
10.0,2.0,14.0,24.0,22.0,18.0,40.0,25.0,1650847889978695.0
-8.0,-26.0,-67.0,-16.0,-11.0,-12.0,-19.0,-6.0,1650847889978695.0
-8.0,1.0,16.0,-2.0,-11.0,-7.0,-6.0,-6.0,1650847889986689.0
6.0,11.0,-33.0,-20.0,-11.0,-6.0,-7.0,4.0,1650847889986689.0
-3.0,-9.0,0.0,9.0,13.0,3.0,11.0,3.0,1650847889988684.0
12.0,22.0,-32.0,2.0,3.0,9.0,18.0,13.0,1650847889988684.0
-9.0,-8.0,0.0,-1.0,5.0,-8.0,-24.0,-13.0,1650847890010017.0
1.0,-7.0,6.0,10.0,3.0,5.0,18.0,4.0,1650847890010017.0
4.0,15.0,-13.0,-4.0,-2.0,3.0,8.0,5.0,1650847890010948.0
-1.0,25.0,97.0,21.0,8.0,2.0,-3.0,-5.0,1650847890010948.0
-1.0,-39.0,-47.0,-22.0,-9.0,-2.0,5.0,8.0,1650847890023925.0
-4.0,-10.0,-2.0,39.0,14.0,-1.0,-18.0,-12.0,1650847890023925.0
2.0,-4.0,34.0,-8.0,-10.0,-1.0,1.0,-2.0,1650847890031893.0
2.0,16.0,1.0,-15.0,-2.0,3.0,9.0,5.0,1650847890031893.0
-1.0,4.0,-14.0,28.0,30.0,17.0,16.0,-2.0,1650847890046918.0
5.0,-9.0,8.0,7.0,5.0,6.0,17.0,15.0,1650847890046918.0
-5.0,46.0,-6.0,-24.0,-25.0,-20.0,-36.0,-21.0,1650847890048847.0
3.0,44.0,60.0,39.0,32.0,10.0,10.0,5.0,1650847890048847.0
-12.0,-55.0,-63.0,-58.0,-33.0,-14.0,4.0,2.0,1650847890069702.0
-2.0,5.0,10.0,25.0,21.0,9.0,-9.0,-5.0,1650847890069702.0
4.0,-14.0,3.0,-10.0,-7.0,-2.0,7.0,8.0,1650847890071655.0
-2.0,-12.0,-46.0,-55.0,-31.0,-12.0,-4.0,-4.0,1650847890071655.0
2.0,22.0,70.0,82.0,43.0,16.0,4.0,1.0,1650847890083597.0
-1.0,-9.0,-23.0,-13.0,-7.0,-3.0,4.0,2.0,1650847890083597.0
-4.0,-16.0,-29.0,-8.0,-2.0,-1.0,0.0,-3.0,1650847890092572.0
-2.0,-12.0,-17.0,3.0,2.0,1.0,-5.0,-4.0,1650847890092572.0
8.0,6.0,11.0,-9.0,0.0,4.0,15.0,15.0,1650847890107679.0
-2.0,4.0,8.0,-10.0,-17.0,-11.0,-12.0,-11.0,1650847890107679.0
-7.0,-15.0,-15.0,10.0,7.0,3.0,6.0,1.0,1650847890108621.0
-4.0,-29.0,-31.0,1.0,8.0,8.0,-4.0,1.0,1650847890108621.0
6.0,31.0,33.0,-17.0,-13.0,-6.0,-2.0,0.0,1650847890129974.0
10.0,-6.0,27.0,22.0,15.0,9.0,15.0,11.0,1650847890129974.0
-16.0,-15.0,-13.0,-16.0,-15.0,-18.0,-30.0,-19.0,1650847890130905.0
-1.0,-10.0,-25.0,3.0,4.0,-4.0,1.0,1.0,1650847890130905.0
-1.0,-4.0,9.0,-10.0,-10.0,3.0,-6.0,-3.0,1650847890142873.0
1.0,12.0,4.0,-4.0,-1.0,5.0,-1.0,-2.0,1650847890142873.0
3.0,-8.0,-10.0,4.0,9.0,8.0,20.0,6.0,1650847890152010.0
-3.0,-18.0,-5.0,-2.0,-7.0,-1.0,-1.0,-2.0,1650847890152010.0
-7.0,14.0,29.0,7.0,-3.0,-13.0,-31.0,-19.0,1650847890167079.0
0.0,3.0,-17.0,-11.0,-4.0,-3.0,0.0,1.0,1650847890167079.0
4.0,4.0,6.0,5.0,7.0,16.0,10.0,5.0,1650847890169051.0
-4.0,-1.0,-2.0,-1.0,-5.0,-7.0,-9.0,-4.0,1650847890169051.0
0.0,3.0,-10.0,1.0,3.0,4.0,9.0,-2.0,1650847890190062.0
0.0,1.0,9.0,-6.0,-3.0,-7.0,-2.0,1.0,1650847890190062.0
0.0,-5.0,-2.0,-1.0,-2.0,-4.0,-6.0,-2.0,1650847890191000.0
0.0,5.0,3.0,7.0,-1.0,0.0,-2.0,-4.0,1650847890191000.0
-3.0,-5.0,8.0,2.0,-1.0,-8.0,-16.0,-3.0,1650847890202960.0
1.0,6.0,33.0,-7.0,-7.0,3.0,4.0,1.0,1650847890202960.0
-1.0,2.0,0.0,0.0,1.0,-3.0,-2.0,-1.0,1650847890212082.0
-2.0,-11.0,-9.0,-1.0,-3.0,-2.0,-3.0,-3.0,1650847890212082.0
4.0,25.0,-2.0,1.0,-1.0,1.0,4.0,2.0,1650847890227154.0
-3.0,-13.0,-1.0,-5.0,2.0,4.0,-2.0,-3.0,1650847890227154.0
0.0,-6.0,1.0,0.0,-2.0,-5.0,-3.0,1.0,1650847890229120.0
7.0,15.0,10.0,2.0,3.0,4.0,0.0,2.0,1650847890229120.0
-7.0,-14.0,1.0,-2.0,-5.0,-10.0,-1.0,-5.0,1650847890250156.0
-1.0,6.0,-17.0,-2.0,-3.0,-8.0,-7.0,-1.0,1650847890250156.0
2.0,-4.0,-2.0,1.0,2.0,12.0,8.0,4.0,1650847890251062.0
-5.0,-16.0,-11.0,-4.0,-3.0,-4.0,-2.0,0.0,1650847890251062.0
-1.0,-4.0,3.0,4.0,5.0,2.0,-1.0,-3.0,1650847890263042.0
4.0,47.0,-1.0,3.0,-4.0,-6.0,0.0,9.0,1650847890263042.0
-13.0,-30.0,-21.0,0.0,5.0,16.0,10.0,-14.0,1650847890272013.0
3.0,9.0,15.0,-5.0,-1.0,-5.0,-5.0,0.0,1650847890272013.0
2.0,-2.0,-10.0,-5.0,-1.0,2.0,-4.0,-2.0,1650847890287075.0
-2.0,-9.0,-8.0,-7.0,-3.0,-3.0,2.0,3.0,1650847890287075.0
4.0,2.0,9.0,9.0,2.0,-7.0,-1.0,6.0,1650847890289074.0
-3.0,5.0,-5.0,5.0,1.0,1.0,0.0,-3.0,1650847890289074.0
-3.0,-9.0,1.0,-2.0,-3.0,-1.0,4.0,1.0,1650847890310096.0
2.0,-19.0,-7.0,2.0,1.0,6.0,1.0,0.0,1650847890310096.0
0.0,11.0,-3.0,-1.0,-4.0,-6.0,-5.0,-1.0,1650847890311001.0
-2.0,-1.0,2.0,-1.0,-2.0,0.0,0.0,-4.0,1650847890311001.0
2.0,8.0,-3.0,-5.0,-2.0,-1.0,0.0,3.0,1650847890322955.0
-3.0,-10.0,-6.0,-2.0,-3.0,0.0,-1.0,-3.0,1650847890322955.0
3.0,13.0,15.0,6.0,3.0,-3.0,-3.0,0.0,1650847890331932.0
-1.0,-8.0,-5.0,0.0,0.0,0.0,0.0,1.0,1650847890331932.0
-1.0,-1.0,-4.0,-3.0,-4.0,-1.0,-1.0,-1.0,1650847890346957.0
-3.0,1.0,-19.0,-14.0,-3.0,-1.0,0.0,-3.0,1650847890346957.0
0.0,-3.0,4.0,-4.0,-5.0,-2.0,0.0,2.0,1650847890348891.0
-2.0,-8.0,-12.0,1.0,6.0,1.0,2.0,0.0,1650847890348891.0
-1.0,0.0,4.0,2.0,-2.0,-3.0,-4.0,-1.0,1650847890369984.0
4.0,-1.0,11.0,4.0,1.0,0.0,2.0,3.0,1650847890369984.0
-4.0,8.0,-3.0,-3.0,-2.0,-3.0,-1.0,-5.0,1650847890370940.0
-2.0,-6.0,9.0,4.0,-2.0,-2.0,-1.0,-2.0,1650847890370940.0
0.0,-1.0,-2.0,7.0,3.0,4.0,1.0,-1.0,1650847890392814.0
-1.0,-3.0,-11.0,-8.0,0.0,2.0,-1.0,-1.0,1650847890392814.0
2.0,4.0,3.0,0.0,-2.0,-1.0,-3.0,1.0,1650847890393810.0
1.0,3.0,-1.0,-5.0,-4.0,-1.0,1.0,0.0,1650847890393810.0
0.0,0.0,3.0,4.0,1.0,-2.0,0.0,-1.0,1650847890407742.0
0.0,-3.0,2.0,6.0,2.0,1.0,1.0,-1.0,1650847890407742.0
1.0,2.0,-2.0,-2.0,1.0,2.0,0.0,0.0,1650847890408752.0
-2.0,-7.0,-3.0,0.0,2.0,0.0,-1.0,-2.0,1650847890408752.0
3.0,11.0,-1.0,-2.0,-1.0,1.0,-1.0,1.0,1650847890429817.0
-3.0,-7.0,1.0,0.0,-2.0,-2.0,-2.0,-2.0,1650847890429817.0
0.0,-2.0,-1.0,-1.0,-1.0,-5.0,-3.0,1.0,1650847890431744.0
0.0,2.0,1.0,0.0,-2.0,1.0,1.0,1.0,1650847890431744.0
0.0,-1.0,-1.0,-1.0,-1.0,0.0,0.0,0.0,1650847890452682.0
-3.0,0.0,1.0,3.0,5.0,2.0,-1.0,-2.0,1650847890452682.0
0.0,1.0,1.0,0.0,-2.0,-3.0,2.0,2.0,1650847890453687.0
-2.0,-8.0,-6.0,-7.0,-1.0,1.0,-1.0,1.0,1650847890453687.0
1.0,19.0,7.0,0.0,-1.0,0.0,-3.0,-2.0,1650847890467688.0
0.0,-5.0,0.0,4.0,1.0,1.0,1.0,-2.0,1650847890467688.0
1.0,-2.0,-2.0,0.0,-1.0,-4.0,-2.0,0.0,1650847890468691.0
2.0,6.0,-1.0,-4.0,-6.0,-4.0,-2.0,-1.0,1650847890468691.0
0.0,-2.0,-1.0,2.0,3.0,3.0,3.0,1.0,1650847890490801.0
-2.0,0.0,-2.0,2.0,1.0,1.0,0.0,-3.0,1650847890490801.0
0.0,4.0,-1.0,-5.0,-1.0,-3.0,1.0,1.0,1650847890492796.0
-1.0,3.0,0.0,2.0,0.0,0.0,-2.0,1.0,1650847890492796.0
-3.0,-12.0,-3.0,0.0,0.0,-2.0,0.0,-1.0,1650847890519760.0
2.0,5.0,-1.0,-6.0,-4.0,-2.0,-2.0,-2.0,1650847890519760.0
0.0,-5.0,0.0,2.0,3.0,1.0,0.0,1.0,1650847890521757.0
-4.0,-10.0,-2.0,-1.0,0.0,0.0,-2.0,-1.0,1650847890521757.0
1.0,8.0,-2.0,-3.0,0.0,1.0,1.0,2.0,1650847890526771.0
-1.0,-5.0,-1.0,-2.0,0.0,-1.0,0.0,0.0,1650847890526771.0
1.0,3.0,0.0,-2.0,-1.0,-2.0,-1.0,-2.0,1650847890533752.0
1.0,-1.0,-1.0,0.0,-1.0,-1.0,-1.0,-2.0,1650847890533752.0
-4.0,-4.0,-1.0,-2.0,0.0,-1.0,0.0,-1.0,1650847890549748.0
-2.0,1.0,1.0,2.0,0.0,-3.0,-3.0,-1.0,1650847890549748.0
-3.0,-5.0,-4.0,-2.0,-2.0,-2.0,-1.0,0.0,1650847890551705.0
1.0,4.0,2.0,3.0,4.0,2.0,2.0,2.0,1650847890551705.0
4.0,-6.0,-2.0,-2.0,-2.0,-1.0,3.0,3.0,1650847890571911.0
3.0,-1.0,-5.0,-6.0,-5.0,0.0,2.0,1.0,1650847890571911.0
-5.0,-2.0,1.0,3.0,1.0,1.0,-5.0,-3.0,1650847890573907.0
0.0,2.0,1.0,1.0,1.0,-2.0,-2.0,-2.0,1650847890573907.0
1.0,-1.0,0.0,-1.0,-4.0,-1.0,-1.0,1.0,1650847890586952.0
1.0,-1.0,3.0,2.0,0.0,-1.0,-1.0,-1.0,1650847890586952.0
1.0,-1.0,-3.0,-4.0,-3.0,0.0,1.0,0.0,1650847890592955.0
2.0,-1.0,0.0,2.0,1.0,1.0,2.0,-1.0,1650847890592955.0
-2.0,-2.0,1.0,-2.0,-3.0,-2.0,-3.0,-2.0,1650847890609952.0
-4.0,-5.0,-2.0,-1.0,2.0,4.0,-1.0,-2.0,1650847890609952.0
0.0,1.0,0.0,-1.0,-2.0,-4.0,-1.0,0.0,1650847890610909.0
-1.0,4.0,0.0,0.0,-1.0,-2.0,0.0,-1.0,1650847890610909.0
0.0,-4.0,-1.0,2.0,3.0,4.0,1.0,-1.0,1650847890631894.0
-1.0,-3.0,-2.0,-4.0,-5.0,-5.0,-1.0,-1.0,1650847890631894.0
0.0,2.0,2.0,3.0,2.0,3.0,1.0,-1.0,1650847890633832.0
-1.0,-1.0,-1.0,-2.0,-3.0,-2.0,-1.0,1.0,1650847890633832.0
1.0,-2.0,-3.0,1.0,0.0,-1.0,-2.0,0.0,1650847890646901.0
-9.0,0.0,-3.0,0.0,0.0,-1.0,-1.0,-3.0,1650847890646901.0
4.0,0.0,-2.0,-1.0,2.0,1.0,1.0,1.0,1650847890653862.0
-2.0,0.0,-2.0,0.0,-2.0,0.0,-1.0,-1.0,1650847890653862.0
-2.0,-8.0,-2.0,-2.0,-1.0,-2.0,-3.0,-4.0,1650847890669873.0
0.0,4.0,-1.0,0.0,-1.0,0.0,-2.0,0.0,1650847890669873.0
-2.0,2.0,1.0,1.0,0.0,-2.0,2.0,3.0,1650847890671800.0
5.0,-8.0,-2.0,-2.0,2.0,2.0,2.0,3.0,1650847890671800.0
-3.0,3.0,1.0,0.0,5.0,1.0,-2.0,-4.0,1650847890692069.0
0.0,0.0,0.0,-3.0,-4.0,-3.0,0.0,-1.0,1650847890692069.0
1.0,2.0,2.0,-1.0,-5.0,-1.0,0.0,-1.0,1650847890694033.0
-5.0,0.0,-3.0,1.0,3.0,4.0,2.0,-4.0,1650847890694033.0
2.0,-2.0,-1.0,-1.0,2.0,1.0,0.0,3.0,1650847890707042.0
2.0,2.0,1.0,1.0,2.0,-2.0,-1.0,1.0,1650847890707042.0
0.0,-3.0,3.0,0.0,-2.0,0.0,-2.0,-3.0,1650847890712987.0
2.0,2.0,0.0,-1.0,-5.0,-1.0,0.0,0.0,1650847890712987.0
-2.0,-3.0,-3.0,-1.0,0.0,1.0,0.0,0.0,1650847890730003.0
-1.0,-4.0,1.0,2.0,1.0,-3.0,-1.0,-1.0,1650847890730003.0
-2.0,1.0,1.0,3.0,1.0,0.0,0.0,-1.0,1650847890730934.0
-1.0,0.0,-1.0,1.0,0.0,-2.0,-1.0,-1.0,1650847890730934.0
-1.0,-1.0,-3.0,-2.0,-3.0,-4.0,-1.0,0.0,1650847890752100.0
0.0,0.0,0.0,-1.0,-2.0,1.0,0.0,1.0,1650847890752100.0
4.0,-2.0,-3.0,-2.0,-2.0,0.0,-1.0,0.0,1650847890754029.0
-3.0,1.0,0.0,-1.0,1.0,0.0,-2.0,-2.0,1650847890754029.0
-2.0,-2.0,0.0,0.0,-1.0,-3.0,0.0,-1.0,1650847890767038.0
0.0,-1.0,-2.0,-2.0,-2.0,4.0,-1.0,-1.0,1650847890767038.0
0.0,-1.0,-1.0,-1.0,-3.0,-2.0,-2.0,1.0,1650847890772981.0
-2.0,1.0,-1.0,1.0,0.0,0.0,-2.0,-2.0,1650847890772981.0
0.0,0.0,0.0,-1.0,0.0,-1.0,-2.0,-2.0,1650847890790000.0
3.0,0.0,0.0,0.0,0.0,-1.0,0.0,0.0,1650847890790000.0
-2.0,-3.0,-3.0,-1.0,-3.0,-2.0,-1.0,-2.0,1650847890790930.0
0.0,0.0,0.0,-2.0,-2.0,0.0,0.0,-1.0,1650847890790930.0
-2.0,-1.0,1.0,1.0,1.0,1.0,0.0,-2.0,1650847890811940.0
-1.0,-1.0,-2.0,1.0,1.0,0.0,0.0,0.0,1650847890811940.0
0.0,1.0,0.0,-1.0,0.0,1.0,-2.0,-3.0,1650847890813869.0
-2.0,-1.0,0.0,0.0,-2.0,-3.0,-1.0,0.0,1650847890813869.0
1.0,2.0,2.0,3.0,4.0,2.0,1.0,0.0,1650847890826901.0
-2.0,-2.0,-5.0,-2.0,0.0,-1.0,1.0,0.0,1650847890826901.0
-1.0,-1.0,-2.0,-3.0,0.0,1.0,0.0,0.0,1650847890833844.0
2.0,0.0,1.0,-1.0,-2.0,-2.0,-2.0,-2.0,1650847890833844.0
-1.0,0.0,-2.0,-2.0,-4.0,-3.0,-2.0,-2.0,1650847890849782.0
0.0,2.0,3.0,1.0,4.0,4.0,-1.0,1.0,1650847890849782.0
-1.0,-2.0,-4.0,-2.0,2.0,-2.0,0.0,-1.0,1650847890851768.0
0.0,-1.0,-2.0,-2.0,-4.0,-1.0,0.0,-2.0,1650847890851768.0
1.0,-1.0,-1.0,-3.0,-5.0,-2.0,1.0,1.0,1650847890871809.0
