EMG_s0,EMG_s1,EMG_s2,EMG_s3,EMG_s4,EMG_s5,EMG_s6,EMG_s7,timestamp
-1.0,1.0,3.0,3.0,-1.0,0.0,0.0,-1.0,1650847576372051.0
-2.0,4.0,-2.0,-7.0,-2.0,1.0,2.0,0.0,1650847576372051.0
2.0,-8.0,-3.0,-1.0,-1.0,-5.0,-2.0,-2.0,1650847576373042.0
1.0,-1.0,1.0,1.0,1.0,0.0,-2.0,-1.0,1650847576373042.0
-2.0,1.0,1.0,0.0,-1.0,0.0,-2.0,-4.0,1650847576374042.0
1.0,1.0,0.0,-1.0,-3.0,-4.0,-3.0,-1.0,1650847576374042.0
0.0,-3.0,-2.0,1.0,-1.0,-1.0,-1.0,0.0,1650847576375039.0
-3.0,-2.0,-5.0,-9.0,-5.0,-4.0,1.0,-1.0,1650847576375039.0
-2.0,-2.0,1.0,1.0,0.0,-1.0,0.0,-1.0,1650847576383018.0
1.0,-3.0,-3.0,0.0,-3.0,-3.0,0.0,1.0,1650847576383018.0
-3.0,2.0,0.0,0.0,-1.0,0.0,0.0,-2.0,1650847576390001.0
-2.0,-1.0,-2.0,-1.0,-2.0,-1.0,-1.0,-2.0,1650847576390001.0
1.0,-3.0,-4.0,1.0,0.0,-3.0,0.0,0.0,1650847576397999.0
-2.0,1.0,2.0,1.0,-2.0,1.0,0.0,-1.0,1650847576397999.0
-3.0,0.0,-1.0,-3.0,-1.0,1.0,-2.0,-2.0,1650847576414899.0
0.0,0.0,0.0,0.0,-2.0,-2.0,-2.0,-1.0,1650847576414899.0
0.0,2.0,-4.0,-2.0,-5.0,-1.0,-2.0,1.0,1650847576418849.0
-2.0,-2.0,0.0,2.0,0.0,1.0,0.0,-1.0,1650847576418849.0
0.0,3.0,1.0,1.0,0.0,-1.0,-1.0,0.0,1650847576443885.0
-1.0,-2.0,-1.0,2.0,1.0,1.0,-1.0,-1.0,1650847576443885.0
2.0,-1.0,-2.0,-3.0,-2.0,-3.0,0.0,0.0,1650847576445878.0
-2.0,-3.0,0.0,2.0,1.0,1.0,0.0,0.0,1650847576445878.0
2.0,-2.0,-2.0,-1.0,-1.0,-3.0,-1.0,-1.0,1650847576482849.0
-2.0,0.0,0.0,-2.0,-2.0,1.0,-1.0,-1.0,1650847576482849.0
-1.0,1.0,0.0,0.0,-1.0,1.0,0.0,-2.0,1650847576483846.0
3.0,0.0,0.0,0.0,0.0,-3.0,-1.0,2.0,1650847576483846.0
1.0,3.0,1.0,-1.0,0.0,1.0,0.0,-1.0,1650847576487864.0
-1.0,-1.0,1.0,1.0,1.0,0.0,0.0,1.0,1650847576487864.0
2.0,2.0,-1.0,-5.0,-3.0,-4.0,0.0,1.0,1650847576488859.0
-1.0,-5.0,2.0,0.0,-1.0,0.0,1.0,-1.0,1650847576488859.0
-4.0,-1.0,2.0,2.0,0.0,2.0,0.0,-2.0,1650847576495827.0
0.0,-1.0,-2.0,1.0,-2.0,-5.0,-2.0,-1.0,1650847576495827.0
-1.0,-3.0,-6.0,-6.0,-1.0,0.0,-2.0,-1.0,1650847576501797.0
-2.0,-1.0,2.0,5.0,2.0,0.0,-1.0,-2.0,1650847576501797.0
-3.0,1.0,0.0,-3.0,0.0,-3.0,0.0,-1.0,1650847576510840.0
0.0,-2.0,-1.0,-2.0,-2.0,-1.0,-1.0,1.0,1650847576510840.0
0.0,-2.0,2.0,2.0,1.0,1.0,1.0,0.0,1650847576523739.0
-2.0,0.0,-3.0,-4.0,-2.0,0.0,-1.0,-1.0,1650847576523739.0
1.0,-2.0,-1.0,2.0,-1.0,-3.0,-2.0,2.0,1650847576532716.0
0.0,3.0,0.0,0.0,0.0,2.0,0.0,-2.0,1650847576532716.0
-2.0,1.0,4.0,2.0,1.0,0.0,-1.0,-1.0,1650847576554875.0
0.0,0.0,-2.0,-3.0,-1.0,-1.0,-2.0,0.0,1650847576554875.0
1.0,-2.0,-6.0,-7.0,-2.0,-1.0,-2.0,0.0,1650847576556808.0
0.0,0.0,-2.0,-1.0,-1.0,-3.0,1.0,-1.0,1650847576556808.0
0.0,0.0,1.0,1.0,-2.0,1.0,0.0,0.0,1650847576577871.0
-2.0,-7.0,-2.0,0.0,-1.0,-1.0,-1.0,-1.0,1650847576577871.0
0.0,1.0,0.0,0.0,-1.0,-1.0,2.0,-1.0,1650847576579799.0
-1.0,0.0,1.0,-1.0,1.0,0.0,0.0,-2.0,1650847576579799.0
0.0,-2.0,-1.0,-1.0,-1.0,0.0,-1.0,-3.0,1650847576593245.0
0.0,2.0,-1.0,-1.0,0.0,1.0,0.0,0.0,1650847576593245.0
-2.0,-8.0,-1.0,1.0,-1.0,0.0,0.0,-1.0,1650847576594245.0
-1.0,-3.0,0.0,1.0,-4.0,-3.0,-1.0,0.0,1650847576594245.0
0.0,1.0,0.0,2.0,0.0,-2.0,1.0,0.0,1650847576614906.0
0.0,0.0,-3.0,-1.0,-2.0,1.0,1.0,0.0,1650847576614906.0
-1.0,-2.0,-2.0,-1.0,-1.0,1.0,-2.0,-1.0,1650847576616847.0
-1.0,2.0,3.0,4.0,4.0,2.0,-1.0,-1.0,1650847576616847.0
-1.0,-2.0,-2.0,-4.0,-5.0,-1.0,0.0,2.0,1650847576628925.0
1.0,3.0,0.0,-1.0,-1.0,-1.0,1.0,0.0,1650847576628925.0
1.0,2.0,2.0,1.0,1.0,0.0,-1.0,-1.0,1650847576637904.0
-1.0,0.0,0.0,0.0,0.0,0.0,-1.0,0.0,1650847576637904.0
0.0,-1.0,-3.0,1.0,0.0,-1.0,0.0,0.0,1650847576652985.0
0.0,-1.0,0.0,-2.0,-1.0,-2.0,-2.0,1.0,1650847576652985.0
0.0,1.0,-1.0,1.0,-2.0,-1.0,0.0,-1.0,1650847576653915.0
0.0,-1.0,-1.0,-3.0,0.0,-1.0,1.0,-1.0,1650847576653915.0
-1.0,1.0,3.0,4.0,1.0,1.0,0.0,-1.0,1650847576674922.0
-1.0,1.0,-1.0,0.0,1.0,1.0,-2.0,-2.0,1650847576674922.0
-4.0,0.0,1.0,-1.0,-2.0,1.0,-1.0,0.0,1650847576676851.0
1.0,-1.0,-2.0,-2.0,-1.0,2.0,0.0,0.0,1650847576676851.0
0.0,-3.0,2.0,2.0,0.0,-1.0,-1.0,-2.0,1650847576688884.0
0.0,2.0,5.0,5.0,0.0,-2.0,-1.0,-1.0,1650847576688884.0
0.0,3.0,5.0,10.0,2.0,-1.0,1.0,0.0,1650847576697795.0
2.0,-2.0,-12.0,-15.0,-6.0,-1.0,0.0,0.0,1650847576697795.0
-4.0,-5.0,0.0,-3.0,-1.0,-1.0,0.0,-1.0,1650847576712755.0
1.0,3.0,2.0,1.0,0.0,1.0,-1.0,0.0,1650847576712755.0
1.0,-3.0,0.0,0.0,1.0,1.0,-2.0,2.0,1650847576714777.0
0.0,1.0,2.0,5.0,0.0,-2.0,-2.0,0.0,1650847576714777.0
-1.0,1.0,-3.0,-3.0,-1.0,-1.0,-2.0,-1.0,1650847576735752.0
-1.0,-3.0,1.0,-2.0,-4.0,-4.0,-1.0,0.0,1650847576735752.0
1.0,6.0,0.0,2.0,0.0,1.0,0.0,-1.0,1650847576736691.0
-1.0,-3.0,-6.0,-8.0,-1.0,2.0,0.0,-1.0,1650847576736691.0
-1.0,1.0,-2.0,0.0,0.0,0.0,-2.0,-1.0,1650847576749327.0
-1.0,-1.0,-1.0,2.0,0.0,-2.0,1.0,-1.0,1650847576749327.0
-1.0,0.0,0.0,-2.0,-2.0,0.0,1.0,1.0,1650847576758357.0
-1.0,1.0,2.0,3.0,1.0,-1.0,-1.0,0.0,1650847576758357.0
0.0,3.0,0.0,-2.0,-1.0,-2.0,-2.0,0.0,1650847576772472.0
-2.0,-4.0,-1.0,-1.0,1.0,1.0,-1.0,-4.0,1650847576772472.0
0.0,-3.0,-5.0,-4.0,-2.0,-3.0,-2.0,-1.0,1650847576774465.0
0.0,1.0,1.0,1.0,0.0,0.0,-2.0,1.0,1650847576774465.0
0.0,1.0,0.0,1.0,-2.0,-1.0,-1.0,0.0,1650847576795508.0
0.0,0.0,-1.0,-1.0,0.0,0.0,-1.0,2.0,1650847576795508.0
0.0,-3.0,-3.0,-4.0,-1.0,-2.0,-1.0,-2.0,1650847576796506.0
1.0,-2.0,1.0,3.0,0.0,0.0,0.0,-1.0,1650847576796506.0
-3.0,0.0,-1.0,-1.0,0.0,-1.0,-1.0,0.0,1650847576808589.0
0.0,-1.0,-2.0,-3.0,-1.0,0.0,-1.0,1.0,1650847576808589.0
1.0,2.0,-1.0,-1.0,1.0,-1.0,-1.0,0.0,1650847576817634.0
-1.0,-1.0,4.0,5.0,3.0,0.0,1.0,-2.0,1650847576817634.0
1.0,-2.0,0.0,-2.0,-2.0,-3.0,0.0,-1.0,1650847576832799.0
-1.0,0.0,-2.0,-2.0,-1.0,-1.0,0.0,-2.0,1650847576832799.0
-1.0,3.0,-3.0,-4.0,-3.0,-2.0,-2.0,-2.0,1650847576834729.0
0.0,0.0,2.0,3.0,0.0,0.0,-1.0,-2.0,1650847576834729.0
0.0,-4.0,0.0,-1.0,1.0,0.0,0.0,0.0,1650847576854976.0
0.0,1.0,-2.0,-5.0,-1.0,-3.0,0.0,1.0,1650847576854976.0
0.0,0.0,2.0,1.0,1.0,2.0,1.0,0.0,1650847576856904.0
-1.0,-5.0,-4.0,-3.0,-3.0,-2.0,-2.0,-1.0,1650847576856904.0
-1.0,0.0,0.0,0.0,-1.0,-2.0,-1.0,-3.0,1650847576877916.0
1.0,1.0,0.0,0.0,0.0,-1.0,-1.0,-2.0,1650847576877916.0
-2.0,-1.0,-1.0,2.0,0.0,0.0,-1.0,1.0,1650847576878868.0
-2.0,-1.0,-1.0,-2.0,-2.0,-3.0,0.0,0.0,1650847576878868.0
1.0,-1.0,0.0,0.0,0.0,-1.0,0.0,1.0,1650847576892925.0
0.0,-2.0,-2.0,0.0,-1.0,-1.0,0.0,0.0,1650847576892925.0
0.0,0.0,-1.0,-1.0,-2.0,-1.0,-1.0,-1.0,1650847576893881.0
-1.0,0.0,2.0,1.0,0.0,1.0,-1.0,1.0,1650847576893881.0
1.0,2.0,-2.0,-4.0,-1.0,-1.0,0.0,2.0,1650847576914877.0
-2.0,-1.0,0.0,-2.0,0.0,-1.0,-1.0,1.0,1650847576914877.0
0.0,0.0,-1.0,-2.0,-1.0,-3.0,-1.0,-1.0,1650847576916806.0
0.0,-1.0,-2.0,-1.0,-3.0,-2.0,0.0,-1.0,1650847576916806.0
-3.0,-4.0,-2.0,-3.0,-3.0,0.0,-1.0,-1.0,1650847576928774.0
1.0,0.0,-1.0,1.0,0.0,0.0,1.0,0.0,1650847576928774.0
-1.0,-3.0,0.0,-1.0,0.0,0.0,-1.0,-1.0,1650847576944964.0
-1.0,5.0,2.0,2.0,0.0,0.0,-1.0,0.0,1650847576944964.0
1.0,-2.0,-1.0,-2.0,1.0,1.0,-1.0,-1.0,1650847576959925.0
-1.0,0.0,0.0,-1.0,-4.0,-1.0,-1.0,0.0,1650847576959925.0
-2.0,-5.0,0.0,0.0,-1.0,-3.0,-1.0,-3.0,1650847576961852.0
2.0,3.0,2.0,0.0,2.0,1.0,1.0,0.0,1650847576961852.0
-1.0,-2.0,-3.0,1.0,1.0,0.0,-1.0,0.0,1650847576974830.0
-2.0,-2.0,-4.0,-1.0,2.0,2.0,0.0,2.0,1650847576974830.0
0.0,0.0,0.0,-1.0,0.0,-2.0,3.0,1.0,1650847576981856.0
1.0,1.0,0.0,-2.0,-3.0,-2.0,0.0,-1.0,1650847576981856.0
0.0,-1.0,0.0,3.0,2.0,0.0,1.0,-1.0,1650847576989326.0
0.0,1.0,-1.0,-5.0,-3.0,-2.0,-2.0,-2.0,1650847576989326.0
-1.0,2.0,0.0,-2.0,1.0,2.0,-2.0,2.0,1650847576997784.0
-1.0,-1.0,-1.0,0.0,0.0,-2.0,-2.0,-1.0,1650847576997784.0
0.0,1.0,1.0,0.0,0.0,0.0,1.0,-1.0,1650847577012885.0
1.0,-1.0,0.0,1.0,2.0,0.0,0.0,-3.0,1650847577012885.0
1.0,-4.0,-3.0,0.0,-1.0,-1.0,-1.0,-1.0,1650847577013885.0
-1.0,-2.0,-3.0,-3.0,-2.0,-1.0,0.0,-1.0,1650847577013885.0
1.0,3.0,0.0,2.0,1.0,-2.0,-1.0,1.0,1650847577034897.0
2.0,4.0,2.0,0.0,-1.0,-1.0,1.0,1.0,1650847577034897.0
-1.0,-3.0,-1.0,0.0,-2.0,-1.0,-1.0,-4.0,1650847577036824.0
-1.0,0.0,1.0,1.0,1.0,2.0,-2.0,0.0,1650847577036824.0
-1.0,0.0,0.0,-2.0,-3.0,0.0,-1.0,1.0,1650847577065786.0
-1.0,0.0,1.0,0.0,2.0,0.0,-1.0,1.0,1650847577065786.0
1.0,4.0,0.0,1.0,1.0,-1.0,1.0,-1.0,1650847577066784.0
-1.0,-6.0,-3.0,-2.0,0.0,-1.0,0.0,0.0,1650847577066784.0
1.0,3.0,3.0,1.0,1.0,-1.0,-1.0,1.0,1650847577071797.0
-3.0,-7.0,-2.0,-2.0,-2.0,-1.0,-2.0,0.0,1650847577071797.0
-1.0,1.0,0.0,-1.0,-1.0,1.0,0.0,1.0,1650847577078752.0
-1.0,-1.0,-1.0,-2.0,-1.0,0.0,0.0,-1.0,1650847577078752.0
-1.0,1.0,-2.0,1.0,-1.0,1.0,0.0,-2.0,1650847577094901.0
-1.0,-3.0,-2.0,-1.0,-2.0,-2.0,0.0,0.0,1650847577094901.0
1.0,0.0,0.0,-1.0,-1.0,0.0,0.0,-1.0,1650847577096841.0
-1.0,-3.0,0.0,1.0,0.0,-1.0,-2.0,-2.0,1650847577096841.0
-1.0,-2.0,-2.0,-2.0,-1.0,-1.0,0.0,-1.0,1650847577117840.0
0.0,1.0,1.0,1.0,1.0,-1.0,0.0,-1.0,1650847577117840.0
-2.0,-3.0,-2.0,-1.0,-1.0,0.0,-2.0,-1.0,1650847577119768.0
0.0,1.0,1.0,1.0,0.0,-1.0,-2.0,1.0,1650847577119768.0
-1.0,1.0,0.0,-1.0,0.0,1.0,-1.0,-2.0,1650847577132885.0
-2.0,-6.0,-4.0,-1.0,-1.0,-1.0,-1.0,-3.0,1650847577132885.0
-1.0,-2.0,1.0,2.0,-1.0,0.0,0.0,0.0,1650847577133885.0
0.0,0.0,1.0,-4.0,-2.0,1.0,2.0,0.0,1650847577133885.0
-1.0,-2.0,-3.0,-1.0,-1.0,-1.0,0.0,0.0,1650847577155781.0
2.0,5.0,0.0,-1.0,-2.0,1.0,-1.0,2.0,1650847577155781.0
-1.0,-7.0,-4.0,-2.0,1.0,0.0,0.0,-2.0,1650847577156777.0
0.0,1.0,-2.0,-1.0,-2.0,-2.0,-1.0,-1.0,1650847577156777.0
-1.0,-1.0,0.0,0.0,-1.0,0.0,1.0,-1.0,1650847577177935.0
-1.0,-1.0,-1.0,2.0,1.0,1.0,1.0,0.0,1650847577177935.0
0.0,2.0,3.0,0.0,-1.0,0.0,-1.0,-1.0,1650847577178867.0
-1.0,-2.0,-2.0,0.0,0.0,-2.0,-2.0,0.0,1650847577178867.0
-1.0,-2.0,-5.0,-5.0,-4.0,-4.0,-1.0,-1.0,1650847577192892.0
0.0,2.0,-1.0,0.0,-1.0,-2.0,-2.0,0.0,1650847577192892.0
-2.0,0.0,0.0,2.0,0.0,-2.0,-2.0,0.0,1650847577193827.0
0.0,-2.0,-3.0,0.0,-1.0,-1.0,1.0,1.0,1650847577193827.0
2.0,1.0,1.0,0.0,-1.0,-1.0,-1.0,-3.0,1650847577215768.0
0.0,-2.0,1.0,1.0,2.0,1.0,0.0,2.0,1650847577215768.0
2.0,1.0,0.0,-3.0,-2.0,-2.0,-1.0,0.0,1650847577216765.0
-1.0,1.0,-1.0,-1.0,-1.0,1.0,0.0,-1.0,1650847577216765.0
0.0,0.0,-1.0,-1.0,0.0,1.0,-2.0,0.0,1650847577237853.0
-1.0,1.0,1.0,-2.0,-1.0,-1.0,-1.0,-2.0,1650847577237853.0
1.0,6.0,0.0,2.0,1.0,-2.0,0.0,1.0,1650847577238853.0
-2.0,-4.0,1.0,4.0,1.0,0.0,-2.0,0.0,1650847577238853.0
-1.0,-3.0,-2.0,-5.0,-2.0,-1.0,0.0,-1.0,1650847577251935.0
-1.0,0.0,-4.0,0.0,-1.0,0.0,-1.0,-1.0,1650847577251935.0
0.0,1.0,-1.0,-1.0,-1.0,0.0,-2.0,-1.0,1650847577266877.0
-1.0,-2.0,-1.0,1.0,-2.0,-1.0,0.0,-1.0,1650847577266877.0
-1.0,3.0,-2.0,0.0,-1.0,-2.0,1.0,0.0,1650847577274846.0
-1.0,-1.0,3.0,0.0,1.0,1.0,-2.0,-2.0,1650847577274846.0
0.0,0.0,-1.0,-3.0,-2.0,-1.0,-2.0,0.0,1650847577276839.0
-1.0,1.0,-1.0,2.0,1.0,0.0,1.0,0.0,1650847577276839.0
-2.0,0.0,4.0,5.0,2.0,-1.0,1.0,0.0,1650847577297784.0
-2.0,-1.0,-1.0,-3.0,-1.0,-1.0,1.0,0.0,1650847577297784.0
0.0,-3.0,-3.0,-4.0,0.0,-1.0,-1.0,1.0,1650847577298780.0
-1.0,1.0,-1.0,-1.0,0.0,-2.0,-2.0,-1.0,1650847577298780.0
-2.0,-1.0,-1.0,-2.0,-1.0,-2.0,0.0,-1.0,1650847577311806.0
1.0,0.0,-1.0,3.0,0.0,0.0,0.0,-1.0,1650847577311806.0
0.0,-2.0,0.0,-1.0,-1.0,0.0,-3.0,-1.0,1650847577318794.0
1.0,-2.0,-2.0,-3.0,-4.0,-1.0,1.0,1.0,1650847577318794.0
-1.0,0.0,-1.0,0.0,1.0,0.0,-1.0,-2.0,1650847577334907.0
0.0,-2.0,-2.0,-2.0,0.0,-1.0,-1.0,0.0,1650847577334907.0
-1.0,0.0,1.0,0.0,-1.0,-1.0,1.0,-1.0,1650847577336836.0
-1.0,0.0,1.0,-1.0,0.0,0.0,0.0,-1.0,1650847577336836.0
0.0,1.0,1.0,2.0,-2.0,0.0,-2.0,-1.0,1650847577357809.0
0.0,-2.0,0.0,0.0,-2.0,-1.0,1.0,-1.0,1650847577357809.0
-1.0,2.0,0.0,-1.0,0.0,2.0,0.0,-1.0,1650847577358810.0
-1.0,-3.0,-2.0,-1.0,-2.0,-1.0,-2.0,-1.0,1650847577358810.0
0.0,0.0,1.0,1.0,0.0,1.0,0.0,1.0,1650847577372538.0
-1.0,1.0,0.0,0.0,1.0,-1.0,-1.0,0.0,1650847577372538.0
0.0,-2.0,0.0,2.0,0.0,1.0,-3.0,1.0,1650847577378648.0
-1.0,0.0,-1.0,-4.0,-2.0,-1.0,0.0,1.0,1650847577378648.0
0.0,-5.0,-1.0,-2.0,-3.0,-2.0,-2.0,-1.0,1650847577395681.0
-1.0,0.0,-2.0,-1.0,0.0,0.0,-1.0,-1.0,1650847577395681.0
0.0,-1.0,0.0,3.0,0.0,-1.0,0.0,0.0,1650847577396603.0
-2.0,-2.0,0.0,2.0,2.0,0.0,-1.0,-2.0,1650847577396603.0
0.0,1.0,-2.0,0.0,-1.0,0.0,-2.0,-2.0,1650847577418176.0
-1.0,1.0,2.0,1.0,1.0,-1.0,0.0,0.0,1650847577418176.0
0.0,3.0,0.0,-1.0,-1.0,0.0,-1.0,1.0,1650847577418941.0
-1.0,1.0,-3.0,-1.0,-1.0,0.0,-1.0,0.0,1650847577418941.0
1.0,-2.0,0.0,-2.0,1.0,0.0,0.0,0.0,1650847577431913.0
1.0,0.0,-1.0,-1.0,-3.0,-1.0,0.0,-1.0,1650847577431913.0
0.0,0.0,1.0,0.0,0.0,-1.0,2.0,0.0,1650847577438956.0
0.0,4.0,2.0,1.0,-1.0,0.0,0.0,-1.0,1650847577438956.0
-1.0,-2.0,-4.0,-3.0,-4.0,1.0,-1.0,2.0,1650847577453916.0
1.0,-3.0,-5.0,-3.0,-2.0,0.0,-2.0,-1.0,1650847577453916.0
-1.0,-5.0,1.0,1.0,3.0,0.0,1.0,-1.0,1650847577462826.0
0.0,1.0,1.0,-1.0,1.0,-2.0,-1.0,-1.0,1650847577462826.0
-2.0,2.0,0.0,-1.0,0.0,-1.0,-1.0,-1.0,1650847577477927.0
-2.0,-6.0,-1.0,0.0,-2.0,0.0,-1.0,-1.0,1650847577477927.0
-3.0,3.0,-2.0,0.0,-2.0,-3.0,-1.0,-3.0,1650847577478956.0
0.0,-1.0,-1.0,-1.0,1.0,1.0,0.0,1.0,1650847577478956.0
-1.0,2.0,3.0,1.0,1.0,0.0,-1.0,-1.0,1650847577500341.0
-1.0,-1.0,-1.0,-1.0,-1.0,-1.0,0.0,1.0,1650847577500341.0
0.0,-1.0,-1.0,3.0,1.0,0.0,-1.0,0.0,1650847577502290.0
0.0,-3.0,-4.0,-7.0,-3.0,-2.0,-1.0,-2.0,1650847577502290.0
0.0,0.0,1.0,-1.0,-2.0,-2.0,0.0,0.0,1650847577514305.0
-2.0,-4.0,-1.0,2.0,0.0,-2.0,-2.0,-2.0,1650847577514305.0
-1.0,0.0,-4.0,-5.0,-2.0,0.0,0.0,0.0,1650847577523220.0
-1.0,-1.0,0.0,1.0,0.0,4.0,-2.0,-1.0,1650847577523220.0
-2.0,-1.0,0.0,2.0,0.0,0.0,0.0,0.0,1650847577537287.0
2.0,3.0,2.0,1.0,1.0,0.0,0.0,-2.0,1650847577537287.0
0.0,-7.0,-4.0,-5.0,-5.0,-1.0,-1.0,-1.0,1650847577539285.0
-1.0,-4.0,1.0,0.0,-1.0,-2.0,0.0,-1.0,1650847577539285.0
-2.0,0.0,-3.0,0.0,0.0,-1.0,1.0,-1.0,1650847577560295.0
-2.0,-2.0,1.0,2.0,1.0,0.0,-2.0,-1.0,1650847577560295.0
0.0,1.0,0.0,-2.0,2.0,3.0,0.0,0.0,1650847577562250.0
3.0,2.0,0.0,-1.0,-1.0,-1.0,-1.0,0.0,1650847577562250.0
-1.0,-2.0,-1.0,-1.0,0.0,-2.0,0.0,0.0,1650847577582326.0
-1.0,-2.0,-4.0,-2.0,-1.0,-3.0,-2.0,-3.0,1650847577582326.0
-2.0,3.0,0.0,-3.0,-2.0,-2.0,-1.0,-1.0,1650847577584314.0
-1.0,-3.0,0.0,3.0,1.0,-1.0,-1.0,-1.0,1650847577584314.0
0.0,-1.0,0.0,0.0,-1.0,-1.0,0.0,-2.0,1650847577597306.0
-1.0,0.0,-2.0,-1.0,-3.0,-1.0,0.0,1.0,1650847577597306.0
-1.0,-1.0,0.0,1.0,2.0,-1.0,-1.0,0.0,1650847577604305.0
1.0,2.0,-1.0,-1.0,0.0,-1.0,0.0,1.0,1650847577604305.0
-1.0,-2.0,-1.0,1.0,1.0,0.0,-1.0,0.0,1650847577620435.0
0.0,0.0,1.0,-1.0,-1.0,-1.0,0.0,0.0,1650847577620435.0
-1.0,1.0,0.0,-1.0,0.0,-2.0,-1.0,0.0,1650847577621394.0
-3.0,-2.0,4.0,3.0,2.0,-1.0,-1.0,-1.0,1650847577621394.0
1.0,0.0,-3.0,-2.0,3.0,3.0,-1.0,-2.0,1650847577642820.0
-2.0,-3.0,-3.0,-4.0,-3.0,0.0,1.0,-1.0,1650847577642820.0
-1.0,0.0,-2.0,-2.0,-3.0,-3.0,0.0,-1.0,1650847577644777.0
1.0,-1.0,0.0,1.0,0.0,2.0,0.0,0.0,1650847577644777.0
1.0,0.0,1.0,0.0,0.0,0.0,-2.0,0.0,1650847577657777.0
-1.0,-1.0,-1.0,1.0,3.0,1.0,-1.0,0.0,1650847577657777.0
-2.0,-1.0,-1.0,1.0,0.0,-1.0,0.0,0.0,1650847577659728.0
0.0,1.0,-3.0,-3.0,-2.0,-1.0,-1.0,1.0,1650847577659728.0
-1.0,-2.0,-1.0,-1.0,-2.0,-2.0,-1.0,0.0,1650847577679873.0
2.0,4.0,0.0,-1.0,0.0,-1.0,1.0,0.0,1650847577679873.0
-1.0,-4.0,-2.0,-1.0,1.0,1.0,-1.0,-1.0,1650847577681801.0
0.0,-1.0,-3.0,-3.0,-1.0,-3.0,0.0,-1.0,1650847577681801.0
-1.0,0.0,-2.0,-2.0,-1.0,0.0,-1.0,1.0,1650847577702806.0
-1.0,5.0,0.0,-1.0,0.0,0.0,1.0,0.0,1650847577702806.0
1.0,-2.0,2.0,1.0,0.0,1.0,0.0,-1.0,1650847577704753.0
-1.0,-1.0,0.0,1.0,0.0,0.0,-1.0,-1.0,1650847577704753.0
1.0,-2.0,-3.0,-3.0,-2.0,-3.0,0.0,0.0,1650847577717565.0
-1.0,0.0,2.0,0.0,-1.0,-1.0,-1.0,-1.0,1650847577717565.0
2.0,-1.0,-2.0,-2.0,0.0,0.0,-2.0,-1.0,1650847577723628.0
-1.0,0.0,-1.0,0.0,-1.0,-1.0,-1.0,-1.0,1650847577723628.0
-1.0,-1.0,2.0,1.0,0.0,-1.0,0.0,0.0,1650847577739624.0
2.0,2.0,1.0,0.0,-1.0,-1.0,-1.0,2.0,1650847577739624.0
0.0,1.0,-3.0,-1.0,0.0,-2.0,-2.0,-1.0,1650847577747563.0
-2.0,0.0,-1.0,-4.0,-1.0,-2.0,1.0,-2.0,1650847577747563.0
-1.0,0.0,0.0,0.0,0.0,-1.0,-2.0,-1.0,1650847577762564.0
-2.0,-2.0,-3.0,-3.0,-2.0,-3.0,0.0,-1.0,1650847577762564.0
-2.0,-1.0,1.0,1.0,0.0,1.0,-1.0,0.0,1650847577764491.0
-1.0,0.0,0.0,0.0,0.0,-2.0,-1.0,-2.0,1650847577764491.0
-2.0,-2.0,-4.0,-1.0,0.0,-1.0,0.0,-2.0,1650847577777522.0
1.0,0.0,1.0,0.0,-2.0,1.0,-1.0,0.0,1650847577777522.0
-2.0,0.0,-1.0,-1.0,-1.0,-2.0,1.0,0.0,1650847577783442.0
0.0,1.0,0.0,0.0,-2.0,0.0,1.0,-1.0,1650847577783442.0
-1.0,1.0,2.0,-1.0,1.0,1.0,-1.0,0.0,1650847577800453.0
-1.0,-5.0,-3.0,-2.0,0.0,-2.0,-1.0,-1.0,1650847577800453.0
0.0,1.0,-2.0,1.0,0.0,0.0,1.0,1.0,1650847577801393.0
-2.0,2.0,1.0,1.0,0.0,0.0,-1.0,0.0,1650847577801393.0
-1.0,-2.0,-2.0,-1.0,-1.0,-1.0,1.0,-1.0,1650847577822571.0
-1.0,0.0,-1.0,-1.0,-1.0,-1.0,0.0,-1.0,1650847577822571.0
-2.0,1.0,0.0,-1.0,-2.0,-2.0,0.0,-2.0,1650847577824498.0
-1.0,-5.0,0.0,-2.0,-1.0,0.0,0.0,0.0,1650847577824498.0
0.0,2.0,-2.0,0.0,1.0,-1.0,2.0,0.0,1650847577837509.0
-1.0,1.0,1.0,1.0,0.0,1.0,0.0,-1.0,1650847577837509.0
-1.0,-2.0,3.0,1.0,-1.0,-1.0,-1.0,-1.0,1650847577843475.0
-2.0,-7.0,-9.0,-7.0,-4.0,-2.0,-1.0,-2.0,1650847577843475.0
-1.0,1.0,0.0,0.0,0.0,0.0,1.0,-1.0,1650847577860580.0
-2.0,-2.0,0.0,1.0,2.0,-1.0,1.0,0.0,1650847577860580.0
2.0,0.0,-1.0,0.0,1.0,0.0,0.0,0.0,1650847577861519.0
2.0,3.0,2.0,2.0,0.0,0.0,-2.0,-1.0,1650847577861519.0
-1.0,-4.0,0.0,2.0,-1.0,0.0,-1.0,-1.0,1650847577882453.0
-1.0,0.0,0.0,0.0,-2.0,-3.0,-2.0,-2.0,1650847577882453.0
1.0,-1.0,-2.0,-1.0,-3.0,-1.0,0.0,-2.0,1650847577884476.0
0.0,0.0,0.0,0.0,1.0,-1.0,0.0,0.0,1650847577884476.0
-2.0,0.0,0.0,3.0,1.0,2.0,0.0,0.0,1650847577897427.0
0.0,1.0,1.0,0.0,-2.0,-1.0,0.0,1.0,1650847577897427.0
0.0,-1.0,-1.0,-1.0,0.0,1.0,0.0,-1.0,1650847577903418.0
-1.0,1.0,-3.0,-3.0,-3.0,-3.0,-1.0,-2.0,1650847577903418.0
-1.0,1.0,-2.0,-1.0,-1.0,-1.0,0.0,1.0,1650847577920640.0
0.0,1.0,1.0,-1.0,0.0,1.0,-2.0,-1.0,1650847577920640.0
-2.0,-2.0,-1.0,2.0,-1.0,-1.0,-2.0,-1.0,1650847577921572.0
0.0,-1.0,0.0,-2.0,-2.0,1.0,0.0,-2.0,1650847577921572.0
0.0,0.0,2.0,1.0,0.0,0.0,-3.0,0.0,1650847577942979.0
0.0,-4.0,-4.0,-2.0,0.0,-1.0,1.0,-1.0,1650847577942979.0
0.0,-3.0,-1.0,0.0,2.0,1.0,0.0,0.0,1650847577943967.0
-2.0,0.0,-2.0,1.0,0.0,3.0,-1.0,1.0,1650847577943967.0
3.0,3.0,-1.0,-3.0,-1.0,0.0,-3.0,0.0,1650847577956998.0
-1.0,-5.0,0.0,2.0,3.0,1.0,0.0,-2.0,1650847577956998.0
1.0,-1.0,-2.0,-8.0,-1.0,-2.0,-3.0,-1.0,1650847577963914.0
-2.0,2.0,3.0,2.0,1.0,0.0,1.0,1.0,1650847577963914.0
-2.0,-6.0,-4.0,-2.0,-1.0,-1.0,1.0,-3.0,1650847577979055.0
-1.0,0.0,0.0,-2.0,-1.0,0.0,0.0,-1.0,1650847577979055.0
-2.0,-1.0,-1.0,1.0,-1.0,-1.0,-1.0,1.0,1650847577987964.0
2.0,0.0,-1.0,0.0,1.0,0.0,-2.0,-1.0,1650847577987964.0
1.0,4.0,0.0,-1.0,-3.0,-2.0,1.0,-2.0,1650847578002683.0
0.0,1.0,0.0,1.0,0.0,0.0,-3.0,-1.0,1650847578002683.0
-1.0,-2.0,-3.0,-3.0,-2.0,-1.0,-1.0,-1.0,1650847578004612.0
0.0,2.0,-1.0,0.0,-2.0,0.0,-2.0,1.0,1650847578004612.0
1.0,1.0,3.0,2.0,1.0,0.0,1.0,0.0,1650847578016651.0
1.0,0.0,-3.0,-2.0,-2.0,-5.0,-1.0,0.0,1650847578016651.0
0.0,1.0,0.0,-2.0,0.0,0.0,-1.0,1.0,1650847578025556.0
0.0,-3.0,0.0,1.0,1.0,1.0,-3.0,-1.0,1650847578025556.0
0.0,-3.0,-4.0,-1.0,-1.0,-1.0,-2.0,-2.0,1650847578039824.0
-1.0,-3.0,-2.0,-1.0,-2.0,1.0,2.0,1.0,1650847578039824.0
1.0,-1.0,1.0,1.0,-1.0,0.0,2.0,-3.0,1650847578041821.0
-2.0,1.0,1.0,1.0,0.0,-3.0,1.0,1.0,1650847578041821.0
-2.0,0.0,0.0,0.0,0.0,-2.0,0.0,0.0,1650847578063150.0
-1.0,4.0,3.0,0.0,-2.0,1.0,0.0,0.0,1650847578063150.0
-5.0,-8.0,-6.0,-2.0,-2.0,-2.0,-1.0,0.0,1650847578063805.0
0.0,-3.0,-3.0,-1.0,-1.0,1.0,1.0,-3.0,1650847578063805.0
0.0,0.0,1.0,-1.0,-2.0,-1.0,-2.0,1.0,1650847578076788.0
-1.0,1.0,2.0,1.0,2.0,0.0,0.0,-1.0,1650847578076788.0
0.0,1.0,1.0,2.0,-1.0,-1.0,-2.0,-1.0,1650847578085337.0
-1.0,-2.0,-2.0,-2.0,-3.0,-2.0,-1.0,1.0,1650847578085337.0
-1.0,-3.0,-2.0,-1.0,-1.0,-1.0,-1.0,-1.0,1650847578100344.0
-2.0,-1.0,-3.0,-2.0,-1.0,0.0,0.0,1.0,1650847578100344.0
0.0,2.0,2.0,3.0,2.0,1.0,1.0,-1.0,1650847578102288.0
-1.0,0.0,-1.0,-2.0,2.0,0.0,0.0,0.0,1650847578102288.0
-1.0,-2.0,0.0,-3.0,-2.0,-1.0,-1.0,0.0,1650847578122400.0
-1.0,-2.0,-1.0,-2.0,-2.0,-1.0,-2.0,-1.0,1650847578122400.0
-1.0,1.0,-1.0,-2.0,-2.0,-2.0,-2.0,1.0,1650847578124369.0
0.0,-3.0,1.0,4.0,1.0,1.0,1.0,-1.0,1650847578124369.0
-2.0,1.0,0.0,-2.0,-1.0,0.0,0.0,-1.0,1650847578136402.0
1.0,-2.0,-2.0,1.0,-3.0,0.0,0.0,1.0,1650847578136402.0
-1.0,2.0,0.0,0.0,0.0,2.0,0.0,0.0,1650847578145318.0
2.0,1.0,0.0,1.0,0.0,-2.0,-2.0,-1.0,1650847578145318.0
0.0,0.0,-4.0,-7.0,-2.0,-1.0,0.0,-2.0,1650847578160536.0
1.0,-3.0,0.0,1.0,1.0,1.0,-1.0,0.0,1650847578160536.0
-2.0,-2.0,-4.0,-1.0,-1.0,-2.0,0.0,-1.0,1650847578161465.0
0.0,-2.0,-1.0,-1.0,-2.0,-4.0,-1.0,-2.0,1650847578161465.0
0.0,-2.0,2.0,4.0,2.0,1.0,1.0,1.0,1650847578183136.0
0.0,2.0,0.0,-1.0,-1.0,0.0,-1.0,0.0,1650847578183136.0
0.0,0.0,-1.0,-1.0,0.0,-2.0,-2.0,-2.0,1650847578184135.0
-1.0,-4.0,-2.0,-3.0,-2.0,0.0,1.0,-1.0,1650847578184135.0
-1.0,-2.0,1.0,0.0,-1.0,-2.0,-2.0,-1.0,1650847578196166.0
1.0,-2.0,-1.0,-3.0,0.0,0.0,0.0,0.0,1650847578196166.0
0.0,1.0,2.0,2.0,0.0,0.0,-1.0,-1.0,1650847578205077.0
1.0,1.0,2.0,-1.0,0.0,1.0,-1.0,0.0,1650847578205077.0
0.0,-1.0,-2.0,0.0,-1.0,-2.0,0.0,-1.0,1650847578219821.0
0.0,2.0,-1.0,-1.0,-1.0,0.0,1.0,-1.0,1650847578219821.0
-1.0,0.0,-1.0,-3.0,-1.0,-1.0,0.0,-2.0,1650847578221818.0
-1.0,0.0,-1.0,1.0,1.0,1.0,1.0,1.0,1650847578221818.0
0.0,1.0,-4.0,-5.0,-3.0,0.0,-1.0,-1.0,1650847578242841.0
0.0,3.0,1.0,2.0,0.0,-3.0,-1.0,0.0,1650847578242841.0
-1.0,2.0,5.0,-1.0,1.0,0.0,0.0,0.0,1650847578243842.0
-2.0,0.0,-1.0,-1.0,-4.0,0.0,-1.0,0.0,1650847578243842.0
-2.0,-1.0,0.0,1.0,1.0,1.0,0.0,-2.0,1650847578256838.0
-2.0,-1.0,-3.0,-1.0,-2.0,-2.0,-1.0,-2.0,1650847578256838.0
-1.0,2.0,-1.0,-1.0,-1.0,1.0,1.0,-2.0,1650847578265782.0
-1.0,-6.0,0.0,0.0,1.0,0.0,-2.0,0.0,1650847578265782.0
0.0,-1.0,-2.0,1.0,-2.0,0.0,-1.0,0.0,1650847578280435.0
-1.0,-1.0,-1.0,-4.0,-2.0,-1.0,-1.0,-1.0,1650847578280435.0
-2.0,-5.0,-2.0,1.0,-1.0,-1.0,-1.0,-1.0,1650847578281366.0
2.0,1.0,-2.0,-1.0,-1.0,-1.0,0.0,0.0,1650847578281366.0
1.0,0.0,1.0,2.0,1.0,1.0,0.0,0.0,1650847578302462.0
-1.0,3.0,2.0,-2.0,-2.0,0.0,-2.0,-1.0,1650847578302462.0
-1.0,-4.0,-2.0,0.0,-2.0,-1.0,-1.0,1.0,1650847578304391.0
0.0,4.0,0.0,0.0,0.0,0.0,0.0,-2.0,1650847578304391.0
0.0,0.0,1.0,-1.0,-2.0,-1.0,-1.0,0.0,1650847578316425.0
-2.0,-4.0,-2.0,2.0,1.0,0.0,0.0,-1.0,1650847578316425.0
-1.0,-1.0,-1.0,-1.0,-1.0,0.0,-1.0,1.0,1650847578325347.0
-1.0,0.0,3.0,2.0,1.0,0.0,-1.0,-2.0,1650847578325347.0
1.0,-1.0,-6.0,-5.0,-1.0,0.0,0.0,-2.0,1650847578340361.0
-1.0,0.0,1.0,2.0,-2.0,2.0,0.0,-1.0,1650847578340361.0
0.0,1.0,0.0,-1.0,-2.0,-1.0,-2.0,-1.0,1650847578342289.0
-2.0,-1.0,3.0,4.0,2.0,0.0,-1.0,0.0,1650847578342289.0
2.0,1.0,-1.0,1.0,-1.0,-1.0,-1.0,0.0,1650847578361456.0
0.0,0.0,-2.0,-5.0,-3.0,-1.0,-2.0,-1.0,1650847578361456.0
-1.0,-3.0,-3.0,-1.0,0.0,3.0,-1.0,1.0,1650847578378346.0
1.0,3.0,0.0,-2.0,-3.0,-1.0,1.0,0.0,1650847578378346.0
-3.0,-9.0,1.0,4.0,1.0,-2.0,0.0,0.0,1650847578379343.0
-1.0,-1.0,-2.0,0.0,1.0,-2.0,0.0,-1.0,1650847578379343.0
1.0,2.0,0.0,1.0,-1.0,-1.0,-1.0,0.0,1650847578385326.0
-1.0,-1.0,-2.0,-2.0,-3.0,-1.0,0.0,-1.0,1650847578385326.0
-3.0,2.0,0.0,1.0,1.0,-1.0,0.0,0.0,1650847578400355.0
0.0,-2.0,1.0,0.0,-2.0,0.0,-1.0,2.0,1650847578400355.0
0.0,-3.0,-4.0,-3.0,-2.0,-2.0,0.0,-2.0,1650847578402291.0
1.0,0.0,-6.0,-7.0,-1.0,-2.0,0.0,-1.0,1650847578402291.0
-2.0,0.0,1.0,1.0,0.0,0.0,-1.0,-2.0,1650847578422927.0
1.0,0.0,1.0,1.0,2.0,0.0,0.0,0.0,1650847578422927.0
0.0,2.0,-1.0,-5.0,-1.0,0.0,-2.0,-1.0,1650847578423882.0
-1.0,2.0,0.0,1.0,-1.0,0.0,-1.0,-2.0,1650847578423882.0
-1.0,-2.0,-3.0,-4.0,-2.0,0.0,2.0,-3.0,1650847578436820.0
0.0,5.0,4.0,2.0,-2.0,-3.0,-1.0,-1.0,1650847578436820.0
0.0,0.0,1.0,4.0,0.0,0.0,0.0,2.0,1650847578452778.0
-1.0,-1.0,-3.0,-3.0,-1.0,-2.0,0.0,-1.0,1650847578452778.0
-2.0,0.0,-2.0,-1.0,-1.0,0.0,-1.0,-1.0,1650847578459759.0
-1.0,0.0,-2.0,-1.0,-1.0,-1.0,0.0,0.0,1650847578459759.0
0.0,0.0,0.0,-2.0,0.0,-1.0,-1.0,0.0,1650847578461754.0
-1.0,-3.0,-1.0,-2.0,-1.0,0.0,-3.0,-1.0,1650847578461754.0
1.0,4.0,2.0,2.0,1.0,0.0,0.0,2.0,1650847578482522.0
-3.0,-4.0,-3.0,1.0,0.0,0.0,1.0,0.0,1650847578482522.0
-1.0,-2.0,1.0,0.0,0.0,0.0,0.0,0.0,1650847578484504.0
-4.0,-4.0,-1.0,0.0,-2.0,-2.0,0.0,0.0,1650847578484504.0
-1.0,1.0,-2.0,-7.0,-4.0,-2.0,-1.0,-1.0,1650847578496539.0
0.0,-2.0,1.0,0.0,1.0,-1.0,-1.0,-1.0,1650847578496539.0
-2.0,-3.0,0.0,2.0,0.0,0.0,0.0,-3.0,1650847578505448.0
2.0,4.0,1.0,-1.0,1.0,1.0,0.0,0.0,1650847578505448.0
-3.0,-6.0,1.0,0.0,-2.0,-3.0,-1.0,-1.0,1650847578520542.0
-1.0,-4.0,-2.0,-2.0,-1.0,-2.0,0.0,-1.0,1650847578520542.0
-2.0,1.0,3.0,1.0,2.0,0.0,-1.0,0.0,1650847578521519.0
0.0,-3.0,-2.0,0.0,1.0,1.0,0.0,0.0,1650847578521519.0
2.0,1.0,-1.0,-1.0,0.0,-2.0,-1.0,0.0,1650847578542804.0
0.0,-3.0,-2.0,-2.0,-2.0,1.0,1.0,0.0,1650847578542804.0
1.0,0.0,-2.0,0.0,-1.0,1.0,0.0,0.0,1650847578544734.0
-2.0,-1.0,1.0,1.0,0.0,-1.0,-1.0,-2.0,1650847578544734.0
-1.0,-6.0,0.0,-1.0,0.0,1.0,-1.0,-1.0,1650847578564890.0
1.0,2.0,-3.0,-2.0,1.0,0.0,0.0,-2.0,1650847578564890.0
2.0,-1.0,1.0,-1.0,0.0,-2.0,0.0,-2.0,1650847578566818.0
-1.0,-1.0,-2.0,1.0,0.0,0.0,-2.0,0.0,1650847578566818.0
0.0,2.0,1.0,2.0,1.0,1.0,-1.0,1.0,1650847578580432.0
0.0,-1.0,0.0,0.0,0.0,0.0,-1.0,0.0,1650847578580432.0
-1.0,2.0,-1.0,1.0,-3.0,-1.0,0.0,1.0,1650847578581361.0
0.0,-5.0,-1.0,-2.0,-4.0,-2.0,-2.0,-1.0,1650847578581361.0
-1.0,-1.0,1.0,0.0,0.0,-1.0,0.0,-1.0,1650847578602737.0
-1.0,1.0,-1.0,0.0,0.0,3.0,-1.0,0.0,1650847578602737.0
-1.0,0.0,-1.0,-2.0,-1.0,-2.0,1.0,0.0,1650847578604764.0
-3.0,2.0,-3.0,-2.0,-2.0,-2.0,-1.0,0.0,1650847578604764.0
0.0,-1.0,1.0,3.0,1.0,2.0,-1.0,-1.0,1650847578624909.0
1.0,-3.0,0.0,-2.0,-1.0,-2.0,1.0,0.0,1650847578624909.0
0.0,-5.0,-1.0,0.0,1.0,1.0,-1.0,0.0,1650847578626837.0
-1.0,2.0,-2.0,-2.0,-1.0,2.0,2.0,1.0,1650847578626837.0
1.0,-1.0,-2.0,-2.0,-1.0,-2.0,0.0,-1.0,1650847578639980.0
-1.0,-2.0,0.0,-1.0,-2.0,-1.0,-2.0,0.0,1650847578639980.0
1.0,2.0,0.0,1.0,-1.0,1.0,-1.0,0.0,1650847578641908.0
-1.0,-1.0,1.0,2.0,4.0,1.0,0.0,-1.0,1650847578641908.0
0.0,0.0,-1.0,-1.0,-2.0,-1.0,-1.0,0.0,1650847578662889.0
0.0,0.0,0.0,3.0,0.0,0.0,-1.0,2.0,1650847578662889.0
-1.0,3.0,-2.0,-6.0,-4.0,-2.0,2.0,1.0,1650847578664823.0
-1.0,-3.0,-1.0,-1.0,-1.0,1.0,-1.0,-1.0,1650847578664823.0
-2.0,2.0,-2.0,0.0,1.0,1.0,0.0,-1.0,1650847578685691.0
0.0,-1.0,-2.0,-1.0,-1.0,-2.0,-1.0,-1.0,1650847578685691.0
0.0,-2.0,1.0,0.0,3.0,1.0,-1.0,-1.0,1650847578686689.0
1.0,3.0,-3.0,-6.0,0.0,-1.0,-1.0,0.0,1650847578686689.0
-1.0,1.0,-1.0,0.0,-1.0,-1.0,-1.0,-1.0,1650847578699841.0
-1.0,3.0,0.0,-2.0,-3.0,-1.0,0.0,0.0,1650847578699841.0
0.0,-2.0,-2.0,0.0,0.0,0.0,1.0,1.0,1650847578706837.0
-1.0,-5.0,-2.0,0.0,-1.0,0.0,-1.0,-1.0,1650847578706837.0
-1.0,-1.0,0.0,0.0,-1.0,-1.0,-1.0,0.0,1650847578722815.0
-1.0,-3.0,-3.0,-1.0,2.0,-1.0,-1.0,-2.0,1650847578722815.0
-1.0,-1.0,-1.0,1.0,0.0,0.0,-1.0,-1.0,1650847578724744.0
-1.0,-2.0,-2.0,-3.0,-1.0,-1.0,0.0,0.0,1650847578724744.0
1.0,-1.0,-3.0,-1.0,0.0,0.0,0.0,2.0,1650847578744696.0
-1.0,1.0,0.0,0.0,-1.0,-2.0,1.0,-2.0,1650847578744696.0
-2.0,-4.0,-1.0,-2.0,-1.0,-1.0,-1.0,-3.0,1650847578751693.0
0.0,2.0,2.0,2.0,2.0,0.0,-1.0,0.0,1650847578751693.0
0.0,0.0,-2.0,-2.0,-2.0,-4.0,0.0,0.0,1650847578759717.0
1.0,-2.0,0.0,-1.0,-2.0,0.0,1.0,0.0,1650847578759717.0
-1.0,0.0,-1.0,-1.0,-1.0,-1.0,0.0,-1.0,1650847578766632.0
0.0,2.0,0.0,-2.0,-2.0,-3.0,0.0,1.0,1650847578766632.0
-2.0,-4.0,0.0,1.0,-2.0,0.0,0.0,-2.0,1650847578782553.0
2.0,0.0,3.0,1.0,1.0,1.0,0.0,1.0,1650847578782553.0
0.0,-2.0,-3.0,-2.0,0.0,-1.0,-1.0,-2.0,1650847578784486.0
0.0,-1.0,2.0,3.0,1.0,0.0,-1.0,1.0,1650847578784486.0
-1.0,0.0,-1.0,-4.0,-1.0,1.0,-3.0,0.0,1650847578804874.0
-2.0,-5.0,-5.0,-2.0,-4.0,0.0,0.0,1.0,1650847578804874.0
-1.0,2.0,0.0,1.0,1.0,-1.0,-1.0,-1.0,1650847578806801.0
-3.0,-3.0,0.0,1.0,0.0,-3.0,-1.0,-2.0,1650847578806801.0
1.0,2.0,3.0,2.0,2.0,-2.0,0.0,0.0,1650847578819824.0
0.0,-1.0,-2.0,0.0,0.0,-1.0,0.0,-1.0,1650847578819824.0
-1.0,-2.0,-2.0,-8.0,-5.0,-2.0,0.0,1.0,1650847578826853.0
-1.0,1.0,-2.0,0.0,-1.0,0.0,-1.0,0.0,1650847578826853.0
-2.0,0.0,0.0,3.0,2.0,1.0,0.0,-1.0,1650847578843159.0
-1.0,-3.0,-2.0,-3.0,-2.0,-2.0,-1.0,-1.0,1650847578843159.0
0.0,-1.0,0.0,1.0,1.0,-2.0,-2.0,-1.0,1650847578844785.0
-1.0,0.0,-1.0,-2.0,-2.0,1.0,-1.0,0.0,1650847578844785.0
1.0,2.0,2.0,0.0,-2.0,-2.0,-1.0,0.0,1650847578864910.0
-2.0,-5.0,-3.0,0.0,0.0,0.0,0.0,-1.0,1650847578864910.0
-1.0,0.0,-1.0,2.0,-2.0,0.0,1.0,-2.0,1650847578866854.0
1.0,0.0,0.0,3.0,0.0,1.0,1.0,0.0,1650847578866854.0
-1.0,-1.0,-1.0,-8.0,-1.0,-2.0,-1.0,2.0,1650847578878807.0
-3.0,-1.0,1.0,1.0,0.0,-1.0,-1.0,0.0,1650847578878807.0
-1.0,1.0,0.0,0.0,-1.0,0.0,0.0,0.0,1650847578887805.0
1.0,0.0,-1.0,-3.0,0.0,-1.0,-1.0,0.0,1650847578887805.0
-1.0,-4.0,-2.0,2.0,1.0,-1.0,0.0,-1.0,1650847578902804.0
-1.0,2.0,-1.0,0.0,-1.0,-1.0,0.0,2.0,1650847578902804.0
-3.0,-5.0,-1.0,0.0,1.0,0.0,-2.0,-1.0,1650847578904754.0
-1.0,1.0,1.0,3.0,0.0,1.0,1.0,-1.0,1650847578904754.0
0.0,-2.0,-1.0,-3.0,-1.0,-2.0,-2.0,-1.0,1650847578925749.0
-1.0,-1.0,-3.0,-4.0,-1.0,0.0,-1.0,-2.0,1650847578925749.0
0.0,2.0,0.0,2.0,0.0,0.0,0.0,0.0,1650847578926778.0
-1.0,-4.0,0.0,-1.0,-2.0,0.0,-1.0,1.0,1650847578926778.0
-2.0,-4.0,-1.0,0.0,-2.0,1.0,-1.0,-1.0,1650847578939829.0
0.0,2.0,0.0,2.0,0.0,1.0,-1.0,0.0,1650847578939829.0
0.0,0.0,-1.0,3.0,1.0,-1.0,0.0,0.0,1650847578946812.0
1.0,0.0,0.0,1.0,-1.0,-1.0,-2.0,-2.0,1650847578946812.0
0.0,1.0,-1.0,-6.0,-4.0,-3.0,0.0,2.0,1650847578962837.0
0.0,1.0,1.0,2.0,5.0,0.0,-1.0,-2.0,1650847578962837.0
0.0,0.0,-1.0,-2.0,-1.0,-1.0,-2.0,-2.0,1650847578963794.0
-1.0,2.0,1.0,0.0,-1.0,-2.0,-1.0,0.0,1650847578963794.0
-2.0,-3.0,-2.0,0.0,0.0,2.0,1.0,-1.0,1650847578985708.0
-1.0,4.0,3.0,0.0,-3.0,-2.0,-1.0,0.0,1650847578985708.0
0.0,-1.0,-1.0,-3.0,0.0,1.0,-2.0,0.0,1650847578986706.0
0.0,-3.0,-3.0,0.0,-1.0,-1.0,0.0,-2.0,1650847578986706.0
-1.0,1.0,0.0,0.0,-2.0,0.0,-3.0,-1.0,1650847578998797.0
1.0,1.0,-1.0,0.0,1.0,0.0,1.0,-2.0,1650847578998797.0
0.0,3.0,2.0,-1.0,-1.0,-2.0,0.0,0.0,1650847579007866.0
-1.0,-4.0,0.0,-1.0,0.0,0.0,-1.0,-1.0,1650847579007866.0
-1.0,-2.0,-3.0,0.0,-1.0,-1.0,0.0,-1.0,1650847579022893.0
-1.0,-2.0,0.0,1.0,0.0,-2.0,-2.0,-2.0,1650847579022893.0
0.0,2.0,0.0,0.0,-1.0,-1.0,1.0,0.0,1650847579023824.0
1.0,4.0,-2.0,-3.0,-1.0,-2.0,-1.0,0.0,1650847579023824.0
0.0,-1.0,-1.0,-1.0,-2.0,0.0,-1.0,-1.0,1650847579044867.0
-1.0,-1.0,1.0,1.0,0.0,0.0,0.0,-2.0,1650847579044867.0
-1.0,-3.0,-2.0,0.0,-2.0,-4.0,0.0,-1.0,1650847579046862.0
-1.0,0.0,-2.0,-3.0,-3.0,0.0,0.0,-1.0,1650847579046862.0
-1.0,-1.0,1.0,1.0,0.0,-1.0,0.0,-1.0,1650847579058897.0
-1.0,-4.0,-1.0,0.0,-2.0,0.0,0.0,0.0,1650847579058897.0
1.0,2.0,1.0,1.0,0.0,0.0,-3.0,-1.0,1650847579067806.0
0.0,0.0,-3.0,-2.0,-2.0,0.0,-1.0,0.0,1650847579067806.0
0.0,2.0,1.0,-1.0,1.0,-1.0,1.0,0.0,1650847579082884.0
1.0,-5.0,1.0,0.0,0.0,1.0,0.0,1.0,1650847579082884.0
1.0,-2.0,-3.0,-2.0,1.0,0.0,1.0,-1.0,1650847579083882.0
-1.0,-1.0,1.0,-1.0,-2.0,-2.0,0.0,-1.0,1650847579083882.0
-2.0,0.0,0.0,1.0,3.0,1.0,0.0,0.0,1650847579104869.0
0.0,2.0,0.0,-1.0,-1.0,-2.0,-1.0,-1.0,1650847579104869.0
-3.0,-5.0,-2.0,0.0,-2.0,-1.0,-1.0,0.0,1650847579106836.0
0.0,-1.0,-1.0,0.0,0.0,-1.0,-1.0,-1.0,1650847579106836.0
1.0,-1.0,1.0,4.0,1.0,0.0,-1.0,-1.0,1650847579118870.0
0.0,0.0,-2.0,-1.0,0.0,-1.0,-2.0,-1.0,1650847579118870.0
0.0,-3.0,-1.0,-2.0,-1.0,-1.0,-3.0,-1.0,1650847579127501.0
-1.0,-2.0,-2.0,-1.0,-1.0,-2.0,-3.0,0.0,1650847579127501.0
-1.0,0.0,0.0,1.0,-2.0,-1.0,0.0,0.0,1650847579142733.0
-1.0,1.0,-3.0,-4.0,-2.0,-1.0,1.0,-1.0,1650847579142733.0
1.0,1.0,-1.0,-1.0,-1.0,-1.0,1.0,-2.0,1650847579144661.0
-2.0,-4.0,0.0,2.0,0.0,-1.0,1.0,0.0,1650847579144661.0
-1.0,-2.0,-1.0,1.0,-1.0,0.0,-3.0,-1.0,1650847579165748.0
0.0,0.0,-1.0,0.0,0.0,1.0,-2.0,1.0,1650847579165748.0
-1.0,0.0,-2.0,-2.0,-3.0,-2.0,0.0,0.0,1650847579166733.0
1.0,3.0,0.0,-1.0,-1.0,0.0,0.0,0.0,1650847579166733.0
-1.0,-2.0,-1.0,2.0,0.0,0.0,-2.0,-1.0,1650847579178706.0
0.0,2.0,0.0,0.0,-2.0,1.0,-1.0,-1.0,1650847579178706.0
-2.0,-3.0,1.0,1.0,1.0,1.0,-2.0,-3.0,1650847579187559.0
1.0,0.0,-1.0,-3.0,1.0,-2.0,-1.0,-2.0,1650847579187559.0
0.0,2.0,-1.0,-1.0,-1.0,0.0,-1.0,1.0,1650847579203491.0
-1.0,3.0,-1.0,0.0,-3.0,-1.0,-2.0,0.0,1650847579203491.0
-1.0,-4.0,-3.0,0.0,-1.0,-3.0,-1.0,0.0,1650847579204486.0
-1.0,-1.0,0.0,1.0,0.0,0.0,-1.0,-1.0,1650847579204486.0
-1.0,0.0,-3.0,-1.0,1.0,0.0,0.0,-1.0,1650847579225581.0
-1.0,1.0,1.0,3.0,0.0,-2.0,0.0,0.0,1650847579225581.0
0.0,-1.0,-1.0,-3.0,-3.0,1.0,0.0,0.0,1650847579226543.0
-2.0,-4.0,2.0,2.0,1.0,1.0,1.0,-4.0,1650847579226543.0
-1.0,1.0,1.0,-1.0,0.0,-2.0,-2.0,-2.0,1650847579238546.0
-1.0,-2.0,-1.0,0.0,2.0,0.0,-2.0,1.0,1650847579238546.0
-1.0,1.0,-1.0,-2.0,-2.0,-2.0,-1.0,-2.0,1650847579247531.0
2.0,0.0,-1.0,0.0,-1.0,-1.0,1.0,1.0,1650847579247531.0
3.0,0.0,-1.0,-1.0,0.0,2.0,1.0,0.0,1650847579262415.0
-3.0,-5.0,0.0,-1.0,0.0,-1.0,0.0,-3.0,1650847579262415.0
1.0,3.0,1.0,2.0,3.0,1.0,1.0,1.0,1650847579264410.0
-1.0,-2.0,-1.0,0.0,0.0,0.0,1.0,-1.0,1650847579264410.0
-1.0,-4.0,-4.0,-4.0,-2.0,-2.0,2.0,-1.0,1650847579284866.0
-1.0,0.0,0.0,-2.0,0.0,0.0,0.0,0.0,1650847579284866.0
2.0,3.0,-1.0,-4.0,-1.0,0.0,-1.0,0.0,1650847579286795.0
0.0,2.0,-1.0,-2.0,-2.0,-3.0,-1.0,1.0,1650847579286795.0
-1.0,-2.0,1.0,1.0,-1.0,0.0,1.0,-1.0,1650847579298857.0
-1.0,-3.0,-1.0,0.0,0.0,-1.0,-2.0,-1.0,1650847579298857.0
-1.0,-2.0,-1.0,3.0,-1.0,1.0,0.0,1.0,1650847579313885.0
1.0,3.0,0.0,1.0,-1.0,-1.0,-1.0,1.0,1650847579313885.0
-1.0,-7.0,-4.0,-2.0,-1.0,-1.0,-1.0,-1.0,1650847579322863.0
1.0,2.0,-2.0,-4.0,-2.0,0.0,1.0,2.0,1650847579322863.0
0.0,1.0,1.0,0.0,0.0,-1.0,-1.0,-1.0,1650847579324801.0
0.0,3.0,1.0,-2.0,-1.0,0.0,-2.0,0.0,1650847579324801.0
1.0,2.0,4.0,2.0,0.0,2.0,0.0,3.0,1650847579344736.0
-2.0,-4.0,-2.0,-3.0,-2.0,0.0,0.0,1.0,1650847579344736.0
-2.0,0.0,-1.0,0.0,1.0,1.0,-1.0,1.0,1650847579346731.0
-3.0,-6.0,-3.0,-2.0,1.0,-2.0,-2.0,-1.0,1650847579346731.0
-1.0,3.0,-1.0,-1.0,0.0,-3.0,-2.0,0.0,1650847579358726.0
0.0,-3.0,-1.0,-2.0,-2.0,-1.0,-1.0,-2.0,1650847579358726.0
0.0,-1.0,1.0,-2.0,-1.0,1.0,0.0,1.0,1650847579367674.0
0.0,1.0,1.0,-2.0,0.0,1.0,-1.0,-1.0,1650847579367674.0
0.0,-1.0,-2.0,0.0,-1.0,1.0,0.0,-1.0,1650847579383026.0
-2.0,-2.0,0.0,1.0,0.0,0.0,0.0,-1.0,1650847579383026.0
0.0,-1.0,-4.0,-2.0,-2.0,-2.0,-1.0,-1.0,1650847579383957.0
0.0,1.0,1.0,2.0,-1.0,0.0,1.0,1.0,1650847579383957.0
-3.0,-3.0,-1.0,1.0,1.0,0.0,0.0,-3.0,1650847579404905.0
2.0,1.0,1.0,-1.0,-2.0,-1.0,-2.0,0.0,1650847579404905.0
-1.0,1.0,-1.0,-1.0,1.0,0.0,-1.0,-1.0,1650847579406833.0
-2.0,0.0,-1.0,-2.0,-1.0,0.0,0.0,0.0,1650847579406833.0
1.0,2.0,1.0,-1.0,-2.0,-2.0,-1.0,-3.0,1650847579418830.0
0.0,0.0,-2.0,0.0,0.0,0.0,2.0,0.0,1650847579418830.0
-3.0,-1.0,1.0,0.0,0.0,0.0,0.0,-1.0,1650847579427559.0
-1.0,-4.0,0.0,1.0,1.0,-2.0,0.0,-2.0,1650847579427559.0
-1.0,-1.0,-1.0,-2.0,-1.0,-2.0,-3.0,1.0,1650847579443149.0
-1.0,1.0,-2.0,0.0,1.0,-2.0,1.0,-2.0,1650847579443149.0
1.0,-3.0,-1.0,-1.0,-1.0,-1.0,-2.0,-1.0,1650847579444781.0
-1.0,-2.0,-1.0,-1.0,1.0,0.0,-1.0,-2.0,1650847579444781.0
-1.0,-1.0,0.0,-2.0,-2.0,-2.0,-1.0,0.0,1650847579465756.0
-1.0,-3.0,-2.0,0.0,-1.0,-2.0,-2.0,-2.0,1650847579465756.0
-1.0,0.0,0.0,1.0,-1.0,0.0,2.0,0.0,1650847579466731.0
2.0,-2.0,-1.0,-1.0,0.0,0.0,-1.0,-1.0,1650847579466731.0
-2.0,1.0,-2.0,-2.0,-2.0,-2.0,-2.0,1.0,1650847579487661.0
-2.0,2.0,1.0,-1.0,0.0,-2.0,-2.0,0.0,1650847579487661.0
1.0,-2.0,1.0,1.0,0.0,-1.0,1.0,0.0,1650847579489685.0
0.0,-2.0,-2.0,0.0,-2.0,0.0,1.0,-1.0,1650847579489685.0
1.0,0.0,0.0,-2.0,-1.0,-1.0,1.0,0.0,1650847579502802.0
-1.0,1.0,-1.0,0.0,-1.0,2.0,0.0,-1.0,1650847579502802.0
-2.0,-3.0,-2.0,0.0,-2.0,-2.0,-1.0,0.0,1650847579504740.0
-1.0,2.0,-1.0,-3.0,-2.0,1.0,-1.0,-1.0,1650847579504740.0
2.0,-1.0,0.0,1.0,0.0,-1.0,0.0,-1.0,1650847579525787.0
-2.0,-3.0,1.0,2.0,2.0,0.0,-1.0,-1.0,1650847579525787.0
0.0,-1.0,-2.0,-3.0,0.0,1.0,1.0,0.0,1650847579526789.0
-1.0,0.0,-2.0,1.0,-1.0,0.0,0.0,1.0,1650847579526789.0
-3.0,-3.0,-2.0,-2.0,-4.0,-2.0,-1.0,-2.0,1650847579548123.0
1.0,-3.0,1.0,0.0,0.0,-1.0,-1.0,0.0,1650847579548123.0
1.0,2.0,1.0,0.0,0.0,-1.0,-1.0,-1.0,1650847579548888.0
-1.0,-1.0,0.0,1.0,0.0,1.0,-3.0,-1.0,1650847579548888.0
1.0,0.0,-4.0,-3.0,-2.0,-1.0,-1.0,-2.0,1650847579562855.0
-2.0,-4.0,-4.0,-1.0,-1.0,-2.0,1.0,1.0,1650847579562855.0
-1.0,-2.0,0.0,-1.0,-2.0,0.0,-1.0,-1.0,1650847579564849.0
-1.0,-1.0,0.0,2.0,2.0,0.0,1.0,-1.0,1650847579564849.0
0.0,4.0,1.0,1.0,0.0,0.0,-2.0,2.0,1650847579584892.0
-1.0,0.0,-3.0,-3.0,0.0,1.0,-2.0,0.0,1650847579584892.0
-2.0,-2.0,-2.0,1.0,-2.0,-1.0,-1.0,-1.0,1650847579586884.0
-2.0,-1.0,-1.0,-1.0,-1.0,-1.0,-1.0,-1.0,1650847579586884.0
0.0,-2.0,0.0,0.0,1.0,1.0,1.0,0.0,1650847579608071.0
0.0,0.0,1.0,0.0,-1.0,-2.0,-1.0,-2.0,1650847579608071.0
1.0,1.0,-2.0,1.0,1.0,1.0,0.0,0.0,1650847579609003.0
-1.0,-2.0,0.0,-1.0,-1.0,1.0,0.0,-2.0,1650847579609003.0
-2.0,-3.0,-4.0,-3.0,-1.0,-1.0,1.0,-2.0,1650847579622033.0
0.0,-2.0,0.0,0.0,0.0,-2.0,-1.0,0.0,1650847579622033.0
-1.0,5.0,-1.0,1.0,0.0,-2.0,0.0,0.0,1650847579629008.0
-2.0,0.0,0.0,-1.0,0.0,-2.0,0.0,0.0,1650847579629008.0
0.0,4.0,0.0,-2.0,0.0,0.0,1.0,0.0,1650847579644878.0
2.0,1.0,0.0,-1.0,-1.0,-1.0,0.0,0.0,1650847579644878.0
-1.0,-1.0,0.0,-2.0,-1.0,1.0,0.0,-3.0,1650847579646806.0
1.0,1.0,-1.0,-1.0,-1.0,-1.0,0.0,1.0,1650847579646806.0
-1.0,0.0,0.0,1.0,0.0,1.0,-3.0,-2.0,1650847579667900.0
-3.0,1.0,0.0,-2.0,-4.0,0.0,-1.0,-1.0,1650847579667900.0
1.0,-1.0,1.0,1.0,-1.0,-3.0,0.0,0.0,1650847579668856.0
1.0,1.0,-2.0,-3.0,-2.0,-1.0,-1.0,-1.0,1650847579668856.0
-2.0,-1.0,1.0,2.0,3.0,-1.0,1.0,0.0,1650847579681863.0
0.0,1.0,-1.0,0.0,-1.0,0.0,-1.0,-1.0,1650847579681863.0
-1.0,-5.0,-1.0,0.0,2.0,-1.0,-3.0,-1.0,1650847579688776.0
-2.0,-2.0,-3.0,-3.0,-2.0,-1.0,-1.0,-1.0,1650847579688776.0
0.0,0.0,0.0,1.0,-1.0,-2.0,0.0,1.0,1650847579705749.0
-1.0,2.0,1.0,0.0,-1.0,1.0,1.0,-1.0,1650847579705749.0
0.0,1.0,0.0,1.0,0.0,-1.0,-1.0,0.0,1650847579706732.0
0.0,-1.0,0.0,1.0,0.0,0.0,0.0,0.0,1650847579706732.0
0.0,0.0,-1.0,1.0,-1.0,1.0,-1.0,-1.0,1650847579728142.0
0.0,-1.0,-5.0,-5.0,-1.0,0.0,1.0,-3.0,1650847579728142.0
-1.0,2.0,0.0,-2.0,-1.0,-1.0,-1.0,1.0,1650847579728905.0
0.0,-1.0,0.0,1.0,1.0,0.0,-1.0,1.0,1650847579728905.0
0.0,-1.0,1.0,-1.0,-3.0,0.0,-1.0,-1.0,1650847579741902.0
-1.0,-2.0,-1.0,1.0,0.0,1.0,1.0,0.0,1650847579741902.0
-1.0,1.0,-1.0,0.0,-1.0,0.0,-1.0,-1.0,1650847579748918.0
-2.0,-4.0,-2.0,-3.0,-1.0,-1.0,0.0,0.0,1650847579748918.0
-1.0,1.0,1.0,0.0,0.0,-1.0,-2.0,0.0,1650847579764880.0
0.0,1.0,0.0,1.0,0.0,0.0,-2.0,1.0,1650847579764880.0
-1.0,-1.0,1.0,0.0,-2.0,-1.0,-1.0,-1.0,1650847579766809.0
-1.0,-1.0,0.0,-1.0,1.0,1.0,0.0,2.0,1650847579766809.0
-1.0,1.0,-1.0,-1.0,0.0,0.0,0.0,0.0,1650847579788172.0
1.0,3.0,2.0,-1.0,0.0,-2.0,0.0,-2.0,1650847579788172.0
-1.0,-2.0,-3.0,-3.0,-3.0,0.0,0.0,0.0,1650847579789795.0
1.0,1.0,1.0,1.0,1.0,2.0,0.0,-2.0,1650847579789795.0
0.0,0.0,-1.0,0.0,-1.0,0.0,2.0,1.0,1650847579801912.0
1.0,4.0,-2.0,-3.0,-2.0,0.0,0.0,0.0,1650847579801912.0
-1.0,-2.0,0.0,5.0,3.0,0.0,2.0,1.0,1650847579808894.0
2.0,-1.0,-2.0,-1.0,0.0,0.0,-1.0,-1.0,1650847579808894.0
0.0,-1.0,0.0,-1.0,0.0,-1.0,-1.0,-2.0,1650847579824850.0
1.0,-3.0,0.0,2.0,1.0,0.0,1.0,1.0,1650847579824850.0
0.0,-1.0,-1.0,-3.0,-3.0,-1.0,-3.0,-2.0,1650847579826790.0
-2.0,-3.0,-2.0,-4.0,-1.0,-2.0,0.0,-1.0,1650847579826790.0
0.0,-3.0,-1.0,2.0,0.0,-2.0,0.0,-4.0,1650847579848172.0
-3.0,1.0,0.0,0.0,-1.0,-1.0,-1.0,-1.0,1650847579848172.0
1.0,-1.0,-2.0,-2.0,0.0,1.0,-2.0,0.0,1650847579848887.0
-1.0,2.0,2.0,0.0,-1.0,-2.0,-1.0,0.0,1650847579848887.0
0.0,0.0,1.0,-1.0,0.0,-1.0,0.0,-1.0,1650847579861969.0
0.0,-1.0,-1.0,-2.0,-1.0,-1.0,-1.0,0.0,1650847579861969.0
0.0,-1.0,-2.0,-3.0,-2.0,-1.0,0.0,-1.0,1650847579868927.0
0.0,1.0,0.0,1.0,-2.0,-1.0,1.0,-1.0,1650847579868927.0
-2.0,-1.0,1.0,0.0,1.0,2.0,-1.0,1.0,1650847579884992.0
-2.0,-5.0,-2.0,0.0,0.0,1.0,-2.0,-1.0,1650847579884992.0
-1.0,0.0,-1.0,0.0,-1.0,1.0,-1.0,1.0,1650847579886959.0
-1.0,-1.0,-2.0,-1.0,-1.0,0.0,-2.0,-1.0,1650847579886959.0
-2.0,-3.0,-2.0,0.0,0.0,-2.0,-1.0,-1.0,1650847579908186.0
0.0,-2.0,-1.0,0.0,0.0,-1.0,-1.0,3.0,1650847579908186.0
0.0,-2.0,2.0,-1.0,0.0,0.0,0.0,-3.0,1650847579909187.0
-2.0,2.0,0.0,2.0,-1.0,-1.0,-2.0,0.0,1650847579909187.0
1.0,0.0,-3.0,-1.0,-2.0,-1.0,1.0,-1.0,1650847579922391.0
1.0,-3.0,1.0,1.0,-1.0,0.0,0.0,-1.0,1650847579922391.0
-2.0,-1.0,0.0,-3.0,-1.0,-2.0,1.0,-1.0,1650847579929338.0
0.0,-2.0,2.0,1.0,1.0,1.0,-2.0,-2.0,1650847579929338.0
-1.0,2.0,1.0,-1.0,1.0,2.0,-1.0,0.0,1650847579945364.0
1.0,2.0,-1.0,-1.0,-4.0,-1.0,0.0,0.0,1650847579945364.0
1.0,1.0,0.0,-2.0,1.0,-1.0,0.0,1.0,1650847579947292.0
-1.0,-1.0,-1.0,0.0,-1.0,1.0,0.0,1.0,1650847579947292.0
-1.0,-1.0,-1.0,-2.0,-2.0,-1.0,-1.0,-1.0,1650847579967458.0
-4.0,-3.0,-3.0,-4.0,-1.0,0.0,-1.0,-2.0,1650847579967458.0
0.0,-1.0,-2.0,1.0,1.0,1.0,-1.0,0.0,1650847579969456.0
2.0,1.0,2.0,1.0,0.0,-2.0,-1.0,0.0,1650847579969456.0
-2.0,-3.0,-4.0,-4.0,-1.0,-2.0,-2.0,-2.0,1650847579981784.0
0.0,1.0,1.0,0.0,0.0,0.0,0.0,-1.0,1650847579981784.0
0.0,2.0,2.0,0.0,-1.0,1.0,-2.0,-1.0,1650847579990781.0
-1.0,-2.0,-1.0,-1.0,-1.0,1.0,2.0,1.0,1650847579990781.0
0.0,1.0,2.0,3.0,-1.0,0.0,-1.0,0.0,1650847580005842.0
-2.0,0.0,-2.0,-2.0,-1.0,0.0,0.0,1.0,1650847580005842.0
0.0,-3.0,-3.0,0.0,0.0,0.0,0.0,-1.0,1650847580007797.0
1.0,2.0,2.0,1.0,-1.0,-1.0,0.0,-1.0,1650847580007797.0
0.0,-3.0,0.0,-1.0,-2.0,0.0,0.0,-1.0,1650847580027445.0
0.0,0.0,-2.0,1.0,1.0,-2.0,-1.0,-1.0,1650847580027445.0
-2.0,-3.0,-1.0,-1.0,-1.0,1.0,2.0,-2.0,1650847580029407.0
-1.0,-2.0,-1.0,-1.0,-1.0,-1.0,-1.0,0.0,1650847580029407.0
0.0,-1.0,0.0,-2.0,0.0,-2.0,-2.0,0.0,1650847580041442.0
-2.0,0.0,0.0,1.0,0.0,-1.0,-2.0,-3.0,1650847580041442.0
-1.0,-1.0,-1.0,-2.0,-3.0,-2.0,1.0,0.0,1650847580050352.0
-2.0,-3.0,-2.0,-1.0,-1.0,1.0,0.0,0.0,1650847580050352.0
0.0,-1.0,-2.0,-1.0,-1.0,-2.0,-1.0,1.0,1650847580064832.0
0.0,0.0,3.0,0.0,0.0,0.0,1.0,-1.0,1650847580064832.0
-2.0,-1.0,-1.0,0.0,0.0,-2.0,-2.0,-2.0,1650847580066771.0
-1.0,-4.0,-3.0,0.0,-2.0,-2.0,-1.0,-1.0,1650847580066771.0
-1.0,2.0,0.0,2.0,3.0,1.0,2.0,0.0,1650847580087884.0
2.0,-3.0,-4.0,-3.0,-3.0,-2.0,1.0,0.0,1650847580087884.0
0.0,0.0,2.0,1.0,0.0,-1.0,-2.0,-1.0,1650847580089813.0
0.0,1.0,2.0,0.0,1.0,0.0,0.0,-1.0,1650847580089813.0
-1.0,1.0,-3.0,-1.0,-3.0,-2.0,1.0,0.0,1650847580101814.0
-2.0,-5.0,-1.0,1.0,-2.0,-2.0,-2.0,0.0,1650847580101814.0
1.0,2.0,0.0,-1.0,-1.0,-1.0,-1.0,1.0,1650847580110759.0
0.0,1.0,-2.0,-4.0,-1.0,-1.0,-1.0,-1.0,1650847580110759.0
0.0,0.0,0.0,0.0,1.0,1.0,0.0,1.0,1650847580125340.0
1.0,0.0,1.0,1.0,1.0,2.0,-1.0,0.0,1650847580125340.0
0.0,1.0,0.0,-1.0,-1.0,-2.0,-3.0,0.0,1650847580126365.0
-1.0,0.0,0.0,-1.0,-2.0,-2.0,0.0,-1.0,1650847580126365.0
-1.0,-6.0,-6.0,-1.0,0.0,0.0,-1.0,-1.0,1650847580147308.0
0.0,4.0,2.0,0.0,-1.0,0.0,1.0,1.0,1650847580147308.0
0.0,-1.0,-2.0,2.0,3.0,3.0,1.0,1.0,1650847580149276.0
2.0,0.0,-3.0,-3.0,-2.0,-1.0,-2.0,-3.0,1650847580149276.0
-1.0,-1.0,1.0,0.0,-4.0,0.0,-3.0,-1.0,1650847580161271.0
-1.0,0.0,-2.0,-1.0,-1.0,-1.0,-1.0,0.0,1650847580161271.0
-1.0,1.0,0.0,0.0,-1.0,-1.0,-1.0,0.0,1650847580170220.0
0.0,0.0,-3.0,-3.0,-1.0,0.0,0.0,0.0,1650847580170220.0
-1.0,-4.0,-4.0,-1.0,0.0,-1.0,-1.0,-1.0,1650847580185180.0
0.0,1.0,2.0,0.0,0.0,-2.0,0.0,1.0,1650847580185180.0
-1.0,-1.0,0.0,0.0,0.0,0.0,-1.0,-1.0,1650847580187272.0
0.0,1.0,1.0,1.0,-1.0,-2.0,0.0,1.0,1650847580187272.0
2.0,-1.0,-1.0,-2.0,-1.0,-1.0,-2.0,0.0,1650847580208246.0
-2.0,-3.0,-3.0,1.0,0.0,0.0,-2.0,-1.0,1650847580208246.0
1.0,0.0,1.0,-2.0,0.0,1.0,0.0,-1.0,1650847580209231.0
-2.0,-4.0,-3.0,-2.0,-2.0,-1.0,-2.0,0.0,1650847580209231.0
-2.0,2.0,1.0,2.0,-2.0,1.0,0.0,1.0,1650847580221264.0
-2.0,-1.0,1.0,-1.0,-2.0,-2.0,-1.0,0.0,1650847580221264.0
-1.0,-2.0,-1.0,0.0,-2.0,-1.0,-1.0,0.0,1650847580230314.0
1.0,-1.0,2.0,2.0,1.0,0.0,-2.0,-1.0,1650847580230314.0
0.0,-1.0,-1.0,0.0,-2.0,-2.0,1.0,-2.0,1650847580245522.0
-2.0,-2.0,-2.0,-2.0,0.0,-2.0,-1.0,-2.0,1650847580245522.0
0.0,3.0,0.0,0.0,-1.0,-2.0,1.0,-1.0,1650847580246456.0
2.0,1.0,-1.0,-1.0,0.0,1.0,0.0,1.0,1650847580246456.0
0.0,0.0,0.0,-1.0,0.0,-1.0,-2.0,-1.0,1650847580267468.0
0.0,-4.0,-4.0,-1.0,-1.0,0.0,1.0,1.0,1650847580267468.0
0.0,-1.0,-2.0,-3.0,-3.0,-3.0,-1.0,-1.0,1650847580269408.0
-2.0,-1.0,-1.0,0.0,0.0,0.0,0.0,-1.0,1650847580269408.0
0.0,4.0,0.0,0.0,0.0,2.0,0.0,-1.0,1650847580281823.0
-1.0,-4.0,0.0,4.0,2.0,1.0,-1.0,-2.0,1650847580281823.0
-2.0,-1.0,-4.0,-7.0,-4.0,0.0,0.0,0.0,1650847580290445.0
-1.0,-4.0,0.0,3.0,1.0,0.0,0.0,-2.0,1650847580290445.0
-1.0,1.0,1.0,-2.0,-1.0,-1.0,0.0,0.0,1650847580304409.0
1.0,4.0,0.0,0.0,0.0,1.0,-1.0,-2.0,1650847580304409.0
0.0,-2.0,0.0,2.0,0.0,-3.0,0.0,-1.0,1650847580312455.0
-2.0,-3.0,-3.0,-3.0,0.0,0.0,2.0,-2.0,1650847580312455.0
-1.0,1.0,2.0,2.0,2.0,1.0,1.0,1.0,1650847580327586.0
0.0,-1.0,-1.0,-2.0,-1.0,1.0,1.0,2.0,1650847580327586.0
-1.0,-2.0,1.0,-1.0,-1.0,1.0,0.0,0.0,1650847580329609.0
-3.0,3.0,-1.0,-1.0,1.0,-2.0,-2.0,-1.0,1650847580329609.0
0.0,0.0,0.0,0.0,-1.0,1.0,-1.0,0.0,1650847580341820.0
0.0,1.0,-2.0,-2.0,-2.0,-2.0,-1.0,-1.0,1650847580341820.0
0.0,-1.0,-1.0,-1.0,0.0,-1.0,-1.0,-1.0,1650847580350799.0
1.0,1.0,1.0,1.0,-1.0,-2.0,0.0,0.0,1650847580350799.0
-1.0,-3.0,-2.0,0.0,0.0,0.0,-2.0,0.0,1650847580365929.0
0.0,1.0,0.0,-1.0,-1.0,-2.0,-2.0,1.0,1650847580365929.0
1.0,-2.0,-2.0,-1.0,0.0,-1.0,-1.0,-3.0,1650847580371900.0
0.0,2.0,-1.0,-3.0,-1.0,-2.0,0.0,0.0,1650847580371900.0
0.0,-3.0,-3.0,-4.0,0.0,-3.0,1.0,-2.0,1650847580387942.0
1.0,2.0,2.0,0.0,-1.0,-1.0,0.0,1.0,1650847580387942.0
-2.0,-4.0,0.0,0.0,0.0,-2.0,0.0,0.0,1650847580388910.0
1.0,2.0,-1.0,-4.0,-1.0,1.0,-1.0,0.0,1650847580388910.0
-2.0,-2.0,-1.0,-2.0,-2.0,1.0,-1.0,-2.0,1650847580410635.0
1.0,0.0,-2.0,-2.0,-2.0,-1.0,-1.0,0.0,1650847580410635.0
0.0,-1.0,0.0,3.0,0.0,-1.0,0.0,-2.0,1650847580411575.0
0.0,-1.0,0.0,1.0,-1.0,-1.0,0.0,-1.0,1650847580411575.0
0.0,4.0,2.0,1.0,1.0,-1.0,0.0,2.0,1650847580424901.0
0.0,-3.0,-3.0,-5.0,-1.0,-1.0,0.0,-3.0,1650847580424901.0
-2.0,-3.0,-1.0,-1.0,-3.0,-1.0,-1.0,-3.0,1650847580426833.0
-2.0,-3.0,-2.0,2.0,0.0,2.0,-2.0,-1.0,1650847580426833.0
0.0,-2.0,-4.0,-6.0,-2.0,-2.0,-1.0,0.0,1650847580447875.0
-2.0,3.0,1.0,1.0,2.0,1.0,0.0,0.0,1650847580447875.0
-3.0,-2.0,-1.0,0.0,0.0,-1.0,0.0,-1.0,1650847580448903.0
1.0,-2.0,2.0,-1.0,-2.0,-2.0,-1.0,-2.0,1650847580448903.0
0.0,1.0,2.0,0.0,0.0,-1.0,0.0,0.0,1650847580470046.0
0.0,0.0,0.0,0.0,3.0,-1.0,0.0,-3.0,1650847580470046.0
1.0,-2.0,-2.0,-2.0,1.0,2.0,-1.0,0.0,1650847580471986.0
-1.0,-1.0,-3.0,1.0,1.0,0.0,0.0,-1.0,1650847580471986.0
-2.0,1.0,1.0,2.0,0.0,1.0,0.0,0.0,1650847580484875.0
1.0,-3.0,-2.0,-3.0,-3.0,-1.0,0.0,0.0,1650847580484875.0
1.0,2.0,0.0,2.0,0.0,0.0,0.0,2.0,1650847580486800.0
-1.0,-1.0,-2.0,-1.0,-1.0,0.0,0.0,-2.0,1650847580486800.0
-1.0,-3.0,1.0,2.0,1.0,1.0,-2.0,-3.0,1650847580507865.0
-1.0,0.0,-2.0,0.0,-3.0,0.0,0.0,-1.0,1650847580507865.0
0.0,0.0,2.0,-1.0,0.0,1.0,0.0,-1.0,1650847580508865.0
0.0,1.0,1.0,0.0,0.0,-1.0,0.0,1.0,1650847580508865.0
1.0,-2.0,-5.0,-7.0,-2.0,-1.0,0.0,1.0,1650847580529958.0
-1.0,-1.0,0.0,1.0,0.0,-2.0,0.0,0.0,1650847580529958.0
1.0,3.0,2.0,1.0,-3.0,0.0,-3.0,0.0,1650847580531887.0
-1.0,-4.0,-1.0,3.0,1.0,2.0,-2.0,-2.0,1650847580531887.0
2.0,-2.0,-3.0,-4.0,-2.0,-2.0,-1.0,-1.0,1650847580544917.0
1.0,0.0,4.0,-2.0,1.0,2.0,-2.0,0.0,1650847580544917.0
0.0,4.0,-1.0,1.0,-1.0,-3.0,1.0,0.0,1650847580546847.0
-2.0,-6.0,-4.0,-12.0,-11.0,-5.0,-2.0,-2.0,1650847580546847.0
0.0,12.0,10.0,34.0,20.0,4.0,0.0,-1.0,1650847580567985.0
2.0,-11.0,-10.0,-8.0,9.0,1.0,-1.0,1.0,1650847580567985.0
1.0,-3.0,3.0,-12.0,-11.0,-1.0,4.0,2.0,1650847580568917.0
-8.0,-25.0,-21.0,-21.0,-15.0,-8.0,-7.0,-6.0,1650847580568917.0
5.0,28.0,27.0,16.0,22.0,7.0,-16.0,-7.0,1650847580589827.0
17.0,-4.0,-13.0,17.0,-6.0,0.0,18.0,13.0,1650847580589827.0
-17.0,8.0,3.0,-15.0,-3.0,2.0,8.0,2.0,1650847580591824.0
8.0,-10.0,1.0,8.0,10.0,7.0,13.0,8.0,1650847580591824.0
-14.0,-30.0,-20.0,-21.0,-20.0,-14.0,4.0,1.0,1650847580604857.0
-5.0,2.0,2.0,-8.0,-1.0,0.0,-27.0,-24.0,1650847580604857.0
4.0,9.0,7.0,8.0,5.0,4.0,12.0,3.0,1650847580611799.0
3.0,4.0,-1.0,-2.0,-3.0,-2.0,6.0,7.0,1650847580611799.0
6.0,7.0,4.0,-1.0,-7.0,-1.0,-13.0,1.0,1650847580628197.0
-2.0,-1.0,-1.0,1.0,3.0,3.0,1.0,0.0,1650847580628197.0
14.0,17.0,10.0,7.0,-2.0,-8.0,-6.0,1.0,1650847580629198.0
-12.0,-11.0,-16.0,-15.0,-8.0,-3.0,0.0,-8.0,1650847580629198.0
5.0,23.0,20.0,23.0,9.0,1.0,3.0,-1.0,1650847580649865.0
-5.0,-35.0,-22.0,-8.0,-7.0,3.0,-1.0,3.0,1650847580649865.0
1.0,10.0,2.0,6.0,11.0,3.0,0.0,2.0,1650847580651890.0
7.0,23.0,15.0,6.0,1.0,-3.0,-10.0,-2.0,1650847580651890.0
-1.0,-1.0,-2.0,-13.0,-11.0,-1.0,0.0,-4.0,1650847580663774.0
-2.0,23.0,10.0,-6.0,3.0,5.0,-4.0,-5.0,1650847580663774.0
2.0,-10.0,0.0,11.0,-10.0,-6.0,11.0,7.0,1650847580672753.0
9.0,7.0,19.0,47.0,47.0,22.0,35.0,25.0,1650847580672753.0
-8.0,-16.0,-17.0,5.0,6.0,-5.0,-38.0,-20.0,1650847580687781.0
-12.0,14.0,16.0,-1.0,-8.0,-11.0,8.0,5.0,1650847580687781.0
5.0,-3.0,-15.0,-28.0,-15.0,-1.0,-17.0,-7.0,1650847580689713.0
6.0,23.0,-4.0,-21.0,-17.0,-3.0,15.0,6.0,1650847580689713.0
-10.0,-24.0,-15.0,9.0,6.0,12.0,1.0,-4.0,1650847580709824.0
-1.0,-11.0,12.0,13.0,3.0,-4.0,0.0,6.0,1650847580709824.0
-23.0,16.0,11.0,2.0,3.0,-2.0,-14.0,-12.0,1650847580711834.0
3.0,-16.0,-7.0,3.0,-5.0,-5.0,-19.0,-17.0,1650847580711834.0
13.0,18.0,13.0,3.0,3.0,4.0,22.0,13.0,1650847580723816.0
-2.0,-5.0,-26.0,-29.0,-19.0,-10.0,-6.0,-4.0,1650847580723816.0
-1.0,3.0,1.0,11.0,7.0,3.0,-7.0,-7.0,1650847580732821.0
13.0,20.0,18.0,7.0,4.0,0.0,-11.0,-1.0,1650847580732821.0
-7.0,-18.0,-12.0,-20.0,-14.0,1.0,13.0,2.0,1650847580747782.0
13.0,35.0,22.0,22.0,11.0,6.0,3.0,5.0,1650847580747782.0
10.0,-28.0,-16.0,-13.0,-6.0,-12.0,-3.0,-1.0,1650847580749776.0
-2.0,-5.0,-6.0,-3.0,5.0,4.0,-13.0,2.0,1650847580749776.0
-17.0,-46.0,-21.0,-9.0,-15.0,-6.0,18.0,15.0,1650847580769875.0
-1.0,12.0,10.0,10.0,-2.0,2.0,-17.0,-20.0,1650847580769875.0
-7.0,-20.0,-10.0,2.0,15.0,10.0,22.0,8.0,1650847580771870.0
-12.0,24.0,13.0,-8.0,-11.0,-7.0,-26.0,-21.0,1650847580771870.0
-13.0,-33.0,-22.0,-1.0,4.0,0.0,7.0,0.0,1650847580783906.0
-6.0,-18.0,-9.0,-24.0,-9.0,-1.0,10.0,3.0,1650847580783906.0
6.0,14.0,18.0,8.0,-1.0,5.0,1.0,4.0,1650847580792814.0
-5.0,-6.0,-2.0,5.0,-1.0,-6.0,-4.0,-2.0,1650847580792814.0
7.0,34.0,-15.0,-32.0,-13.0,-4.0,3.0,0.0,1650847580807841.0
-3.0,-8.0,2.0,2.0,-2.0,-11.0,-3.0,3.0,1650847580807841.0
-2.0,-20.0,14.0,-9.0,-10.0,-10.0,-28.0,-14.0,1650847580809775.0
-7.0,10.0,-40.0,0.0,-9.0,6.0,16.0,4.0,1650847580809775.0
-1.0,-4.0,32.0,36.0,19.0,6.0,-6.0,-6.0,1650847580829829.0
16.0,-15.0,-13.0,-7.0,20.0,15.0,10.0,7.0,1650847580829829.0
-15.0,-19.0,7.0,3.0,-11.0,-15.0,-4.0,-5.0,1650847580831841.0
4.0,-7.0,-26.0,-32.0,-24.0,-9.0,3.0,0.0,1650847580831841.0
-24.0,-16.0,-1.0,-15.0,-6.0,-2.0,-9.0,-14.0,1650847580843802.0
-8.0,-25.0,-35.0,19.0,18.0,9.0,9.0,9.0,1650847580843802.0
17.0,5.0,6.0,-3.0,4.0,10.0,6.0,14.0,1650847580852780.0
3.0,12.0,34.0,7.0,-3.0,-6.0,5.0,-5.0,1650847580852780.0
15.0,17.0,3.0,1.0,3.0,3.0,5.0,3.0,1650847580867893.0
5.0,25.0,11.0,-22.0,-15.0,-5.0,-12.0,-4.0,1650847580867893.0
-10.0,-34.0,-38.0,-9.0,-2.0,-1.0,-7.0,-9.0,1650847580868893.0
-5.0,-17.0,-11.0,-3.0,1.0,1.0,-3.0,1.0,1650847580868893.0
6.0,1.0,8.0,-8.0,-4.0,-2.0,8.0,12.0,1650847580890071.0
-4.0,-23.0,3.0,20.0,5.0,2.0,-4.0,-11.0,1650847580890071.0
-1.0,39.0,-6.0,2.0,-3.0,-11.0,-29.0,-18.0,1650847580892027.0
17.0,6.0,1.0,-18.0,3.0,6.0,6.0,13.0,1650847580892027.0
-1.0,5.0,-9.0,9.0,5.0,5.0,-12.0,-1.0,1650847580904034.0
-13.0,-29.0,0.0,-21.0,-17.0,-7.0,27.0,2.0,1650847580904034.0
-3.0,16.0,10.0,14.0,6.0,13.0,15.0,3.0,1650847580912943.0
-8.0,-8.0,10.0,5.0,6.0,0.0,-4.0,-8.0,1650847580912943.0
7.0,7.0,-11.0,-21.0,-13.0,-6.0,-21.0,-17.0,1650847580928119.0
2.0,9.0,-4.0,34.0,25.0,-1.0,9.0,5.0,1650847580928119.0
40.0,53.0,49.0,9.0,3.0,9.0,14.0,23.0,1650847580929051.0
-17.0,12.0,-52.0,-17.0,-5.0,-9.0,-19.0,-8.0,1650847580929051.0
-1.0,-7.0,28.0,-10.0,-15.0,-2.0,-2.0,-9.0,1650847580950147.0
-5.0,53.0,10.0,29.0,25.0,7.0,5.0,15.0,1650847580950147.0
-10.0,-45.0,-12.0,-26.0,-12.0,-13.0,-5.0,-19.0,1650847580952103.0
31.0,11.0,27.0,36.0,17.0,8.0,1.0,4.0,1650847580952103.0
-44.0,-36.0,-18.0,-13.0,-13.0,-6.0,4.0,-2.0,1650847580964045.0
10.0,12.0,23.0,-10.0,-14.0,-9.0,-11.0,-6.0,1650847580964045.0
3.0,-9.0,-16.0,11.0,6.0,0.0,1.0,10.0,1650847580973020.0
-1.0,12.0,-2.0,-3.0,-6.0,-4.0,-2.0,-7.0,1650847580973020.0
14.0,27.0,2.0,-16.0,-1.0,-1.0,-9.0,-1.0,1650847580988083.0
-1.0,-33.0,20.0,30.0,-1.0,4.0,41.0,21.0,1650847580988083.0
-7.0,-19.0,-48.0,-41.0,-16.0,-14.0,-20.0,-3.0,1650847580989083.0
11.0,29.0,37.0,63.0,38.0,13.0,3.0,-1.0,1650847580989083.0
-20.0,-11.0,-3.0,-7.0,6.0,-2.0,-7.0,-9.0,1650847581010086.0
-3.0,14.0,-2.0,-13.0,-10.0,-1.0,-14.0,-14.0,1650847581010086.0
0.0,-6.0,15.0,2.0,-6.0,-3.0,-16.0,-5.0,1650847581012081.0
-8.0,-42.0,-4.0,-1.0,-2.0,6.0,17.0,11.0,1650847581012081.0
20.0,44.0,3.0,23.0,29.0,8.0,10.0,9.0,1650847581024089.0
21.0,4.0,1.0,-15.0,-12.0,-9.0,-17.0,-8.0,1650847581024089.0
-59.0,0.0,-11.0,5.0,5.0,5.0,11.0,-4.0,1650847581032823.0
10.0,-8.0,23.0,-23.0,-17.0,-9.0,-2.0,6.0,1650847581032823.0
3.0,-23.0,8.0,24.0,-1.0,-3.0,13.0,10.0,1650847581047789.0
4.0,7.0,-2.0,-25.0,-6.0,-4.0,-15.0,-9.0,1650847581047789.0
15.0,18.0,-8.0,-7.0,-6.0,-2.0,12.0,8.0,1650847581053835.0
-20.0,-29.0,-1.0,5.0,5.0,1.0,-15.0,-10.0,1650847581053835.0
7.0,10.0,-15.0,0.0,-4.0,-5.0,0.0,4.0,1650847581070733.0
-10.0,9.0,-14.0,-10.0,-12.0,-4.0,0.0,-4.0,1650847581070733.0
3.0,-16.0,1.0,10.0,21.0,6.0,3.0,5.0,1650847581071718.0
-11.0,-1.0,-1.0,7.0,-2.0,-1.0,0.0,-6.0,1650847581071718.0
11.0,-9.0,-22.0,-13.0,-13.0,-12.0,-7.0,-1.0,1650847581083712.0
-6.0,-2.0,-6.0,-3.0,-2.0,-4.0,-25.0,-8.0,1650847581083712.0
9.0,15.0,20.0,15.0,13.0,15.0,17.0,3.0,1650847581092669.0
-7.0,-9.0,-4.0,-13.0,-16.0,-7.0,0.0,-12.0,1650847581092669.0
16.0,10.0,3.0,1.0,9.0,3.0,5.0,14.0,1650847581108207.0
-16.0,-11.0,-12.0,2.0,-1.0,2.0,0.0,2.0,1650847581108207.0
9.0,-3.0,-1.0,-21.0,-12.0,0.0,11.0,9.0,1650847581109207.0
-6.0,2.0,8.0,39.0,27.0,5.0,-3.0,-1.0,1650847581109207.0
0.0,-4.0,11.0,-11.0,-11.0,1.0,13.0,6.0,1650847581129844.0
13.0,-1.0,-13.0,-7.0,-1.0,1.0,12.0,16.0,1650847581129844.0
-11.0,-10.0,-9.0,1.0,-3.0,-5.0,-9.0,-15.0,1650847581131841.0
6.0,20.0,11.0,-16.0,-11.0,-3.0,-10.0,2.0,1650847581131841.0
-2.0,-6.0,-1.0,-1.0,-2.0,-1.0,-5.0,-11.0,1650847581143836.0
5.0,-8.0,7.0,6.0,4.0,6.0,13.0,14.0,1650847581143836.0
10.0,1.0,-7.0,3.0,11.0,2.0,-1.0,-1.0,1650847581152932.0
-21.0,-1.0,-4.0,-12.0,-6.0,-1.0,4.0,1.0,1650847581152932.0
1.0,-7.0,2.0,8.0,0.0,-2.0,-5.0,-2.0,1650847581168073.0
-10.0,0.0,7.0,-8.0,-9.0,-4.0,-11.0,-13.0,1650847581168073.0
15.0,34.0,9.0,5.0,3.0,4.0,15.0,8.0,1650847581169073.0
7.0,-8.0,-5.0,8.0,-1.0,1.0,6.0,8.0,1650847581169073.0
4.0,-16.0,-11.0,5.0,6.0,-2.0,1.0,9.0,1650847581189863.0
-3.0,-4.0,1.0,-4.0,-6.0,-4.0,-9.0,-7.0,1650847581189863.0
-10.0,-4.0,3.0,-1.0,-2.0,-3.0,-6.0,-15.0,1650847581191860.0
6.0,14.0,-7.0,-28.0,-13.0,-7.0,9.0,10.0,1650847581191860.0
-1.0,11.0,5.0,9.0,-9.0,2.0,-2.0,-8.0,1650847581203827.0
7.0,-8.0,-3.0,-16.0,7.0,3.0,-3.0,-8.0,1650847581203827.0
-1.0,-17.0,-1.0,26.0,20.0,5.0,2.0,11.0,1650847581212804.0
-10.0,-8.0,-3.0,-10.0,-10.0,-9.0,-7.0,-12.0,1650847581212804.0
1.0,0.0,2.0,-3.0,-11.0,-6.0,-6.0,-4.0,1650847581227831.0
-8.0,-3.0,-4.0,-3.0,1.0,1.0,-11.0,-11.0,1650847581227831.0
-1.0,-1.0,-6.0,-9.0,-8.0,1.0,6.0,0.0,1650847581229759.0
1.0,-13.0,-3.0,-1.0,2.0,2.0,0.0,5.0,1650847581229759.0
3.0,13.0,10.0,18.0,12.0,5.0,2.0,0.0,1650847581250070.0
-3.0,-11.0,-1.0,3.0,-4.0,-7.0,-5.0,-7.0,1650847581250070.0
4.0,8.0,7.0,-9.0,-10.0,-6.0,-3.0,-3.0,1650847581251999.0
-13.0,-37.0,-22.0,11.0,14.0,1.0,4.0,-5.0,1650847581251999.0
5.0,8.0,6.0,-13.0,-6.0,-3.0,0.0,11.0,1650847581263841.0
2.0,0.0,2.0,5.0,-1.0,1.0,0.0,-2.0,1650847581263841.0
-22.0,-2.0,-8.0,-3.0,-9.0,-2.0,-6.0,-8.0,1650847581272833.0
4.0,12.0,1.0,-18.0,-14.0,-2.0,-1.0,0.0,1650847581272833.0
-1.0,2.0,-3.0,-10.0,-7.0,0.0,7.0,1.0,1650847581287898.0
0.0,0.0,-7.0,2.0,11.0,0.0,1.0,2.0,1650847581287898.0
23.0,-2.0,12.0,10.0,8.0,2.0,-7.0,-5.0,1650847581288924.0
-29.0,-28.0,-42.0,-27.0,-18.0,-5.0,-6.0,-8.0,1650847581288924.0
0.0,-4.0,13.0,9.0,9.0,0.0,-5.0,-10.0,1650847581309903.0
0.0,28.0,9.0,-12.0,-14.0,-8.0,-6.0,2.0,1650847581309903.0
2.0,-7.0,-5.0,4.0,-4.0,2.0,-2.0,-3.0,1650847581311836.0
7.0,-6.0,10.0,1.0,11.0,5.0,2.0,5.0,1650847581311836.0
4.0,14.0,1.0,2.0,-3.0,-3.0,0.0,-9.0,1650847581323832.0
-5.0,2.0,-12.0,-8.0,-3.0,-1.0,2.0,-4.0,1650847581323832.0
-8.0,-38.0,-10.0,-8.0,-7.0,-4.0,-10.0,-10.0,1650847581332786.0
13.0,58.0,23.0,16.0,4.0,-1.0,4.0,17.0,1650847581332786.0
-9.0,-17.0,-7.0,5.0,13.0,6.0,2.0,-9.0,1650847581347804.0
-1.0,-4.0,1.0,8.0,2.0,2.0,0.0,0.0,1650847581347804.0
5.0,5.0,-6.0,-16.0,-11.0,-2.0,8.0,8.0,1650847581353791.0
9.0,16.0,9.0,16.0,11.0,2.0,-9.0,2.0,1650847581353791.0
5.0,14.0,20.0,33.0,11.0,3.0,0.0,3.0,1650847581369903.0
0.0,-3.0,3.0,-1.0,6.0,1.0,4.0,5.0,1650847581369903.0
-3.0,-21.0,-33.0,-10.0,-7.0,-5.0,0.0,7.0,1650847581371844.0
-5.0,-15.0,2.0,-5.0,-2.0,1.0,-6.0,-13.0,1650847581371844.0
0.0,20.0,-3.0,-10.0,-9.0,-8.0,4.0,11.0,1650847581393101.0
0.0,12.0,8.0,6.0,2.0,-1.0,1.0,-5.0,1650847581393101.0
-13.0,1.0,3.0,15.0,8.0,-3.0,-14.0,-14.0,1650847581394101.0
6.0,-10.0,7.0,-15.0,-4.0,1.0,3.0,0.0,1650847581394101.0
0.0,-21.0,-8.0,3.0,3.0,2.0,1.0,0.0,1650847581408132.0
0.0,-4.0,-3.0,-8.0,-7.0,-1.0,8.0,8.0,1650847581408132.0
2.0,20.0,16.0,6.0,1.0,0.0,0.0,4.0,1650847581409065.0
-6.0,-18.0,-7.0,0.0,-6.0,-3.0,-16.0,-22.0,1650847581409065.0
15.0,11.0,3.0,-5.0,-1.0,4.0,13.0,17.0,1650847581429878.0
-10.0,1.0,0.0,11.0,4.0,1.0,4.0,9.0,1650847581429878.0
-3.0,-14.0,0.0,0.0,-3.0,-1.0,-2.0,4.0,1650847581431807.0
0.0,-2.0,-5.0,-1.0,9.0,4.0,9.0,4.0,1650847581431807.0
-3.0,-2.0,-1.0,-7.0,-7.0,-1.0,-11.0,-17.0,1650847581453814.0
4.0,8.0,8.0,-3.0,-6.0,-3.0,-3.0,1.0,1650847581453814.0
-7.0,-3.0,-25.0,-4.0,-1.0,-2.0,-7.0,-8.0,1650847581454747.0
10.0,8.0,1.0,-14.0,-15.0,-4.0,7.0,7.0,1650847581454747.0
-6.0,17.0,1.0,-5.0,5.0,-3.0,1.0,1.0,1650847581468853.0
-2.0,-7.0,22.0,-11.0,-13.0,-6.0,-16.0,-15.0,1650847581468853.0
-2.0,13.0,-39.0,9.0,3.0,3.0,7.0,4.0,1650847581468853.0
0.0,-23.0,-5.0,-8.0,-4.0,-4.0,-1.0,0.0,1650847581468853.0
-4.0,-5.0,-6.0,-7.0,0.0,1.0,9.0,8.0,1650847581489860.0
3.0,-9.0,6.0,9.0,1.0,-1.0,-2.0,-8.0,1650847581489860.0
5.0,3.0,13.0,-3.0,-1.0,-4.0,-1.0,4.0,1650847581489860.0
-4.0,4.0,-4.0,-1.0,-2.0,2.0,-1.0,-5.0,1650847581489860.0
-4.0,6.0,0.0,-8.0,-10.0,-5.0,-11.0,-6.0,1650847581511891.0
-2.0,-11.0,-7.0,12.0,16.0,10.0,8.0,5.0,1650847581511891.0
-1.0,-4.0,18.0,-1.0,-2.0,-2.0,7.0,6.0,1650847581512821.0
5.0,9.0,1.0,9.0,6.0,0.0,1.0,0.0,1650847581512821.0
1.0,-16.0,1.0,5.0,1.0,1.0,3.0,3.0,1650847581526851.0
0.0,7.0,-24.0,-8.0,2.0,-1.0,-3.0,-1.0,1650847581526851.0
-5.0,-23.0,-10.0,-5.0,-1.0,-1.0,-4.0,-3.0,1650847581527781.0
5.0,-3.0,12.0,-1.0,-7.0,-4.0,-4.0,-5.0,1650847581527781.0
-10.0,15.0,-3.0,3.0,-1.0,-1.0,14.0,14.0,1650847581549984.0
3.0,1.0,0.0,6.0,-4.0,-3.0,-15.0,-10.0,1650847581549984.0
4.0,-1.0,6.0,0.0,-1.0,3.0,16.0,8.0,1650847581550982.0
-14.0,17.0,9.0,13.0,7.0,-3.0,-12.0,-7.0,1650847581550982.0
0.0,-23.0,-11.0,-7.0,4.0,2.0,2.0,-5.0,1650847581572334.0
-2.0,-5.0,1.0,4.0,-2.0,-3.0,8.0,12.0,1650847581572334.0
3.0,26.0,19.0,-8.0,-3.0,4.0,1.0,-7.0,1650847581572334.0
0.0,-4.0,-8.0,-13.0,-7.0,-2.0,4.0,6.0,1650847581572334.0
-3.0,-4.0,-3.0,-5.0,-13.0,-7.0,-28.0,-27.0,1650847581586325.0
0.0,1.0,8.0,29.0,35.0,13.0,20.0,21.0,1650847581586325.0
5.0,17.0,8.0,1.0,-4.0,-2.0,-4.0,0.0,1650847581594304.0
-5.0,-32.0,-15.0,-6.0,1.0,1.0,2.0,4.0,1650847581594304.0
2.0,12.0,4.0,-4.0,-4.0,0.0,-4.0,2.0,1650847581609268.0
0.0,-20.0,-9.0,-13.0,-12.0,-4.0,-5.0,-8.0,1650847581609268.0
-5.0,15.0,7.0,-6.0,9.0,-2.0,-8.0,2.0,1650847581610195.0
-1.0,13.0,0.0,17.0,8.0,1.0,1.0,-10.0,1650847581610195.0
3.0,0.0,-1.0,-7.0,-6.0,-2.0,-2.0,5.0,1650847581632264.0
3.0,3.0,4.0,-4.0,-5.0,0.0,3.0,-2.0,1650847581632264.0
-10.0,-11.0,2.0,5.0,9.0,-1.0,-2.0,-3.0,1650847581633264.0
11.0,13.0,8.0,0.0,-1.0,2.0,-2.0,4.0,1650847581633264.0
-20.0,-12.0,-13.0,-11.0,-1.0,-1.0,0.0,0.0,1650847581646845.0
-8.0,-4.0,-5.0,1.0,-5.0,-3.0,-5.0,-5.0,1650847581646845.0
5.0,5.0,3.0,2.0,-5.0,0.0,-3.0,2.0,1650847581654883.0
1.0,0.0,12.0,8.0,7.0,1.0,-1.0,4.0,1650847581654883.0
4.0,-8.0,-1.0,10.0,3.0,5.0,2.0,-1.0,1650847581669842.0
-6.0,-1.0,-8.0,-7.0,2.0,-3.0,-6.0,-1.0,1650847581669842.0
2.0,-1.0,1.0,8.0,0.0,2.0,8.0,-2.0,1650847581670773.0
-2.0,-2.0,-6.0,-12.0,-10.0,-4.0,-11.0,-11.0,1650847581670773.0
5.0,7.0,14.0,10.0,20.0,9.0,6.0,4.0,1650847581691904.0
-3.0,-7.0,-1.0,1.0,-10.0,-8.0,0.0,-4.0,1650847581691904.0
6.0,9.0,5.0,9.0,5.0,3.0,-2.0,0.0,1650847581692835.0
1.0,-8.0,-12.0,-20.0,-10.0,-1.0,9.0,10.0,1650847581692835.0
2.0,15.0,5.0,-3.0,-10.0,-4.0,-3.0,-1.0,1650847581706840.0
2.0,7.0,5.0,-1.0,0.0,3.0,-4.0,-2.0,1650847581706840.0
0.0,-20.0,-7.0,5.0,5.0,2.0,2.0,1.0,1650847581714843.0
-2.0,4.0,-3.0,-3.0,-5.0,-5.0,-1.0,3.0,1650847581714843.0
0.0,-5.0,-5.0,-12.0,-6.0,-6.0,1.0,2.0,1650847581729902.0
2.0,-8.0,-9.0,3.0,-5.0,-1.0,0.0,-1.0,1650847581729902.0
-10.0,3.0,7.0,3.0,6.0,-2.0,-2.0,-5.0,1650847581729902.0
2.0,13.0,8.0,2.0,-3.0,2.0,3.0,6.0,1650847581729902.0
-1.0,-11.0,-10.0,16.0,1.0,-4.0,-3.0,-4.0,1650847581751989.0
6.0,0.0,2.0,-7.0,-4.0,1.0,10.0,12.0,1650847581751989.0
-2.0,-1.0,-4.0,-22.0,-13.0,-6.0,-10.0,-10.0,1650847581752921.0
-4.0,-15.0,-2.0,13.0,9.0,1.0,3.0,6.0,1650847581752921.0
0.0,8.0,4.0,8.0,8.0,4.0,-2.0,-4.0,1650847581766882.0
4.0,15.0,4.0,-8.0,-7.0,1.0,3.0,5.0,1650847581766882.0
-2.0,1.0,-6.0,-2.0,-5.0,-5.0,-2.0,-7.0,1650847581774927.0
-2.0,10.0,3.0,-11.0,-10.0,-2.0,-5.0,-3.0,1650847581774927.0
1.0,-18.0,-9.0,6.0,4.0,0.0,-1.0,3.0,1650847581789422.0
-6.0,-2.0,-11.0,-11.0,-2.0,-5.0,-17.0,-17.0,1650847581789422.0
-1.0,-14.0,-4.0,-6.0,-3.0,0.0,13.0,11.0,1650847581790420.0
3.0,31.0,10.0,18.0,6.0,-2.0,3.0,7.0,1650847581790420.0
-1.0,-1.0,3.0,-12.0,-8.0,-5.0,-3.0,-12.0,1650847581812549.0
-1.0,-9.0,-10.0,-7.0,-1.0,-2.0,4.0,10.0,1650847581812549.0
-4.0,-9.0,-1.0,7.0,1.0,0.0,-10.0,-14.0,1650847581812549.0
-1.0,2.0,-4.0,-1.0,-3.0,-3.0,0.0,-1.0,1650847581812549.0
-4.0,5.0,8.0,-1.0,-2.0,1.0,6.0,9.0,1650847581826839.0
2.0,-12.0,-9.0,-6.0,-2.0,-1.0,-4.0,-6.0,1650847581826839.0
4.0,13.0,8.0,-4.0,-5.0,0.0,-3.0,2.0,1650847581834981.0
2.0,-11.0,-4.0,4.0,4.0,-1.0,1.0,-1.0,1650847581834981.0
0.0,1.0,-1.0,-15.0,-14.0,-6.0,-3.0,-3.0,1650847581849264.0
1.0,6.0,10.0,-2.0,7.0,5.0,6.0,4.0,1650847581849264.0
-2.0,-12.0,-9.0,-4.0,5.0,-3.0,-5.0,-6.0,1650847581850194.0
-3.0,-4.0,0.0,1.0,-3.0,0.0,-2.0,-4.0,1650847581850194.0
5.0,0.0,-5.0,-9.0,-10.0,-3.0,6.0,8.0,1650847581872135.0
-2.0,0.0,8.0,20.0,5.0,-3.0,-3.0,-3.0,1650847581872135.0
4.0,4.0,4.0,10.0,14.0,9.0,3.0,5.0,1650847581873132.0
-2.0,-2.0,-1.0,-6.0,-2.0,-1.0,-1.0,-2.0,1650847581873132.0
-4.0,-20.0,-13.0,-9.0,-3.0,-2.0,0.0,-1.0,1650847581886166.0
1.0,7.0,5.0,6.0,-1.0,-1.0,-1.0,-2.0,1650847581886166.0
2.0,-10.0,0.0,18.0,3.0,1.0,10.0,11.0,1650847581895073.0
1.0,7.0,9.0,6.0,3.0,1.0,-2.0,-7.0,1650847581895073.0
-4.0,-15.0,-4.0,-7.0,1.0,1.0,-3.0,1.0,1650847581909760.0
3.0,24.0,10.0,10.0,6.0,7.0,11.0,2.0,1650847581909760.0
-5.0,-7.0,-9.0,-10.0,-11.0,-12.0,-16.0,-4.0,1650847581910789.0
4.0,-12.0,-10.0,-10.0,-3.0,1.0,3.0,6.0,1650847581910789.0
1.0,17.0,8.0,6.0,3.0,0.0,-1.0,-5.0,1650847581931976.0
-5.0,-23.0,-17.0,-13.0,-7.0,-2.0,-3.0,-5.0,1650847581931976.0
7.0,8.0,4.0,-8.0,-13.0,1.0,12.0,12.0,1650847581932906.0
3.0,19.0,9.0,27.0,15.0,5.0,-2.0,0.0,1650847581932906.0
-11.0,-4.0,0.0,-1.0,0.0,-2.0,-6.0,-11.0,1650847581946869.0
-1.0,10.0,1.0,-8.0,-4.0,-3.0,-6.0,-3.0,1650847581946869.0
-2.0,-10.0,0.0,3.0,2.0,0.0,-1.0,-2.0,1650847581954915.0
-3.0,1.0,-3.0,7.0,4.0,-1.0,0.0,-2.0,1650847581954915.0
7.0,11.0,3.0,-1.0,-2.0,3.0,4.0,9.0,1650847581969876.0
-5.0,-7.0,-6.0,-4.0,0.0,-1.0,-2.0,-4.0,1650847581969876.0
-1.0,-4.0,-4.0,-3.0,-2.0,-1.0,-1.0,0.0,1650847581969876.0
-2.0,4.0,3.0,-8.0,-4.0,-1.0,-2.0,3.0,1650847581969876.0
-4.0,-14.0,-8.0,-7.0,-3.0,-3.0,-6.0,-8.0,1650847581991763.0
2.0,2.0,2.0,4.0,3.0,1.0,4.0,7.0,1650847581991763.0
5.0,19.0,8.0,5.0,0.0,1.0,-6.0,-1.0,1650847581992746.0
-6.0,-19.0,-5.0,1.0,4.0,0.0,2.0,-9.0,1650847581992746.0
3.0,2.0,-7.0,-15.0,-5.0,-2.0,-3.0,3.0,1650847582006708.0
-5.0,-24.0,-2.0,8.0,-4.0,-5.0,-6.0,-8.0,1650847582006708.0
-2.0,16.0,-2.0,-3.0,-6.0,-2.0,2.0,1.0,1650847582014755.0
-3.0,-18.0,-1.0,-5.0,4.0,4.0,-4.0,-3.0,1650847582014755.0
0.0,-1.0,0.0,1.0,8.0,1.0,0.0,0.0,1650847582029824.0
0.0,8.0,1.0,-8.0,-5.0,-1.0,-2.0,-1.0,1650847582029824.0
-1.0,-2.0,3.0,7.0,2.0,-2.0,-1.0,2.0,1650847582029824.0
-4.0,-14.0,-9.0,2.0,-4.0,-4.0,-1.0,-1.0,1650847582029824.0
-1.0,1.0,3.0,5.0,3.0,1.0,-3.0,-2.0,1650847582051849.0
1.0,8.0,-1.0,1.0,5.0,2.0,4.0,4.0,1650847582051849.0
-1.0,4.0,4.0,-2.0,0.0,1.0,-6.0,-4.0,1650847582052778.0
2.0,5.0,-3.0,-12.0,-4.0,0.0,2.0,2.0,1650847582052778.0
2.0,-11.0,-6.0,7.0,4.0,0.0,0.0,0.0,1650847582066751.0
1.0,-4.0,-1.0,1.0,-2.0,2.0,1.0,-1.0,1650847582066751.0
-1.0,-5.0,-9.0,-11.0,-4.0,-2.0,0.0,-4.0,1650847582074785.0
-1.0,0.0,1.0,0.0,0.0,-2.0,0.0,1.0,1650847582074785.0
-1.0,1.0,1.0,4.0,2.0,0.0,0.0,1.0,1650847582089681.0
0.0,3.0,-3.0,-6.0,-4.0,-9.0,-10.0,-3.0,1650847582089681.0
1.0,0.0,16.0,8.0,5.0,5.0,3.0,0.0,1650847582090678.0
-1.0,6.0,-3.0,0.0,-2.0,6.0,2.0,1.0,1650847582090678.0
7.0,0.0,-1.0,3.0,0.0,4.0,17.0,13.0,1650847582111690.0
-13.0,-10.0,-16.0,-9.0,-4.0,-4.0,-4.0,-15.0,1650847582111690.0
-9.0,5.0,-3.0,1.0,3.0,-6.0,-6.0,-1.0,1650847582112619.0
9.0,-2.0,5.0,0.0,-4.0,-5.0,-4.0,-1.0,1650847582112619.0
10.0,11.0,15.0,-1.0,4.0,5.0,-3.0,5.0,1650847582126650.0
-15.0,-13.0,-37.0,-5.0,-4.0,-4.0,-2.0,0.0,1650847582126650.0
3.0,-6.0,-12.0,-4.0,-5.0,-9.0,-3.0,-10.0,1650847582134628.0
-7.0,3.0,-1.0,-18.0,-7.0,-1.0,-3.0,-9.0,1650847582134628.0
14.0,-8.0,-21.0,-3.0,-4.0,-6.0,-5.0,-2.0,1650847582149826.0
-1.0,0.0,-15.0,-20.0,0.0,1.0,7.0,3.0,1650847582149826.0
6.0,-4.0,-3.0,11.0,10.0,9.0,5.0,9.0,1650847582150720.0
6.0,21.0,108.0,78.0,10.0,-3.0,-4.0,-6.0,1650847582150720.0
-12.0,23.0,-9.0,-13.0,-2.0,1.0,-1.0,-7.0,1650847582171749.0
-22.0,-14.0,-32.0,-24.0,-11.0,-3.0,-2.0,-2.0,1650847582171749.0
13.0,-10.0,-43.0,-22.0,-3.0,-2.0,0.0,0.0,1650847582172695.0
4.0,-9.0,-19.0,-7.0,4.0,2.0,3.0,4.0,1650847582172695.0
6.0,13.0,36.0,35.0,12.0,5.0,4.0,5.0,1650847582186709.0
-5.0,-5.0,21.0,17.0,-2.0,-4.0,-1.0,-3.0,1650847582186709.0
-4.0,0.0,17.0,4.0,2.0,3.0,1.0,3.0,1650847582194183.0
2.0,13.0,-7.0,-1.0,-1.0,0.0,1.0,5.0,1650847582194183.0
-12.0,-19.0,-8.0,0.0,-3.0,-2.0,-2.0,-2.0,1650847582209892.0
11.0,11.0,4.0,-6.0,1.0,3.0,-1.0,-4.0,1650847582209892.0
-3.0,8.0,24.0,2.0,-2.0,1.0,-2.0,0.0,1650847582209892.0
7.0,-8.0,-39.0,-22.0,-5.0,-2.0,-1.0,1.0,1650847582209892.0
-23.0,-30.0,-72.0,-28.0,-8.0,-5.0,-3.0,-3.0,1650847582231833.0
11.0,5.0,25.0,6.0,-4.0,-2.0,-4.0,0.0,1650847582231833.0
2.0,1.0,-18.0,9.0,1.0,0.0,1.0,-2.0,1650847582232776.0
-10.0,-4.0,21.0,-14.0,-2.0,0.0,-1.0,-3.0,1650847582232776.0
11.0,5.0,9.0,-5.0,1.0,0.0,-2.0,-1.0,1650847582246793.0
13.0,6.0,-5.0,14.0,4.0,2.0,1.0,7.0,1650847582246793.0
-11.0,-16.0,7.0,-6.0,-7.0,-2.0,-3.0,-5.0,1650847582254770.0
-3.0,-5.0,-8.0,0.0,-1.0,-3.0,0.0,-2.0,1650847582254770.0
-5.0,-4.0,-18.0,-6.0,-2.0,-1.0,0.0,-3.0,1650847582269975.0
9.0,-6.0,0.0,-11.0,-4.0,0.0,-1.0,0.0,1650847582269975.0
-2.0,4.0,6.0,3.0,-1.0,0.0,-1.0,2.0,1650847582269975.0
-1.0,-1.0,-13.0,-4.0,0.0,-1.0,-1.0,-1.0,1650847582269975.0
2.0,4.0,18.0,10.0,1.0,0.0,-4.0,-2.0,1650847582291930.0
7.0,6.0,16.0,9.0,6.0,5.0,2.0,3.0,1650847582291930.0
-1.0,-4.0,-17.0,-7.0,-3.0,-2.0,-1.0,-2.0,1650847582292858.0
-5.0,-7.0,-1.0,0.0,-2.0,-2.0,0.0,-2.0,1650847582292858.0
1.0,4.0,18.0,6.0,1.0,0.0,0.0,-4.0,1650847582314855.0
-2.0,5.0,-13.0,-5.0,-2.0,0.0,1.0,3.0,1650847582314855.0
-3.0,-6.0,4.0,-4.0,-1.0,-1.0,-1.0,-4.0,1650847582315785.0
-1.0,3.0,-6.0,-10.0,-3.0,-1.0,1.0,3.0,1650847582315785.0
3.0,4.0,5.0,6.0,4.0,0.0,-2.0,-1.0,1650847582329814.0
2.0,5.0,14.0,7.0,3.0,1.0,2.0,0.0,1650847582329814.0
4.0,6.0,14.0,-1.0,-1.0,0.0,0.0,2.0,1650847582330746.0
1.0,-2.0,-32.0,-3.0,0.0,0.0,-3.0,-1.0,1650847582330746.0
0.0,-7.0,-1.0,-4.0,-3.0,0.0,-1.0,-2.0,1650847582351927.0
1.0,8.0,13.0,4.0,1.0,1.0,-1.0,2.0,1650847582351927.0
0.0,5.0,7.0,4.0,0.0,2.0,0.0,0.0,1650847582352879.0
-3.0,-5.0,-5.0,0.0,-1.0,1.0,0.0,0.0,1650847582352879.0
-1.0,0.0,3.0,-1.0,-4.0,-4.0,-2.0,-2.0,1650847582374906.0
2.0,2.0,-3.0,2.0,3.0,1.0,0.0,3.0,1650847582374906.0
-3.0,5.0,17.0,9.0,3.0,-1.0,-1.0,-1.0,1650847582375837.0
-4.0,-9.0,-13.0,-6.0,1.0,0.0,0.0,-1.0,1650847582375837.0
-2.0,0.0,5.0,-3.0,-5.0,-3.0,-3.0,-1.0,1650847582389742.0
2.0,2.0,6.0,0.0,-2.0,1.0,1.0,-2.0,1650847582389742.0
-3.0,-2.0,-7.0,5.0,1.0,0.0,1.0,-1.0,1650847582390747.0
-3.0,-5.0,2.0,-1.0,-1.0,-1.0,-3.0,-1.0,1650847582390747.0
-2.0,5.0,5.0,2.0,1.0,0.0,-1.0,0.0,1650847582411822.0
-1.0,1.0,-2.0,0.0,-2.0,-1.0,-1.0,0.0,1650847582411822.0
0.0,-1.0,-9.0,-6.0,-1.0,1.0,-1.0,0.0,1650847582412754.0
1.0,3.0,5.0,3.0,1.0,-1.0,1.0,-1.0,1650847582412754.0
-2.0,-5.0,-5.0,-1.0,-4.0,-3.0,-1.0,-4.0,1650847582435708.0
-1.0,-2.0,8.0,5.0,1.0,1.0,-1.0,0.0,1650847582435708.0
0.0,-2.0,-4.0,-6.0,-3.0,-2.0,0.0,-1.0,1650847582435708.0
-1.0,-2.0,0.0,0.0,-1.0,1.0,1.0,0.0,1650847582435708.0
2.0,1.0,6.0,4.0,3.0,2.0,-2.0,0.0,1650847582449720.0
-1.0,2.0,0.0,0.0,0.0,-1.0,1.0,-1.0,1650847582449720.0
2.0,2.0,5.0,-1.0,-3.0,-2.0,-1.0,-1.0,1650847582450651.0
-3.0,-9.0,-32.0,-12.0,-4.0,-4.0,0.0,0.0,1650847582450651.0
1.0,4.0,3.0,-4.0,-3.0,0.0,0.0,0.0,1650847582472593.0
-1.0,-1.0,9.0,7.0,3.0,1.0,-1.0,-1.0,1650847582472593.0
-1.0,0.0,-4.0,-1.0,3.0,2.0,0.0,-1.0,1650847582472593.0
1.0,8.0,13.0,1.0,-2.0,-1.0,0.0,0.0,1650847582472593.0
-2.0,-6.0,-10.0,3.0,-1.0,-3.0,-2.0,-3.0,1650847582495599.0
-2.0,-2.0,-5.0,-5.0,-1.0,-1.0,0.0,0.0,1650847582495599.0
-2.0,-3.0,-3.0,2.0,2.0,0.0,1.0,-2.0,1650847582495599.0
0.0,5.0,2.0,-2.0,1.0,0.0,-1.0,1.0,1650847582495599.0
-1.0,2.0,10.0,3.0,-2.0,-1.0,1.0,-1.0,1650847582509792.0
1.0,0.0,1.0,-1.0,1.0,-1.0,-1.0,0.0,1650847582509792.0
1.0,1.0,-3.0,-2.0,-2.0,-1.0,0.0,1.0,1650847582509792.0
1.0,-6.0,-3.0,-1.0,1.0,0.0,-2.0,0.0,1650847582509792.0
-1.0,2.0,1.0,-5.0,-2.0,-3.0,-2.0,-1.0,1650847582532384.0
0.0,-2.0,5.0,6.0,-2.0,0.0,-1.0,-1.0,1650847582532384.0
1.0,0.0,-5.0,-6.0,-2.0,-1.0,0.0,-1.0,1650847582532384.0
0.0,0.0,1.0,0.0,-1.0,-2.0,0.0,-1.0,1650847582532384.0
2.0,-1.0,0.0,-1.0,2.0,-1.0,1.0,0.0,1650847582555391.0
2.0,0.0,-1.0,-6.0,-2.0,1.0,-1.0,0.0,1650847582555391.0
0.0,0.0,-2.0,-1.0,-2.0,-1.0,-2.0,-1.0,1650847582556349.0
-3.0,-3.0,12.0,0.0,-3.0,0.0,0.0,0.0,1650847582556349.0
-2.0,2.0,1.0,4.0,3.0,-1.0,0.0,-1.0,1650847582569355.0
2.0,2.0,-1.0,-1.0,1.0,-1.0,-1.0,-1.0,1650847582569355.0
1.0,-1.0,-3.0,-1.0,-3.0,0.0,0.0,0.0,1650847582570284.0
0.0,0.0,-1.0,0.0,1.0,-1.0,-1.0,-3.0,1650847582570284.0
0.0,0.0,1.0,-1.0,-1.0,-1.0,2.0,0.0,1650847582592417.0
-1.0,-3.0,-10.0,2.0,2.0,-2.0,-2.0,-2.0,1650847582592417.0
-1.0,0.0,2.0,-3.0,-4.0,-1.0,-1.0,0.0,1650847582592417.0
-1.0,-2.0,-3.0,-5.0,-1.0,1.0,0.0,0.0,1650847582592417.0
1.0,3.0,2.0,2.0,0.0,-1.0,0.0,0.0,1650847582615452.0
-2.0,1.0,1.0,-3.0,1.0,-1.0,-1.0,-1.0,1650847582615452.0
-3.0,-5.0,1.0,1.0,1.0,-1.0,1.0,-1.0,1650847582616428.0
1.0,-1.0,-1.0,0.0,1.0,0.0,-1.0,1.0,1650847582616428.0
-1.0,-3.0,-5.0,-4.0,-3.0,2.0,1.0,-1.0,1650847582629375.0
-4.0,-3.0,2.0,2.0,0.0,0.0,0.0,-1.0,1650847582629375.0
0.0,1.0,-2.0,-1.0,-1.0,2.0,-1.0,2.0,1650847582630345.0
0.0,-3.0,2.0,4.0,1.0,-1.0,-2.0,-1.0,1650847582630345.0
-1.0,-2.0,-4.0,-4.0,0.0,-1.0,0.0,0.0,1650847582651958.0
-1.0,-4.0,-8.0,0.0,0.0,-2.0,-1.0,-3.0,1650847582651958.0
-2.0,0.0,6.0,3.0,0.0,0.0,-1.0,0.0,1650847582652944.0
-2.0,2.0,-4.0,0.0,-2.0,0.0,0.0,-1.0,1650847582652944.0
0.0,-3.0,-3.0,-2.0,-3.0,0.0,-2.0,0.0,1650847582674912.0
0.0,-5.0,2.0,-1.0,1.0,0.0,1.0,1.0,1650847582674912.0
-2.0,0.0,-2.0,-2.0,0.0,0.0,-1.0,0.0,1650847582675882.0
0.0,-1.0,-4.0,-3.0,-5.0,-2.0,-1.0,-2.0,1650847582675882.0
1.0,4.0,2.0,1.0,1.0,-1.0,-1.0,0.0,1650847582689382.0
0.0,1.0,5.0,-2.0,0.0,0.0,0.0,0.0,1650847582689382.0
1.0,-6.0,-8.0,-4.0,0.0,0.0,-1.0,-2.0,1650847582690314.0
0.0,2.0,2.0,2.0,0.0,0.0,0.0,-1.0,1650847582690314.0
-2.0,-1.0,-1.0,0.0,-2.0,-3.0,-1.0,2.0,1650847582712321.0
1.0,4.0,1.0,-1.0,-3.0,-2.0,1.0,0.0,1650847582712321.0
-2.0,-4.0,-4.0,1.0,1.0,-2.0,0.0,-2.0,1650847582713272.0
-3.0,-3.0,-5.0,-1.0,0.0,0.0,-1.0,-1.0,1650847582713272.0
0.0,3.0,-1.0,0.0,1.0,2.0,0.0,-1.0,1650847582734262.0
-1.0,2.0,9.0,5.0,1.0,1.0,-1.0,-1.0,1650847582734262.0
0.0,0.0,-2.0,0.0,1.0,-2.0,0.0,0.0,1650847582735193.0
-1.0,0.0,1.0,0.0,0.0,-1.0,0.0,0.0,1650847582735193.0
0.0,-1.0,-1.0,-1.0,-2.0,-1.0,1.0,-1.0,1650847582749244.0
-1.0,2.0,-6.0,-2.0,-6.0,-5.0,-2.0,-2.0,1650847582749244.0
-2.0,-5.0,3.0,1.0,2.0,3.0,1.0,0.0,1650847582757294.0
-2.0,-1.0,1.0,-1.0,0.0,1.0,0.0,1.0,1650847582757294.0
-2.0,-2.0,3.0,-3.0,1.0,-1.0,-1.0,0.0,1650847582772317.0
0.0,1.0,3.0,-2.0,-2.0,-1.0,0.0,2.0,1650847582772317.0
-2.0,1.0,-4.0,-4.0,-2.0,0.0,0.0,0.0,1650847582773245.0
-1.0,-4.0,-2.0,1.0,0.0,0.0,-1.0,-2.0,1650847582773245.0
0.0,-1.0,-1.0,-3.0,-2.0,-2.0,-2.0,1.0,1650847582794255.0
-1.0,-3.0,3.0,2.0,2.0,2.0,0.0,0.0,1650847582794255.0
-1.0,-1.0,-2.0,-2.0,-2.0,-1.0,-1.0,-2.0,1650847582795187.0
0.0,1.0,-1.0,-1.0,0.0,-1.0,-1.0,0.0,1650847582795187.0
0.0,-3.0,-7.0,-2.0,-3.0,0.0,-1.0,-1.0,1650847582809215.0
-1.0,0.0,-4.0,-1.0,4.0,3.0,0.0,0.0,1650847582809215.0
0.0,1.0,6.0,2.0,1.0,-2.0,-1.0,0.0,1650847582810147.0
1.0,-2.0,-3.0,0.0,-2.0,-1.0,2.0,0.0,1650847582810147.0
0.0,1.0,0.0,-1.0,-3.0,0.0,-1.0,-2.0,1650847582831886.0
-1.0,2.0,5.0,1.0,-1.0,-1.0,-1.0,-1.0,1650847582831886.0
0.0,2.0,0.0,-1.0,0.0,2.0,0.0,0.0,1650847582832817.0
1.0,-1.0,-2.0,-3.0,-1.0,0.0,-2.0,0.0,1650847582832817.0
-1.0,-1.0,0.0,1.0,-2.0,0.0,0.0,-1.0,1650847582854825.0
-1.0,-1.0,-7.0,-3.0,-4.0,-2.0,0.0,0.0,1650847582854825.0
0.0,-1.0,-1.0,0.0,-1.0,-1.0,-1.0,-1.0,1650847582855762.0
1.0,0.0,2.0,1.0,0.0,-1.0,-1.0,0.0,1650847582855762.0
0.0,0.0,4.0,1.0,2.0,2.0,0.0,1.0,1650847582869785.0
1.0,-1.0,-6.0,-3.0,0.0,0.0,0.0,-1.0,1650847582869785.0
-1.0,3.0,1.0,3.0,-1.0,0.0,0.0,1.0,1650847582870716.0
-1.0,-2.0,-1.0,-1.0,-1.0,-1.0,-2.0,0.0,1650847582870716.0
-1.0,2.0,1.0,1.0,-2.0,0.0,1.0,-2.0,1650847582891788.0
0.0,0.0,1.0,0.0,-2.0,-2.0,1.0,2.0,1650847582891788.0
-1.0,-5.0,-7.0,-5.0,-3.0,-1.0,0.0,0.0,1650847582892806.0
1.0,2.0,-1.0,-2.0,1.0,0.0,0.0,-1.0,1650847582892806.0
-2.0,-4.0,-1.0,3.0,1.0,-1.0,0.0,1.0,1650847582914781.0
-2.0,-1.0,-2.0,-2.0,-1.0,-1.0,-2.0,-1.0,1650847582914781.0
0.0,1.0,4.0,2.0,0.0,2.0,0.0,-1.0,1650847582915730.0
-1.0,2.0,2.0,-2.0,-1.0,-2.0,-2.0,1.0,1650847582915730.0
1.0,-2.0,-2.0,1.0,1.0,-1.0,-1.0,-1.0,1650847582928752.0
-2.0,-3.0,-3.0,-4.0,-2.0,0.0,-1.0,-2.0,1650847582928752.0
1.0,0.0,-3.0,-2.0,-1.0,-2.0,0.0,0.0,1650847582936731.0
1.0,3.0,-2.0,0.0,1.0,-1.0,-2.0,-1.0,1650847582936731.0
-2.0,0.0,3.0,2.0,-1.0,1.0,-1.0,0.0,1650847582951758.0
1.0,-3.0,3.0,4.0,2.0,-1.0,0.0,0.0,1650847582951758.0
2.0,3.0,-1.0,0.0,-2.0,-2.0,0.0,0.0,1650847582952751.0
-1.0,-2.0,-2.0,-1.0,-2.0,-1.0,1.0,-2.0,1650847582952751.0
0.0,1.0,-4.0,-3.0,-2.0,-1.0,2.0,1.0,1650847582982888.0
0.0,1.0,-1.0,-1.0,-3.0,-1.0,-2.0,0.0,1650847582982888.0
0.0,-4.0,-2.0,-3.0,-1.0,1.0,-1.0,1.0,1650847582983845.0
-2.0,0.0,-1.0,0.0,2.0,1.0,1.0,-1.0,1650847582983845.0
0.0,-1.0,-2.0,-2.0,-2.0,-1.0,-2.0,0.0,1650847582988805.0
0.0,4.0,1.0,0.0,-1.0,-1.0,1.0,0.0,1650847582988805.0
-1.0,-1.0,2.0,-3.0,0.0,-2.0,2.0,0.0,1650847582997407.0
-1.0,0.0,-1.0,-1.0,-3.0,-1.0,-2.0,-2.0,1650847582997407.0
-2.0,0.0,2.0,-1.0,3.0,1.0,-2.0,-3.0,1650847583012023.0
1.0,-3.0,-6.0,-2.0,1.0,1.0,1.0,-2.0,1650847583012023.0
1.0,5.0,8.0,7.0,1.0,0.0,-3.0,0.0,1650847583012960.0
-3.0,-6.0,-6.0,-1.0,-2.0,-2.0,1.0,-1.0,1650847583012960.0
0.0,-2.0,4.0,5.0,-1.0,-3.0,-1.0,-2.0,1650847583034902.0
0.0,0.0,-3.0,-1.0,-2.0,0.0,2.0,0.0,1650847583034902.0
-2.0,1.0,-2.0,0.0,-1.0,-1.0,0.0,-2.0,1650847583035841.0
1.0,-1.0,0.0,-2.0,0.0,-1.0,1.0,0.0,1650847583035841.0
-2.0,-2.0,-3.0,-3.0,-1.0,-1.0,0.0,-4.0,1650847583048929.0
0.0,-2.0,1.0,1.0,-3.0,-3.0,-1.0,-1.0,1650847583048929.0
-1.0,2.0,-1.0,-2.0,-2.0,0.0,0.0,0.0,1650847583056910.0
-3.0,-1.0,3.0,3.0,0.0,1.0,0.0,0.0,1650847583056910.0
-1.0,-4.0,-5.0,-4.0,-2.0,-1.0,-1.0,1.0,1650847583071891.0
0.0,0.0,1.0,-1.0,0.0,1.0,-1.0,0.0,1650847583071891.0
3.0,0.0,-3.0,-3.0,0.0,-1.0,-1.0,-1.0,1650847583072821.0
0.0,0.0,-2.0,0.0,-2.0,-3.0,0.0,0.0,1650847583072821.0
0.0,1.0,2.0,0.0,1.0,-1.0,-2.0,0.0,1650847583094800.0
-3.0,-3.0,-2.0,0.0,1.0,0.0,0.0,-1.0,1650847583094800.0
-2.0,-5.0,2.0,0.0,0.0,-1.0,-1.0,0.0,1650847583095732.0
0.0,0.0,0.0,1.0,-1.0,0.0,-3.0,0.0,1650847583095732.0
-1.0,-2.0,-4.0,-1.0,-1.0,-2.0,-1.0,-1.0,1650847583108763.0
0.0,0.0,0.0,-1.0,-2.0,-2.0,-2.0,0.0,1650847583108763.0
-2.0,-1.0,-2.0,-4.0,-2.0,-2.0,-1.0,-1.0,1650847583116742.0
0.0,2.0,5.0,4.0,1.0,2.0,-2.0,-2.0,1650847583116742.0
0.0,1.0,-3.0,0.0,1.0,1.0,-1.0,2.0,1650847583131702.0
0.0,-1.0,-1.0,2.0,0.0,0.0,0.0,-1.0,1650847583131702.0
-1.0,-4.0,-1.0,2.0,-1.0,3.0,0.0,-2.0,1650847583132633.0
0.0,-1.0,-2.0,-3.0,-1.0,-2.0,1.0,-1.0,1650847583132633.0
-1.0,1.0,2.0,-2.0,-2.0,-1.0,0.0,-1.0,1650847583154640.0
-1.0,-4.0,-5.0,-2.0,2.0,0.0,-1.0,-1.0,1650847583154640.0
0.0,-1.0,0.0,0.0,-1.0,0.0,1.0,0.0,1650847583155572.0
-1.0,-1.0,-6.0,-5.0,-5.0,-2.0,1.0,0.0,1650847583155572.0
-2.0,-3.0,-1.0,1.0,1.0,0.0,-2.0,1.0,1650847583169233.0
1.0,2.0,4.0,1.0,0.0,-1.0,0.0,0.0,1650847583169233.0
-2.0,-1.0,-3.0,1.0,3.0,1.0,-2.0,0.0,1650847583177520.0
-2.0,-5.0,-2.0,0.0,1.0,0.0,0.0,-2.0,1650847583177520.0
1.0,4.0,0.0,-1.0,-4.0,-1.0,0.0,-1.0,1650847583192481.0
-2.0,-5.0,0.0,-1.0,-2.0,-1.0,-3.0,-2.0,1650847583192481.0
-1.0,1.0,0.0,0.0,-1.0,-1.0,-1.0,1.0,1650847583192481.0
1.0,3.0,2.0,1.0,1.0,0.0,-1.0,-1.0,1650847583192481.0
1.0,0.0,0.0,1.0,1.0,1.0,0.0,-1.0,1650847583214531.0
-1.0,2.0,0.0,-1.0,-1.0,0.0,0.0,-1.0,1650847583214531.0
0.0,3.0,3.0,1.0,-1.0,-1.0,-1.0,-2.0,1650847583215502.0
-1.0,-5.0,0.0,-1.0,-1.0,0.0,-1.0,1.0,1650847583215502.0
0.0,1.0,0.0,-1.0,-1.0,-1.0,0.0,-1.0,1650847583228533.0
1.0,-1.0,-4.0,-2.0,1.0,0.0,0.0,-2.0,1650847583228533.0
-3.0,-4.0,-3.0,0.0,-2.0,-3.0,-1.0,-2.0,1650847583237498.0
2.0,0.0,1.0,-3.0,0.0,-1.0,-2.0,0.0,1650847583237498.0
-1.0,-2.0,-3.0,0.0,-1.0,-1.0,-1.0,-1.0,1650847583251948.0
0.0,3.0,1.0,0.0,-2.0,-2.0,0.0,-2.0,1650847583251948.0
2.0,2.0,-3.0,0.0,2.0,0.0,1.0,-1.0,1650847583252971.0
-1.0,1.0,2.0,2.0,2.0,1.0,1.0,0.0,1650847583252971.0
0.0,-1.0,-1.0,0.0,-4.0,-2.0,0.0,1.0,1650847583274907.0
0.0,0.0,1.0,2.0,0.0,1.0,-2.0,1.0,1650847583274907.0
0.0,0.0,-1.0,1.0,0.0,1.0,1.0,-1.0,1650847583274907.0
0.0,-1.0,-2.0,-5.0,-2.0,-2.0,-1.0,1.0,1650847583274907.0
0.0,-5.0,2.0,2.0,-1.0,-1.0,0.0,-1.0,1650847583297474.0
-2.0,0.0,-1.0,-2.0,-1.0,-2.0,-1.0,-1.0,1650847583297474.0
2.0,1.0,4.0,0.0,-3.0,0.0,-2.0,1.0,1650847583298406.0
2.0,0.0,-2.0,-1.0,-2.0,-2.0,-1.0,-3.0,1650847583298406.0
0.0,-4.0,-4.0,-2.0,3.0,1.0,0.0,0.0,1650847583312435.0
1.0,0.0,0.0,0.0,1.0,1.0,0.0,-1.0,1650847583312435.0
-3.0,-3.0,-3.0,-1.0,1.0,0.0,-1.0,-1.0,1650847583312435.0
1.0,4.0,2.0,0.0,-1.0,-1.0,-1.0,0.0,1650847583312435.0
-2.0,0.0,0.0,0.0,-1.0,-2.0,-2.0,0.0,1650847583334375.0
1.0,0.0,1.0,0.0,-1.0,0.0,0.0,-1.0,1650847583334375.0
0.0,-3.0,0.0,-1.0,-3.0,-2.0,-2.0,-1.0,1650847583335306.0
1.0,2.0,1.0,-1.0,-1.0,0.0,1.0,-1.0,1650847583335306.0
2.0,1.0,-1.0,-1.0,0.0,-1.0,0.0,-1.0,1650847583357446.0
-1.0,-2.0,-1.0,0.0,1.0,-1.0,0.0,0.0,1650847583357446.0
-2.0,2.0,0.0,-1.0,0.0,-2.0,0.0,0.0,1650847583358409.0
-3.0,1.0,3.0,5.0,3.0,0.0,0.0,-1.0,1650847583358409.0
1.0,-1.0,-2.0,-2.0,-2.0,0.0,-1.0,-2.0,1650847583372501.0
-2.0,0.0,1.0,-1.0,0.0,-2.0,0.0,0.0,1650847583372501.0
1.0,-2.0,-1.0,-3.0,-3.0,-1.0,-1.0,-1.0,1650847583372501.0
-3.0,-5.0,-6.0,-3.0,-2.0,-2.0,-4.0,-1.0,1650847583372501.0
0.0,2.0,4.0,3.0,2.0,-1.0,-1.0,2.0,1650847583394462.0
0.0,-1.0,-1.0,-2.0,0.0,1.0,0.0,1.0,1650847583394462.0
1.0,0.0,-3.0,-3.0,-1.0,-1.0,1.0,1.0,1650847583395394.0
-1.0,0.0,-3.0,-1.0,-1.0,-2.0,1.0,1.0,1650847583395394.0
-1.0,2.0,2.0,5.0,5.0,1.0,1.0,1.0,1650847583417450.0
-2.0,0.0,3.0,3.0,-1.0,-3.0,-2.0,-2.0,1650847583417450.0
1.0,2.0,-2.0,-1.0,0.0,1.0,-2.0,-2.0,1650847583418425.0
1.0,1.0,-1.0,-2.0,-2.0,0.0,-2.0,0.0,1650847583418425.0
-4.0,-1.0,-4.0,-4.0,-4.0,-1.0,-1.0,0.0,1650847583432443.0
-1.0,-1.0,0.0,0.0,-1.0,-1.0,0.0,-1.0,1650847583432443.0
-2.0,0.0,-1.0,0.0,0.0,-2.0,0.0,1.0,1650847583432443.0
-2.0,-1.0,1.0,1.0,2.0,1.0,-2.0,1.0,1650847583432443.0
-1.0,0.0,-3.0,-3.0,-2.0,-1.0,1.0,-1.0,1650847583454388.0
-1.0,-5.0,-3.0,-1.0,-1.0,-4.0,0.0,-1.0,1650847583454388.0
-1.0,-1.0,-1.0,-1.0,-2.0,0.0,-1.0,0.0,1650847583455396.0
2.0,0.0,1.0,1.0,0.0,0.0,-1.0,0.0,1650847583455396.0
-2.0,-4.0,-2.0,-3.0,-2.0,-2.0,1.0,-1.0,1650847583478205.0
0.0,3.0,0.0,-2.0,-2.0,-1.0,-1.0,0.0,1650847583478205.0
-1.0,3.0,2.0,1.0,2.0,2.0,3.0,-2.0,1650847583478205.0
-3.0,-3.0,3.0,2.0,2.0,0.0,-1.0,-2.0,1650847583478205.0
3.0,2.0,0.0,-1.0,-1.0,-1.0,-2.0,-2.0,1650847583492237.0
0.0,-2.0,-2.0,-3.0,-2.0,0.0,-2.0,0.0,1650847583492237.0
-1.0,0.0,-3.0,-2.0,-1.0,-1.0,0.0,1.0,1650847583493175.0
0.0,-1.0,-1.0,-2.0,-1.0,-1.0,1.0,-1.0,1650847583493175.0
0.0,-1.0,0.0,-3.0,-2.0,-1.0,-1.0,0.0,1650847583514177.0
0.0,-1.0,-1.0,-1.0,-1.0,0.0,0.0,0.0,1650847583514177.0
-1.0,-7.0,0.0,0.0,0.0,-2.0,0.0,-1.0,1650847583515111.0
-1.0,-1.0,0.0,1.0,2.0,-1.0,-1.0,-1.0,1650847583515111.0
0.0,1.0,1.0,1.0,-1.0,2.0,-1.0,0.0,1650847583538229.0
2.0,3.0,-2.0,-1.0,0.0,0.0,0.0,1.0,1650847583538229.0
0.0,-4.0,-1.0,1.0,-2.0,-3.0,-3.0,-1.0,1650847583538229.0
-1.0,-2.0,-4.0,-5.0,-2.0,1.0,2.0,1.0,1650847583538229.0
-1.0,0.0,2.0,-1.0,-3.0,1.0,1.0,1.0,1650847583552374.0
-2.0,-1.0,-2.0,-1.0,2.0,1.0,-3.0,0.0,1650847583552374.0
-1.0,0.0,-1.0,-4.0,-2.0,-2.0,-2.0,0.0,1650847583552374.0
-2.0,0.0,-2.0,0.0,-1.0,-2.0,-1.0,-2.0,1650847583552374.0
-2.0,-2.0,0.0,2.0,2.0,1.0,-1.0,-1.0,1650847583574320.0
1.0,1.0,2.0,0.0,1.0,1.0,0.0,0.0,1650847583574320.0
0.0,2.0,-1.0,0.0,-4.0,-2.0,-1.0,0.0,1650847583575255.0
-2.0,-3.0,-4.0,-3.0,-4.0,0.0,-1.0,-1.0,1650847583575255.0
1.0,2.0,0.0,-1.0,0.0,-1.0,2.0,-3.0,1650847583597329.0
0.0,-2.0,2.0,4.0,2.0,-3.0,1.0,-1.0,1650847583597329.0
0.0,-3.0,0.0,-1.0,0.0,-1.0,1.0,0.0,1650847583598265.0
2.0,2.0,2.0,-1.0,-2.0,0.0,-2.0,-1.0,1650847583598265.0
-4.0,-4.0,-2.0,-1.0,0.0,-1.0,-2.0,-1.0,1650847583620758.0
-1.0,-2.0,0.0,0.0,-3.0,1.0,0.0,-1.0,1650847583620758.0
-1.0,-7.0,-2.0,-1.0,1.0,0.0,-2.0,-2.0,1650847583620758.0
3.0,11.0,3.0,-1.0,1.0,1.0,2.0,2.0,1650847583620758.0
7.0,-3.0,-3.0,-1.0,0.0,1.0,3.0,2.0,1650847583634327.0
-3.0,1.0,1.0,-1.0,0.0,-1.0,-1.0,-1.0,1650847583634327.0
1.0,3.0,1.0,2.0,0.0,1.0,0.0,-2.0,1650847583635261.0
-2.0,-5.0,-3.0,-1.0,-2.0,-1.0,-1.0,-2.0,1650847583635261.0
0.0,3.0,0.0,-2.0,-1.0,-2.0,-3.0,0.0,1650847583657719.0
0.0,-1.0,-4.0,-4.0,-4.0,-3.0,1.0,-1.0,1650847583657719.0
-2.0,1.0,-1.0,-1.0,1.0,2.0,-1.0,-1.0,1650847583658650.0
0.0,-1.0,1.0,3.0,2.0,1.0,-1.0,-1.0,1650847583658650.0
-2.0,1.0,1.0,-1.0,-1.0,0.0,-1.0,1.0,1650847583671802.0
0.0,-4.0,0.0,1.0,-1.0,1.0,0.0,0.0,1650847583671802.0
3.0,5.0,1.0,-3.0,-3.0,-3.0,0.0,-1.0,1650847583672744.0
1.0,-1.0,-1.0,0.0,1.0,0.0,3.0,3.0,1650847583672744.0
-4.0,0.0,-2.0,-3.0,-1.0,-2.0,-3.0,-2.0,1650847583694498.0
-5.0,-4.0,-1.0,-1.0,0.0,1.0,-2.0,-2.0,1650847583694498.0
1.0,-1.0,-1.0,1.0,1.0,1.0,1.0,1.0,1650847583695429.0
0.0,3.0,1.0,-1.0,0.0,-1.0,0.0,-2.0,1650847583695429.0
0.0,-3.0,-1.0,2.0,1.0,1.0,-2.0,-2.0,1650847583718177.0
-1.0,4.0,0.0,-2.0,-3.0,-1.0,0.0,-1.0,1650847583718177.0
0.0,2.0,3.0,1.0,0.0,-1.0,-2.0,-1.0,1650847583718177.0
-1.0,-4.0,-7.0,-4.0,-4.0,-4.0,0.0,-1.0,1650847583718177.0
-2.0,-1.0,-1.0,0.0,1.0,-1.0,0.0,-2.0,1650847583732209.0
2.0,-1.0,-2.0,1.0,2.0,0.0,-1.0,0.0,1650847583732209.0
0.0,-1.0,0.0,-2.0,-3.0,-3.0,-1.0,0.0,1650847583733173.0
-3.0,-2.0,1.0,2.0,-2.0,0.0,-2.0,-2.0,1650847583733173.0
1.0,2.0,2.0,3.0,2.0,1.0,1.0,0.0,1650847583754092.0
2.0,1.0,-4.0,-3.0,-3.0,-6.0,0.0,0.0,1650847583754092.0
-1.0,0.0,1.0,-2.0,-1.0,-1.0,-3.0,0.0,1650847583755088.0
1.0,0.0,-1.0,-1.0,0.0,1.0,0.0,0.0,1650847583755088.0
-2.0,-2.0,-1.0,-1.0,0.0,1.0,1.0,3.0,1650847583778195.0
2.0,-2.0,0.0,1.0,-2.0,-2.0,4.0,3.0,1650847583778195.0
-3.0,0.0,-1.0,0.0,-1.0,1.0,2.0,-3.0,1650847583778195.0
0.0,3.0,0.0,-1.0,-1.0,-2.0,-2.0,-2.0,1650847583778195.0
2.0,0.0,0.0,-4.0,-1.0,-1.0,1.0,-1.0,1650847583792258.0
-2.0,-3.0,0.0,3.0,0.0,-1.0,-1.0,-1.0,1650847583792258.0
1.0,5.0,-1.0,-5.0,-3.0,-2.0,1.0,-2.0,1650847583793259.0
0.0,-5.0,0.0,1.0,2.0,2.0,2.0,-1.0,1650847583793259.0
0.0,-2.0,-1.0,-3.0,-5.0,-3.0,-1.0,1.0,1650847583823158.0
0.0,1.0,1.0,0.0,1.0,1.0,-2.0,-1.0,1650847583823158.0
0.0,0.0,0.0,1.0,0.0,0.0,1.0,0.0,1650847583823773.0
-3.0,0.0,-1.0,0.0,1.0,-1.0,1.0,-1.0,1650847583823773.0
-1.0,1.0,-1.0,0.0,0.0,-2.0,-2.0,-1.0,1650847583838232.0
-1.0,-2.0,-2.0,-1.0,-2.0,0.0,-7.0,-3.0,1650847583838232.0
-6.0,-5.0,-2.0,4.0,2.0,2.0,3.0,1.0,1650847583838232.0
5.0,6.0,0.0,-5.0,-2.0,-2.0,0.0,2.0,1650847583838232.0
-7.0,-7.0,-4.0,-1.0,0.0,-5.0,0.0,-4.0,1650847583851265.0
2.0,2.0,0.0,0.0,1.0,2.0,1.0,0.0,1650847583851265.0
0.0,0.0,0.0,1.0,1.0,0.0,-6.0,0.0,1650847583859244.0
0.0,-6.0,-2.0,0.0,0.0,0.0,0.0,-1.0,1650847583859244.0
0.0,-2.0,2.0,4.0,3.0,4.0,2.0,-2.0,1650847583874255.0
5.0,18.0,2.0,-6.0,-4.0,-7.0,-1.0,-1.0,1650847583874255.0
-3.0,-10.0,-6.0,1.0,-1.0,1.0,-3.0,-1.0,1650847583875185.0
-4.0,-3.0,-6.0,-5.0,-1.0,-4.0,0.0,0.0,1650847583875185.0
0.0,-3.0,0.0,0.0,-1.0,0.0,-2.0,2.0,1650847583897351.0
-1.0,-2.0,1.0,1.0,1.0,1.0,1.0,1.0,1650847583897351.0
0.0,0.0,3.0,1.0,0.0,0.0,-1.0,1.0,1650847583898305.0
-2.0,1.0,2.0,0.0,-2.0,-6.0,-7.0,-1.0,1650847583898305.0
-5.0,-5.0,-6.0,0.0,2.0,1.0,1.0,-2.0,1650847583911359.0
2.0,0.0,2.0,0.0,3.0,10.0,8.0,0.0,1650847583911359.0
7.0,3.0,-1.0,-7.0,-5.0,-12.0,-3.0,5.0,1650847583919404.0
-3.0,-3.0,-2.0,0.0,-5.0,-5.0,-11.0,-4.0,1650847583919404.0
-2.0,2.0,2.0,1.0,-1.0,-4.0,-3.0,-4.0,1650847583934364.0
-2.0,1.0,-1.0,-3.0,0.0,4.0,-4.0,-12.0,1650847583934364.0
-4.0,-5.0,1.0,5.0,5.0,3.0,7.0,-2.0,1650847583935295.0
10.0,5.0,-2.0,-5.0,-6.0,-2.0,15.0,22.0,1650847583935295.0
0.0,3.0,2.0,1.0,2.0,1.0,0.0,-6.0,1650847583965281.0
-8.0,-7.0,-1.0,-1.0,-1.0,-5.0,-5.0,-15.0,1650847583965281.0
1.0,3.0,0.0,-1.0,0.0,-2.0,-9.0,-4.0,1650847583966213.0
-6.0,-12.0,-5.0,-3.0,-2.0,-2.0,-10.0,-9.0,1650847583966213.0
2.0,3.0,-2.0,-4.0,-2.0,0.0,4.0,8.0,1650847583971200.0
2.0,-1.0,0.0,3.0,2.0,2.0,1.0,7.0,1650847583971200.0
-1.0,2.0,1.0,-2.0,-1.0,0.0,-4.0,-3.0,1650847583979245.0
-3.0,-4.0,-1.0,3.0,3.0,2.0,5.0,0.0,1650847583979245.0
3.0,-9.0,-4.0,-3.0,-1.0,-1.0,-2.0,0.0,1650847583994204.0
1.0,21.0,4.0,0.0,-2.0,-5.0,-2.0,1.0,1650847583994204.0
-2.0,-7.0,0.0,-1.0,-2.0,-11.0,1.0,-1.0,1650847583995136.0
0.0,6.0,6.0,5.0,5.0,16.0,5.0,0.0,1650847583995136.0
3.0,1.0,0.0,-3.0,-4.0,-8.0,1.0,3.0,1650847584018140.0
-1.0,-7.0,-2.0,0.0,-3.0,-7.0,-5.0,1.0,1650847584018140.0
2.0,2.0,-4.0,-7.0,-2.0,1.0,0.0,1.0,1650847584018140.0
-4.0,-1.0,2.0,4.0,3.0,-1.0,-4.0,-16.0,1650847584018140.0
-7.0,6.0,4.0,1.0,2.0,4.0,11.0,2.0,1650847584031177.0
-1.0,-10.0,-4.0,-2.0,-1.0,0.0,2.0,4.0,1650847584031177.0
-3.0,-4.0,1.0,4.0,2.0,1.0,-2.0,0.0,1650847584040086.0
3.0,0.0,1.0,-1.0,1.0,1.0,-5.0,-2.0,1650847584040086.0
2.0,2.0,-2.0,-2.0,-1.0,-1.0,-3.0,-2.0,1650847584054157.0
0.0,-4.0,-3.0,-2.0,-3.0,-5.0,-1.0,2.0,1650847584054157.0
1.0,0.0,-1.0,0.0,1.0,6.0,2.0,1.0,1650847584055154.0
-3.0,-4.0,-3.0,1.0,-1.0,-3.0,-2.0,-1.0,1650847584055154.0
-1.0,-1.0,0.0,2.0,-1.0,-1.0,-1.0,0.0,1650847584077836.0
-1.0,4.0,0.0,-4.0,-3.0,-2.0,0.0,1.0,1650847584077836.0
0.0,0.0,0.0,-2.0,-1.0,-4.0,-5.0,-4.0,1650847584078833.0
-1.0,4.0,1.0,0.0,0.0,3.0,7.0,3.0,1650847584078833.0
1.0,0.0,1.0,-3.0,-2.0,-4.0,-5.0,-2.0,1650847584091832.0
-1.0,-4.0,-1.0,1.0,2.0,9.0,2.0,0.0,1650847584091832.0
1.0,8.0,0.0,1.0,-1.0,-3.0,0.0,0.0,1650847584099776.0
-1.0,-2.0,-1.0,0.0,0.0,-1.0,2.0,1.0,1650847584099776.0
0.0,-3.0,1.0,1.0,-2.0,-5.0,-6.0,-1.0,1650847584114803.0
-1.0,2.0,-3.0,-6.0,-4.0,-3.0,-2.0,-1.0,1650847584114803.0
1.0,1.0,0.0,0.0,2.0,0.0,-3.0,2.0,1650847584115734.0
-2.0,-5.0,0.0,-2.0,-2.0,0.0,5.0,1.0,1650847584115734.0
-3.0,-1.0,-1.0,3.0,2.0,0.0,-6.0,-5.0,1650847584137869.0
-2.0,-3.0,-1.0,2.0,3.0,0.0,3.0,2.0,1650847584137869.0
3.0,2.0,-1.0,-3.0,-4.0,-3.0,1.0,0.0,1650847584138896.0
-3.0,1.0,2.0,0.0,1.0,1.0,1.0,-6.0,1650847584138896.0
4.0,1.0,1.0,0.0,-1.0,1.0,-5.0,3.0,1650847584151857.0
-1.0,-2.0,1.0,1.0,-2.0,-9.0,-7.0,1.0,1650847584151857.0
-2.0,0.0,-2.0,-1.0,0.0,6.0,2.0,-3.0,1650847584159804.0
4.0,4.0,4.0,-1.0,1.0,6.0,12.0,5.0,1650847584159804.0
-4.0,-12.0,-21.0,-5.0,3.0,-2.0,2.0,-4.0,1650847584174902.0
0.0,3.0,2.0,-2.0,-1.0,-4.0,3.0,2.0,1650847584174902.0
1.0,-6.0,1.0,0.0,-1.0,1.0,-8.0,-1.0,1650847584174902.0
1.0,3.0,6.0,1.0,-3.0,-4.0,-3.0,3.0,1650847584174902.0
1.0,4.0,-1.0,-4.0,2.0,3.0,2.0,2.0,1650847584197837.0
-2.0,-6.0,1.0,3.0,-1.0,2.0,0.0,-3.0,1650847584197837.0
0.0,-1.0,6.0,-1.0,-4.0,-3.0,5.0,1.0,1650847584198772.0
-5.0,-10.0,-26.0,-1.0,4.0,-5.0,-9.0,-5.0,1650847584198772.0
1.0,4.0,6.0,-3.0,-4.0,1.0,0.0,7.0,1650847584220091.0
-3.0,2.0,10.0,-5.0,-5.0,3.0,-2.0,-15.0,1650847584220091.0
-7.0,-13.0,-22.0,0.0,-3.0,-4.0,3.0,2.0,1650847584221024.0
5.0,3.0,6.0,-5.0,-9.0,-1.0,-6.0,-1.0,1650847584221024.0
0.0,-1.0,1.0,4.0,6.0,4.0,3.0,-2.0,1650847584235070.0
-1.0,-6.0,-5.0,-1.0,-1.0,-2.0,1.0,5.0,1650847584235070.0
6.0,3.0,15.0,11.0,5.0,8.0,1.0,1.0,1650847584235070.0
-9.0,-3.0,-10.0,-7.0,-5.0,-13.0,2.0,-8.0,1650847584235070.0
6.0,-9.0,4.0,-7.0,-5.0,-1.0,-3.0,1.0,1650847584257925.0
-1.0,10.0,25.0,8.0,0.0,-1.0,-7.0,-17.0,1650847584257925.0
12.0,-1.0,-30.0,-7.0,0.0,-4.0,0.0,26.0,1650847584258857.0
-9.0,2.0,-4.0,1.0,1.0,-2.0,1.0,28.0,1650847584258857.0
-5.0,0.0,-1.0,-6.0,-6.0,-6.0,-13.0,-50.0,1650847584279955.0
0.0,-9.0,4.0,1.0,3.0,-2.0,-5.0,-6.0,1650847584279955.0
6.0,9.0,3.0,-2.0,-6.0,2.0,5.0,-3.0,1650847584280952.0
8.0,-2.0,12.0,3.0,10.0,5.0,3.0,8.0,1650847584280952.0
-3.0,7.0,-3.0,7.0,2.0,-3.0,1.0,5.0,1650847584294917.0
2.0,-4.0,-7.0,-3.0,5.0,16.0,12.0,17.0,1650847584294917.0
-5.0,4.0,0.0,-12.0,-7.0,-5.0,-2.0,-11.0,1650847584294917.0
5.0,3.0,16.0,5.0,3.0,1.0,0.0,-12.0,1650847584294917.0
-9.0,-5.0,-12.0,2.0,1.0,1.0,3.0,6.0,1650847584318004.0
2.0,0.0,-16.0,1.0,1.0,-1.0,2.0,2.0,1650847584318004.0
-3.0,2.0,10.0,5.0,4.0,2.0,2.0,7.0,1650847584318940.0
3.0,7.0,-15.0,-14.0,-6.0,-3.0,-4.0,-7.0,1650847584318940.0
0.0,-6.0,5.0,0.0,-3.0,-1.0,-5.0,1.0,1650847584348091.0
-6.0,-14.0,-3.0,1.0,0.0,-1.0,6.0,6.0,1650847584348091.0
-3.0,4.0,23.0,6.0,0.0,2.0,1.0,-8.0,1650847584348091.0
5.0,7.0,-9.0,-16.0,-8.0,-5.0,-6.0,1.0,1650847584348091.0
1.0,2.0,-36.0,-2.0,-1.0,0.0,4.0,5.0,1650847584354077.0
4.0,2.0,19.0,2.0,-2.0,-4.0,-2.0,1.0,1650847584354077.0
-4.0,-10.0,-9.0,-1.0,-1.0,-1.0,0.0,-8.0,1650847584355079.0
7.0,10.0,11.0,12.0,6.0,9.0,7.0,7.0,1650847584355079.0
-4.0,9.0,14.0,-2.0,-4.0,-2.0,2.0,-4.0,1650847584378136.0
-15.0,-7.0,11.0,0.0,-5.0,-3.0,-1.0,3.0,1650847584378136.0
1.0,-8.0,-3.0,0.0,2.0,-1.0,-9.0,-9.0,1650847584378911.0
-3.0,2.0,4.0,9.0,-2.0,-7.0,-6.0,-1.0,1650847584378911.0
4.0,1.0,0.0,-3.0,-2.0,-5.0,-3.0,5.0,1650847584399822.0
-1.0,-8.0,1.0,5.0,1.0,1.0,-2.0,-4.0,1650847584399822.0
-4.0,-1.0,12.0,3.0,4.0,4.0,11.0,3.0,1650847584400829.0
1.0,1.0,-5.0,-6.0,-6.0,-3.0,-5.0,-2.0,1650847584400829.0
12.0,4.0,-12.0,-4.0,-3.0,-3.0,0.0,1.0,1650847584414853.0
8.0,1.0,-3.0,-2.0,0.0,-4.0,-6.0,-4.0,1650847584414853.0
-5.0,-7.0,-12.0,-6.0,-5.0,-4.0,-2.0,-2.0,1650847584415784.0
-5.0,-13.0,1.0,6.0,2.0,4.0,-1.0,-7.0,1650847584415784.0
5.0,11.0,19.0,0.0,4.0,5.0,0.0,3.0,1650847584437513.0
0.0,8.0,-14.0,-5.0,-2.0,-5.0,1.0,10.0,1650847584437513.0
11.0,3.0,-2.0,-2.0,1.0,6.0,7.0,-1.0,1650847584438513.0
-4.0,-7.0,11.0,8.0,2.0,-1.0,0.0,3.0,1650847584438513.0
-15.0,-13.0,3.0,2.0,-4.0,-2.0,-3.0,-2.0,1650847584460643.0
4.0,8.0,21.0,7.0,2.0,0.0,1.0,-6.0,1650847584460643.0
-1.0,-3.0,-26.0,-9.0,-1.0,-3.0,-3.0,4.0,1650847584460643.0
-3.0,-6.0,0.0,0.0,-1.0,-3.0,-3.0,-9.0,1650847584460643.0
4.0,-5.0,-7.0,-1.0,3.0,5.0,1.0,5.0,1650847584474668.0
1.0,1.0,-3.0,-1.0,0.0,-3.0,-4.0,-1.0,1650847584474668.0
-6.0,2.0,16.0,0.0,-4.0,-2.0,-2.0,-2.0,1650847584475623.0
-3.0,-11.0,4.0,1.0,0.0,2.0,2.0,-5.0,1650847584475623.0
-1.0,-1.0,13.0,6.0,-1.0,1.0,0.0,2.0,1650847584497428.0
1.0,2.0,-5.0,-6.0,-4.0,8.0,8.0,6.0,1650847584497428.0
-3.0,-6.0,-21.0,2.0,5.0,3.0,5.0,-3.0,1650847584498426.0
-1.0,-8.0,-14.0,-3.0,0.0,-4.0,-2.0,1.0,1650847584498426.0
1.0,13.0,24.0,-1.0,-6.0,-10.0,-6.0,-2.0,1650847584520433.0
-5.0,-6.0,-43.0,-12.0,-3.0,-2.0,-6.0,-5.0,1650847584520433.0
-8.0,0.0,28.0,8.0,1.0,-1.0,-6.0,-3.0,1650847584521365.0
17.0,3.0,-34.0,-12.0,-5.0,-1.0,1.0,5.0,1650847584521365.0
-4.0,-1.0,16.0,11.0,6.0,6.0,11.0,-1.0,1650847584534396.0
10.0,3.0,-6.0,-5.0,-5.0,-10.0,-6.0,12.0,1650847584534396.0
4.0,2.0,1.0,-4.0,-2.0,3.0,0.0,-2.0,1650847584535327.0
-8.0,-2.0,11.0,2.0,0.0,-3.0,-4.0,-2.0,1650847584535327.0
-2.0,-7.0,13.0,6.0,1.0,-1.0,-1.0,-2.0,1650847584557536.0
8.0,10.0,-2.0,0.0,0.0,-1.0,-1.0,-3.0,1650847584557536.0
-7.0,-16.0,-18.0,1.0,-2.0,-10.0,-12.0,-4.0,1650847584558477.0
5.0,14.0,18.0,-2.0,-3.0,-4.0,-1.0,-2.0,1650847584558477.0
-6.0,-13.0,-7.0,-5.0,-2.0,7.0,7.0,5.0,1650847584579894.0
-4.0,-6.0,-11.0,2.0,3.0,3.0,3.0,-1.0,1650847584579894.0
5.0,7.0,6.0,-6.0,-4.0,-7.0,-2.0,3.0,1650847584580841.0
-11.0,-10.0,-6.0,3.0,4.0,3.0,1.0,-4.0,1650847584580841.0
5.0,4.0,-18.0,-5.0,-3.0,-3.0,0.0,-2.0,1650847584594594.0
2.0,3.0,29.0,9.0,2.0,1.0,0.0,0.0,1650847584594594.0
-1.0,4.0,-5.0,0.0,0.0,3.0,3.0,-2.0,1650847584595585.0
-3.0,-4.0,-11.0,-1.0,-3.0,-3.0,-1.0,0.0,1650847584595585.0
0.0,4.0,12.0,-9.0,-5.0,-5.0,-1.0,5.0,1650847584618200.0
-2.0,-3.0,-17.0,0.0,0.0,1.0,0.0,-3.0,1650847584618200.0
1.0,3.0,0.0,-5.0,-6.0,-2.0,1.0,2.0,1650847584618200.0
2.0,4.0,12.0,5.0,2.0,8.0,10.0,1.0,1650847584618200.0
-2.0,8.0,5.0,4.0,4.0,4.0,4.0,0.0,1650847584640410.0
2.0,-1.0,-16.0,-3.0,0.0,-8.0,-5.0,2.0,1650847584640410.0
-16.0,-6.0,-6.0,0.0,-1.0,-5.0,-5.0,-19.0,1650847584641367.0
11.0,5.0,-2.0,-3.0,0.0,1.0,-3.0,1.0,1650847584641367.0
-4.0,0.0,9.0,4.0,0.0,6.0,-1.0,-7.0,1650847584654332.0
-6.0,0.0,7.0,0.0,0.0,-2.0,0.0,-2.0,1650847584654332.0
5.0,-1.0,10.0,11.0,8.0,3.0,3.0,1.0,1650847584655311.0
-12.0,-1.0,-29.0,-11.0,-3.0,-2.0,-2.0,0.0,1650847584655311.0
0.0,1.0,5.0,-2.0,-2.0,-2.0,1.0,4.0,1650847584678166.0
-1.0,-6.0,-11.0,-2.0,2.0,4.0,1.0,-3.0,1650847584678166.0
-3.0,-7.0,-27.0,-6.0,-5.0,-2.0,0.0,5.0,1650847584678881.0
14.0,16.0,28.0,5.0,0.0,1.0,0.0,-4.0,1650847584678881.0
-1.0,-11.0,-15.0,-4.0,-3.0,-5.0,-3.0,3.0,1650847584700678.0
-3.0,-6.0,1.0,-1.0,-2.0,2.0,1.0,0.0,1650847584700678.0
1.0,10.0,26.0,3.0,1.0,0.0,2.0,1.0,1650847584700678.0
0.0,-7.0,-6.0,0.0,-3.0,-2.0,-3.0,1.0,1650847584700678.0
7.0,6.0,9.0,3.0,-2.0,-4.0,-1.0,0.0,1650847584714829.0
4.0,1.0,-19.0,-6.0,-3.0,3.0,3.0,-1.0,1650847584714829.0
-4.0,-15.0,-2.0,0.0,4.0,1.0,-1.0,2.0,1650847584715761.0
0.0,6.0,-7.0,-2.0,-4.0,-6.0,-5.0,-4.0,1650847584715761.0
-5.0,-5.0,24.0,5.0,3.0,8.0,7.0,-1.0,1650847584737768.0
-4.0,-4.0,-11.0,-3.0,-2.0,0.0,1.0,0.0,1650847584737768.0
3.0,2.0,-25.0,-6.0,-2.0,-2.0,-2.0,-2.0,1650847584738700.0
-3.0,-5.0,-9.0,-1.0,-1.0,0.0,-5.0,1.0,1650847584738700.0
6.0,10.0,-2.0,-1.0,-2.0,-2.0,0.0,-1.0,1650847584759858.0
-5.0,-4.0,8.0,2.0,6.0,6.0,2.0,1.0,1650847584759858.0
-6.0,-11.0,6.0,-3.0,-4.0,-4.0,-3.0,1.0,1650847584760787.0
4.0,-3.0,4.0,2.0,1.0,1.0,-3.0,-4.0,1650847584760787.0
-1.0,-1.0,-20.0,-1.0,-2.0,-5.0,-7.0,-7.0,1650847584773837.0
10.0,1.0,9.0,2.0,0.0,1.0,6.0,7.0,1650847584773837.0
-27.0,-9.0,6.0,2.0,1.0,-2.0,-3.0,-4.0,1650847584781884.0
-1.0,3.0,13.0,1.0,1.0,2.0,3.0,1.0,1650847584781884.0
5.0,-3.0,-27.0,-4.0,0.0,0.0,-1.0,-2.0,1650847584798160.0
-1.0,3.0,6.0,-4.0,-5.0,-5.0,-6.0,-3.0,1650847584798160.0
11.0,9.0,4.0,-3.0,-1.0,3.0,3.0,1.0,1650847584798160.0
-4.0,-9.0,8.0,5.0,3.0,1.0,5.0,4.0,1650847584798160.0
-6.0,6.0,-14.0,-10.0,-4.0,-1.0,1.0,1.0,1650847584819839.0
14.0,1.0,2.0,-4.0,-1.0,-3.0,-3.0,1.0,1650847584819839.0
6.0,12.0,20.0,5.0,0.0,0.0,-2.0,-2.0,1650847584820839.0
-5.0,-7.0,-26.0,-6.0,-2.0,-1.0,-4.0,-5.0,1650847584820839.0
7.0,8.0,15.0,10.0,1.0,-6.0,-7.0,2.0,1650847584833870.0
-13.0,-20.0,-42.0,-17.0,-5.0,-3.0,-1.0,-3.0,1650847584833870.0
12.0,15.0,21.0,-1.0,-3.0,1.0,4.0,7.0,1650847584841848.0
-4.0,-9.0,-46.0,-12.0,-3.0,-5.0,2.0,0.0,1650847584841848.0
-3.0,-12.0,0.0,1.0,2.0,2.0,-1.0,4.0,1650847584857806.0
-4.0,5.0,13.0,4.0,0.0,-4.0,-2.0,-4.0,1650847584857806.0
3.0,2.0,2.0,-3.0,-2.0,-1.0,-2.0,1.0,1650847584858737.0
9.0,7.0,7.0,-2.0,-3.0,-4.0,-2.0,-1.0,1650847584858737.0
-7.0,-8.0,-7.0,-1.0,2.0,3.0,-2.0,-4.0,1650847584880706.0
0.0,11.0,15.0,5.0,5.0,0.0,-3.0,-6.0,1650847584880706.0
3.0,-14.0,29.0,4.0,-6.0,-5.0,-5.0,7.0,1650847584880706.0
-5.0,3.0,5.0,4.0,7.0,6.0,3.0,0.0,1650847584880706.0
-2.0,-9.0,-43.0,-11.0,0.0,-1.0,-5.0,-2.0,1650847584893643.0
-2.0,11.0,37.0,14.0,3.0,-4.0,0.0,-5.0,1650847584893643.0
-5.0,-10.0,-55.0,-19.0,-6.0,-5.0,-5.0,0.0,1650847584901688.0
2.0,4.0,36.0,4.0,0.0,0.0,2.0,-2.0,1650847584901688.0
-4.0,0.0,11.0,3.0,0.0,-4.0,-3.0,0.0,1650847584916648.0
1.0,-1.0,-4.0,3.0,1.0,0.0,-3.0,-3.0,1650847584916648.0
5.0,12.0,4.0,3.0,3.0,3.0,8.0,5.0,1650847584924627.0
-14.0,-18.0,-4.0,-1.0,-4.0,2.0,1.0,4.0,1650847584924627.0
14.0,5.0,7.0,-7.0,-3.0,-2.0,0.0,4.0,1650847584940529.0
0.0,0.0,-11.0,3.0,-2.0,-4.0,-2.0,-2.0,1650847584940529.0
4.0,12.0,18.0,0.0,-2.0,0.0,-1.0,0.0,1650847584940529.0
-4.0,-5.0,-27.0,-3.0,2.0,0.0,-1.0,5.0,1650847584940529.0
-10.0,2.0,38.0,10.0,1.0,2.0,-1.0,-7.0,1650847584953841.0
-3.0,-9.0,-36.0,-12.0,-5.0,-3.0,-2.0,0.0,1650847584953841.0
-3.0,-1.0,2.0,3.0,1.0,0.0,1.0,-2.0,1650847584962529.0
7.0,4.0,10.0,0.0,1.0,-3.0,-4.0,-1.0,1650847584962529.0
-7.0,-5.0,-10.0,-1.0,0.0,0.0,-1.0,-4.0,1650847584977629.0
1.0,3.0,16.0,3.0,0.0,4.0,2.0,4.0,1650847584977629.0
-2.0,3.0,-9.0,-1.0,3.0,3.0,1.0,-5.0,1650847584978561.0
1.0,2.0,6.0,4.0,2.0,-3.0,-3.0,-2.0,1650847584978561.0
6.0,-5.0,-1.0,-2.0,-2.0,-4.0,1.0,2.0,1650847584999828.0
-3.0,6.0,28.0,0.0,-4.0,0.0,0.0,1.0,1650847584999828.0
-4.0,-12.0,-51.0,-10.0,2.0,4.0,3.0,0.0,1650847585000840.0
0.0,10.0,27.0,4.0,-4.0,-3.0,0.0,-1.0,1650847585000840.0
0.0,-1.0,-10.0,-4.0,0.0,-2.0,-2.0,2.0,1650847585013860.0
-13.0,-10.0,-3.0,-3.0,0.0,-3.0,-4.0,-7.0,1650847585013860.0
17.0,4.0,-5.0,2.0,0.0,-5.0,-4.0,-2.0,1650847585021839.0
-1.0,-2.0,11.0,1.0,-1.0,7.0,8.0,3.0,1650847585021839.0
6.0,-3.0,-14.0,-1.0,-1.0,-3.0,-2.0,-4.0,1650847585038197.0
-4.0,1.0,-10.0,-6.0,-3.0,3.0,4.0,6.0,1650847585038197.0
-10.0,-2.0,44.0,17.0,2.0,-4.0,-6.0,-12.0,1650847585038197.0
8.0,-5.0,-46.0,-13.0,-3.0,-4.0,-8.0,-6.0,1650847585038197.0
-3.0,-7.0,4.0,5.0,4.0,5.0,5.0,6.0,1650847585059896.0
13.0,14.0,11.0,2.0,1.0,-1.0,-4.0,0.0,1650847585059896.0
-10.0,-10.0,-8.0,-3.0,-5.0,3.0,2.0,2.0,1650847585060839.0
-9.0,-2.0,14.0,2.0,-1.0,-3.0,1.0,-2.0,1650847585060839.0
2.0,5.0,-1.0,-1.0,1.0,-2.0,-1.0,1.0,1650847585073977.0
4.0,-2.0,-8.0,-4.0,-1.0,0.0,0.0,1.0,1650847585073977.0
3.0,10.0,10.0,-1.0,0.0,1.0,0.0,0.0,1650847585081953.0
-4.0,1.0,2.0,1.0,3.0,0.0,0.0,0.0,1650847585081953.0
0.0,-5.0,-9.0,-5.0,-3.0,-4.0,-5.0,-6.0,1650847585098033.0
-4.0,0.0,27.0,8.0,0.0,-6.0,-4.0,0.0,1650847585098033.0
-1.0,-6.0,-19.0,-4.0,-1.0,3.0,3.0,1.0,1650847585098977.0
5.0,9.0,-11.0,-6.0,-5.0,-5.0,-6.0,-4.0,1650847585098977.0
-8.0,-2.0,1.0,0.0,0.0,1.0,4.0,7.0,1650847585120146.0
-5.0,-7.0,3.0,3.0,3.0,3.0,2.0,-1.0,1650847585120146.0
4.0,0.0,5.0,2.0,-2.0,-1.0,-3.0,4.0,1650847585121076.0
-7.0,-3.0,-3.0,-3.0,-6.0,-6.0,-6.0,-14.0,1650847585121076.0
4.0,8.0,6.0,3.0,0.0,7.0,7.0,4.0,1650847585133843.0
-3.0,-5.0,-5.0,-2.0,-4.0,-4.0,-2.0,-3.0,1650847585133843.0
-1.0,-7.0,-3.0,1.0,3.0,0.0,0.0,1.0,1650847585142293.0
-3.0,8.0,7.0,-5.0,-4.0,-2.0,1.0,1.0,1650847585142293.0
-1.0,-4.0,-6.0,0.0,0.0,-1.0,-2.0,-1.0,1650847585157473.0
-1.0,-3.0,-6.0,-1.0,-1.0,3.0,4.0,0.0,1650847585157473.0
1.0,1.0,-1.0,1.0,2.0,0.0,1.0,-1.0,1650847585158440.0
0.0,3.0,8.0,2.0,0.0,1.0,-1.0,1.0,1650847585158440.0
0.0,-5.0,-4.0,-4.0,-3.0,-3.0,-2.0,-1.0,1650847585180602.0
-3.0,-1.0,-6.0,-2.0,0.0,3.0,0.0,0.0,1650847585180602.0
-1.0,-5.0,-3.0,-1.0,0.0,-2.0,-2.0,-3.0,1650847585180602.0
0.0,8.0,7.0,5.0,2.0,3.0,1.0,0.0,1650847585180602.0
1.0,-2.0,3.0,2.0,1.0,-2.0,-2.0,0.0,1650847585202789.0
0.0,-12.0,-14.0,-4.0,-2.0,1.0,1.0,0.0,1650847585202789.0
-1.0,10.0,2.0,-3.0,-2.0,-2.0,-1.0,-2.0,1650847585203720.0
1.0,4.0,3.0,-1.0,-2.0,0.0,0.0,5.0,1650847585203720.0
0.0,3.0,3.0,3.0,2.0,3.0,1.0,-2.0,1650847585218200.0
-1.0,-16.0,-7.0,2.0,0.0,0.0,-2.0,0.0,1650847585218200.0
0.0,16.0,3.0,-6.0,-4.0,-3.0,-3.0,0.0,1650847585218200.0
0.0,-11.0,1.0,6.0,2.0,-1.0,0.0,-1.0,1650847585218200.0
0.0,-4.0,-4.0,-6.0,-3.0,-2.0,0.0,0.0,1650847585240145.0
2.0,20.0,9.0,3.0,3.0,-1.0,1.0,-1.0,1650847585240145.0
-3.0,-22.0,-9.0,-2.0,-3.0,-3.0,0.0,-3.0,1650847585241169.0
-6.0,-17.0,-5.0,-11.0,-9.0,-5.0,-1.0,0.0,1650847585241169.0
-2.0,3.0,-1.0,5.0,-8.0,-2.0,-1.0,-2.0,1650847585263286.0
-1.0,-1.0,-5.0,-4.0,0.0,0.0,0.0,1.0,1650847585263286.0
0.0,-3.0,-2.0,-4.0,5.0,-1.0,-1.0,-2.0,1650847585263286.0
1.0,-2.0,3.0,4.0,0.0,1.0,1.0,3.0,1650847585263286.0
1.0,4.0,-1.0,-3.0,-4.0,-2.0,0.0,-1.0,1650847585277350.0
0.0,-13.0,-6.0,-9.0,-7.0,-4.0,-1.0,-1.0,1650847585277350.0
-3.0,17.0,-3.0,-2.0,-2.0,0.0,-1.0,-1.0,1650847585277350.0
3.0,0.0,10.0,4.0,2.0,1.0,0.0,-1.0,1650847585277350.0
1.0,5.0,0.0,-4.0,1.0,-1.0,0.0,-1.0,1650847585299834.0
0.0,5.0,-2.0,0.0,-2.0,0.0,-1.0,0.0,1650847585299834.0
0.0,-8.0,2.0,2.0,1.0,-2.0,-1.0,-1.0,1650847585301832.0
-2.0,-17.0,-7.0,-1.0,3.0,0.0,-2.0,0.0,1650847585301832.0
0.0,21.0,1.0,-5.0,-2.0,0.0,-1.0,0.0,1650847585322861.0
-3.0,-6.0,5.0,13.0,6.0,2.0,1.0,-2.0,1650847585322861.0
-1.0,-1.0,0.0,1.0,-1.0,1.0,-1.0,0.0,1650847585323862.0
-2.0,-11.0,-4.0,-1.0,-1.0,-1.0,-3.0,-1.0,1650847585323862.0
-2.0,-7.0,-4.0,-6.0,1.0,-1.0,0.0,-1.0,1650847585336943.0
-2.0,0.0,-1.0,6.0,1.0,-1.0,0.0,-1.0,1650847585336943.0
1.0,-2.0,4.0,1.0,1.0,2.0,1.0,1.0,1650847585337920.0
2.0,9.0,0.0,3.0,1.0,1.0,1.0,1.0,1650847585337920.0
-1.0,-7.0,-3.0,-6.0,2.0,0.0,-1.0,0.0,1650847585359824.0
-1.0,6.0,0.0,-3.0,-4.0,-3.0,-2.0,0.0,1650847585359824.0
-3.0,-11.0,-6.0,1.0,-1.0,0.0,0.0,-1.0,1650847585361822.0
0.0,5.0,2.0,-5.0,-1.0,-1.0,1.0,-1.0,1650847585361822.0
-1.0,-4.0,-1.0,4.0,-4.0,-2.0,-1.0,0.0,1650847585382832.0
-1.0,0.0,-2.0,-8.0,-2.0,1.0,2.0,-2.0,1650847585382832.0
2.0,2.0,4.0,11.0,2.0,2.0,1.0,0.0,1650847585383763.0
1.0,10.0,0.0,-7.0,-3.0,0.0,1.0,0.0,1650847585383763.0
0.0,5.0,8.0,13.0,8.0,3.0,-1.0,-1.0,1650847585396818.0
-4.0,-17.0,-19.0,-5.0,-4.0,-2.0,-3.0,-1.0,1650847585396818.0
4.0,4.0,2.0,-5.0,-6.0,-2.0,-2.0,1.0,1650847585405704.0
-2.0,2.0,2.0,3.0,4.0,1.0,0.0,0.0,1650847585405704.0
-1.0,2.0,-1.0,-8.0,-4.0,-3.0,-1.0,-1.0,1650847585419941.0
2.0,9.0,0.0,4.0,1.0,2.0,0.0,1.0,1650847585419941.0
-3.0,-6.0,-3.0,-4.0,-4.0,-1.0,-1.0,0.0,1650847585421870.0
-1.0,-1.0,1.0,10.0,11.0,3.0,0.0,1.0,1650847585421870.0
0.0,-4.0,-2.0,-4.0,-4.0,-2.0,-2.0,-1.0,1650847585442827.0
2.0,4.0,3.0,1.0,-2.0,-1.0,0.0,1.0,1650847585442827.0
-2.0,-5.0,-4.0,5.0,5.0,1.0,2.0,0.0,1650847585444799.0
0.0,-2.0,0.0,-1.0,-4.0,-3.0,-1.0,-2.0,1650847585444799.0
2.0,12.0,0.0,-6.0,-3.0,-2.0,-1.0,-2.0,1650847585456736.0
2.0,-2.0,1.0,-3.0,-5.0,-3.0,-1.0,-1.0,1650847585456736.0
-2.0,-5.0,0.0,7.0,2.0,0.0,0.0,-1.0,1650847585465700.0
-1.0,-4.0,-3.0,-5.0,-6.0,-3.0,-3.0,0.0,1650847585465700.0
-1.0,-5.0,-3.0,-3.0,-1.0,-1.0,0.0,0.0,1650847585480747.0
0.0,-3.0,4.0,-2.0,-2.0,0.0,0.0,-1.0,1650847585480747.0
0.0,3.0,0.0,-1.0,0.0,-1.0,-1.0,1.0,1650847585481743.0
0.0,6.0,-2.0,2.0,0.0,-2.0,0.0,1.0,1650847585481743.0
2.0,-20.0,-5.0,1.0,1.0,1.0,2.0,0.0,1650847585502753.0
-2.0,30.0,9.0,-2.0,3.0,2.0,5.0,-2.0,1650847585502753.0
-3.0,-23.0,-15.0,-5.0,-4.0,-3.0,-5.0,-1.0,1650847585504682.0
-2.0,0.0,-3.0,-4.0,-3.0,-1.0,-2.0,-2.0,1650847585504682.0
1.0,2.0,4.0,4.0,9.0,2.0,2.0,3.0,1650847585516716.0
2.0,-3.0,0.0,-7.0,-2.0,-2.0,0.0,-1.0,1650847585516716.0
0.0,10.0,5.0,6.0,2.0,1.0,3.0,2.0,1650847585525626.0
1.0,-5.0,-3.0,-1.0,-6.0,-3.0,0.0,1.0,1650847585525626.0
-2.0,-1.0,-4.0,3.0,-2.0,-1.0,-1.0,-2.0,1650847585540587.0
0.0,0.0,-1.0,1.0,3.0,1.0,0.0,0.0,1650847585540587.0
0.0,2.0,0.0,-3.0,-2.0,-2.0,-1.0,0.0,1650847585541584.0
-1.0,-1.0,0.0,2.0,0.0,2.0,1.0,1.0,1650847585541584.0
-3.0,-6.0,-1.0,4.0,0.0,1.0,-2.0,-3.0,1650847585562577.0
0.0,-4.0,-5.0,-9.0,-8.0,-2.0,-2.0,0.0,1650847585562577.0
1.0,2.0,1.0,-5.0,-1.0,0.0,-2.0,-3.0,1650847585564571.0
2.0,3.0,2.0,5.0,5.0,1.0,2.0,1.0,1650847585564571.0
0.0,1.0,0.0,-7.0,-4.0,-2.0,-1.0,0.0,1650847585576607.0
-1.0,-3.0,-4.0,0.0,0.0,0.0,-2.0,0.0,1650847585576607.0
-1.0,5.0,1.0,-2.0,-7.0,-5.0,-2.0,-2.0,1650847585585515.0
-2.0,-2.0,0.0,0.0,4.0,2.0,2.0,-1.0,1650847585585515.0
0.0,-4.0,-1.0,1.0,-3.0,-1.0,-1.0,0.0,1650847585600645.0
-2.0,-6.0,-2.0,-1.0,-1.0,-1.0,-2.0,-1.0,1650847585600645.0
1.0,5.0,1.0,-3.0,-3.0,2.0,0.0,2.0,1650847585601631.0
0.0,-2.0,-1.0,1.0,-1.0,-2.0,0.0,-1.0,1650847585601631.0
-1.0,-2.0,-1.0,1.0,-1.0,-3.0,-2.0,-1.0,1650847585622757.0
-3.0,-3.0,1.0,1.0,4.0,1.0,-1.0,-1.0,1650847585622757.0
0.0,1.0,0.0,-1.0,-2.0,-1.0,1.0,1.0,1650847585624716.0
-1.0,-1.0,-1.0,-3.0,-5.0,1.0,-3.0,-1.0,1650847585624716.0
-1.0,4.0,2.0,-1.0,1.0,2.0,-1.0,-2.0,1650847585636653.0
-2.0,-4.0,0.0,2.0,4.0,0.0,1.0,-1.0,1650847585636653.0
0.0,-1.0,1.0,-5.0,0.0,-1.0,-1.0,0.0,1650847585645630.0
0.0,0.0,1.0,4.0,1.0,-1.0,-1.0,1.0,1650847585645630.0
0.0,-1.0,-1.0,2.0,0.0,-2.0,1.0,0.0,1650847585660725.0
0.0,1.0,-1.0,0.0,0.0,1.0,-2.0,1.0,1650847585660725.0
2.0,2.0,2.0,2.0,6.0,2.0,0.0,1.0,1650847585661587.0
-1.0,0.0,1.0,-4.0,-2.0,-2.0,-1.0,-1.0,1650847585661587.0
-1.0,-1.0,-1.0,3.0,4.0,3.0,0.0,-2.0,1650847585681599.0
0.0,2.0,1.0,1.0,0.0,-1.0,1.0,1.0,1650847585681599.0
-2.0,1.0,-1.0,-1.0,-2.0,0.0,0.0,-1.0,1650847585690658.0
-1.0,-1.0,-2.0,-5.0,-2.0,-1.0,-2.0,-1.0,1650847585690658.0
1.0,1.0,-1.0,0.0,0.0,-1.0,-1.0,1.0,1650847585696620.0
0.0,0.0,0.0,2.0,-1.0,0.0,-1.0,-1.0,1650847585696620.0
-1.0,-3.0,-2.0,-4.0,-2.0,2.0,-1.0,0.0,1650847585705714.0
1.0,0.0,1.0,3.0,3.0,0.0,1.0,-1.0,1650847585705714.0
0.0,-2.0,0.0,1.0,0.0,-1.0,-2.0,2.0,1650847585719898.0
0.0,0.0,-1.0,-3.0,-3.0,-3.0,-3.0,2.0,1650847585719898.0
0.0,0.0,-1.0,0.0,-4.0,-2.0,-2.0,-1.0,1650847585721826.0
-2.0,-2.0,-1.0,0.0,-2.0,1.0,-1.0,-3.0,1650847585721826.0
1.0,-1.0,0.0,-3.0,-2.0,-1.0,-1.0,0.0,1650847585742886.0
1.0,0.0,0.0,1.0,-1.0,-1.0,0.0,-1.0,1650847585742886.0
-1.0,4.0,1.0,1.0,0.0,0.0,0.0,0.0,1650847585743817.0
0.0,0.0,-4.0,-3.0,-2.0,-1.0,-1.0,1.0,1650847585743817.0
-2.0,-5.0,-1.0,-1.0,2.0,0.0,1.0,1.0,1650847585756796.0
0.0,0.0,0.0,1.0,0.0,-2.0,-1.0,-1.0,1650847585756796.0
0.0,-3.0,0.0,-1.0,2.0,3.0,1.0,-1.0,1650847585765762.0
-1.0,-1.0,-1.0,-1.0,-1.0,0.0,-2.0,-1.0,1650847585765762.0
1.0,2.0,1.0,1.0,-1.0,0.0,1.0,-1.0,1650847585779864.0
-3.0,-4.0,-4.0,-8.0,-3.0,-3.0,-1.0,-2.0,1650847585779864.0
-2.0,-3.0,1.0,12.0,5.0,0.0,0.0,-3.0,1650847585781714.0
0.0,3.0,-2.0,-5.0,-1.0,-1.0,1.0,2.0,1650847585781714.0
0.0,2.0,0.0,0.0,-2.0,0.0,0.0,2.0,1650847585810299.0
0.0,2.0,0.0,2.0,0.0,1.0,0.0,1.0,1650847585810299.0
0.0,0.0,-1.0,-3.0,-1.0,-2.0,-2.0,-1.0,1650847585812228.0
-4.0,-5.0,-1.0,-1.0,-2.0,1.0,0.0,-1.0,1650847585812228.0
-1.0,4.0,-1.0,-2.0,-3.0,-3.0,-2.0,-1.0,1650847585816217.0
0.0,-2.0,-2.0,-3.0,-2.0,-1.0,-2.0,-1.0,1650847585816217.0
1.0,2.0,-2.0,3.0,-4.0,0.0,1.0,1.0,1650847585825193.0
0.0,1.0,0.0,-2.0,1.0,1.0,2.0,-1.0,1650847585825193.0
-4.0,-3.0,1.0,1.0,0.0,0.0,-1.0,0.0,1650847585840305.0
-1.0,0.0,-1.0,0.0,-3.0,-1.0,-1.0,-2.0,1650847585840305.0
-2.0,0.0,0.0,-3.0,1.0,-1.0,-1.0,-1.0,1650847585841309.0
0.0,0.0,0.0,3.0,-1.0,-1.0,-1.0,-1.0,1650847585841309.0
-2.0,-6.0,-2.0,-1.0,-2.0,0.0,-1.0,-1.0,1650847585863250.0
-1.0,0.0,1.0,2.0,0.0,0.0,0.0,-1.0,1650847585863250.0
2.0,0.0,0.0,-1.0,-1.0,-1.0,0.0,1.0,1650847585864241.0
-1.0,-2.0,-3.0,0.0,1.0,1.0,-2.0,-1.0,1650847585864241.0
-1.0,-2.0,-2.0,-2.0,-2.0,-1.0,-1.0,-1.0,1650847585876276.0
-1.0,1.0,0.0,1.0,0.0,-1.0,0.0,1.0,1650847585876276.0
-1.0,1.0,0.0,-3.0,-3.0,-3.0,-1.0,0.0,1650847585885199.0
1.0,0.0,0.0,1.0,0.0,-1.0,-1.0,0.0,1650847585885199.0
-1.0,-2.0,-2.0,-4.0,-3.0,-2.0,-1.0,-1.0,1650847585900211.0
-2.0,-5.0,-3.0,-8.0,-3.0,-2.0,-1.0,-2.0,1650847585900211.0
-3.0,-1.0,1.0,10.0,1.0,-1.0,1.0,-1.0,1650847585902140.0
1.0,3.0,1.0,-2.0,0.0,2.0,2.0,0.0,1650847585902140.0
-1.0,-1.0,-1.0,-1.0,-1.0,0.0,0.0,-2.0,1650847585922838.0
-1.0,-1.0,-2.0,-3.0,-1.0,-1.0,-2.0,-1.0,1650847585922838.0
-1.0,-2.0,-2.0,-5.0,0.0,0.0,-2.0,-2.0,1650847585924767.0
1.0,-1.0,0.0,2.0,1.0,0.0,0.0,0.0,1650847585924767.0
-1.0,0.0,-1.0,0.0,-2.0,0.0,0.0,1.0,1650847585936818.0
-1.0,1.0,0.0,1.0,0.0,1.0,-1.0,1.0,1650847585936818.0
-2.0,-1.0,-1.0,0.0,0.0,-2.0,0.0,0.0,1650847585945845.0
-2.0,1.0,-2.0,-2.0,-2.0,-2.0,-2.0,-1.0,1650847585945845.0
0.0,0.0,0.0,-1.0,-2.0,1.0,-1.0,-1.0,1650847585959318.0
1.0,-1.0,0.0,3.0,2.0,2.0,0.0,0.0,1650847585959318.0
-1.0,0.0,-1.0,-1.0,0.0,0.0,0.0,-1.0,1650847585968230.0
-1.0,0.0,-1.0,-2.0,0.0,-2.0,-2.0,0.0,1650847585968230.0
-1.0,0.0,0.0,-1.0,0.0,0.0,0.0,1.0,1650847585983162.0
-2.0,-1.0,3.0,3.0,1.0,-1.0,1.0,-1.0,1650847585983162.0
-1.0,-6.0,-2.0,-4.0,-1.0,-2.0,0.0,-1.0,1650847585984772.0
0.0,2.0,1.0,1.0,1.0,1.0,0.0,-1.0,1650847585984772.0
0.0,0.0,0.0,4.0,1.0,0.0,-2.0,-1.0,1650847585996767.0
0.0,0.0,-7.0,-11.0,-8.0,-3.0,-1.0,0.0,1650847585996767.0
-1.0,0.0,1.0,1.0,-1.0,1.0,1.0,0.0,1650847586005785.0
-1.0,-4.0,-2.0,-1.0,1.0,0.0,1.0,1.0,1650847586005785.0
-1.0,0.0,-1.0,0.0,0.0,1.0,1.0,0.0,1650847586019836.0
1.0,1.0,1.0,1.0,0.0,-1.0,1.0,-2.0,1650847586019836.0
-1.0,-2.0,1.0,-5.0,-1.0,-2.0,-2.0,-2.0,1650847586021833.0
-1.0,0.0,-1.0,-2.0,-1.0,-3.0,-1.0,-2.0,1650847586021833.0
-1.0,0.0,0.0,1.0,-1.0,-1.0,-1.0,0.0,1650847586042843.0
0.0,-3.0,1.0,1.0,2.0,-1.0,-1.0,0.0,1650847586042843.0
1.0,3.0,0.0,-1.0,-3.0,1.0,0.0,1.0,1650847586043775.0
0.0,-2.0,1.0,5.0,1.0,3.0,0.0,-2.0,1650847586043775.0
0.0,0.0,-1.0,-4.0,-2.0,-2.0,-3.0,-1.0,1650847586064719.0
-2.0,-1.0,-1.0,1.0,2.0,1.0,-1.0,-1.0,1650847586064719.0
1.0,1.0,2.0,2.0,0.0,0.0,-2.0,1.0,1650847586071764.0
-1.0,-3.0,-4.0,-4.0,-3.0,-2.0,-2.0,-1.0,1650847586071764.0
1.0,2.0,2.0,-1.0,-1.0,-3.0,0.0,-1.0,1650847586080704.0
-1.0,-4.0,1.0,3.0,1.0,1.0,-2.0,-2.0,1650847586080704.0
0.0,2.0,-1.0,-2.0,-1.0,-1.0,-1.0,-1.0,1650847586081673.0
1.0,0.0,-1.0,1.0,-3.0,-2.0,-1.0,1.0,1650847586081673.0
0.0,3.0,2.0,3.0,1.0,1.0,0.0,-1.0,1650847586102478.0
0.0,1.0,-4.0,-4.0,-1.0,0.0,3.0,1.0,1650847586102478.0
0.0,-1.0,0.0,-1.0,0.0,0.0,1.0,0.0,1650847586104503.0
-3.0,-3.0,-1.0,-2.0,0.0,-2.0,-1.0,0.0,1650847586104503.0
-1.0,-2.0,-1.0,-1.0,-1.0,-3.0,0.0,0.0,1650847586125433.0
-1.0,-3.0,0.0,2.0,0.0,1.0,0.0,-3.0,1650847586125433.0
-2.0,-2.0,-3.0,-1.0,0.0,1.0,-2.0,-2.0,1650847586126417.0
0.0,4.0,3.0,-3.0,1.0,-1.0,-1.0,-1.0,1650847586126417.0
-2.0,-3.0,-2.0,2.0,0.0,-2.0,-1.0,0.0,1650847586140601.0
0.0,0.0,0.0,-1.0,-1.0,-2.0,0.0,1.0,1650847586140601.0
0.0,0.0,-1.0,0.0,0.0,2.0,0.0,0.0,1650847586142558.0
-1.0,-4.0,-1.0,-1.0,-1.0,0.0,0.0,1.0,1650847586142558.0
-2.0,-2.0,-4.0,-4.0,-2.0,0.0,-1.0,0.0,1650847586162487.0
0.0,1.0,0.0,2.0,-2.0,-3.0,-1.0,-1.0,1650847586162487.0
0.0,2.0,-1.0,-3.0,-1.0,-2.0,0.0,0.0,1650847586164435.0
0.0,0.0,-1.0,1.0,-1.0,0.0,-1.0,-1.0,1650847586164435.0
3.0,-1.0,1.0,-1.0,-1.0,1.0,0.0,1.0,1650847586185631.0
0.0,2.0,1.0,-2.0,-1.0,2.0,0.0,3.0,1650847586185631.0
0.0,-1.0,1.0,0.0,-1.0,-1.0,-1.0,-1.0,1650847586186562.0
-1.0,-1.0,0.0,0.0,0.0,-2.0,-1.0,-1.0,1650847586186562.0
-1.0,-1.0,-1.0,0.0,0.0,-1.0,-1.0,-1.0,1650847586200590.0
-1.0,2.0,-2.0,0.0,-2.0,-2.0,-1.0,-1.0,1650847586200590.0
0.0,-2.0,-2.0,-2.0,-3.0,-3.0,-1.0,1.0,1650847586202519.0
0.0,1.0,0.0,0.0,-1.0,-3.0,-1.0,-2.0,1650847586202519.0
-1.0,-3.0,-3.0,-4.0,0.0,1.0,2.0,0.0,1650847586222865.0
1.0,2.0,3.0,2.0,5.0,2.0,0.0,1.0,1650847586222865.0
-1.0,-2.0,1.0,2.0,-2.0,1.0,1.0,-1.0,1650847586223876.0
-1.0,0.0,-2.0,0.0,-1.0,0.0,1.0,-1.0,1650847586223876.0
1.0,0.0,0.0,1.0,-2.0,-1.0,0.0,-2.0,1650847586245864.0
2.0,2.0,0.0,2.0,1.0,0.0,-1.0,-1.0,1650847586245864.0
-1.0,0.0,-2.0,-2.0,1.0,-2.0,0.0,-3.0,1650847586247793.0
0.0,-2.0,-1.0,-2.0,-2.0,0.0,-1.0,0.0,1650847586247793.0
-2.0,0.0,-1.0,0.0,1.0,-1.0,-1.0,0.0,1650847586259826.0
-1.0,-1.0,2.0,3.0,1.0,1.0,0.0,-1.0,1650847586259826.0
0.0,1.0,-1.0,-1.0,1.0,-1.0,-1.0,2.0,1650847586266793.0
-1.0,-4.0,-1.0,1.0,0.0,-1.0,-1.0,-2.0,1650847586266793.0
1.0,-2.0,0.0,-1.0,-2.0,0.0,1.0,0.0,1650847586283227.0
-1.0,-1.0,-4.0,-8.0,-2.0,0.0,-1.0,-1.0,1650847586283227.0
-2.0,-4.0,-3.0,3.0,-2.0,-1.0,0.0,-2.0,1650847586284209.0
0.0,1.0,2.0,0.0,1.0,1.0,0.0,2.0,1650847586284209.0
0.0,0.0,2.0,0.0,2.0,-2.0,-1.0,-1.0,1650847586305220.0
-2.0,-3.0,-3.0,-4.0,-3.0,-2.0,-2.0,-1.0,1650847586305220.0
-1.0,1.0,0.0,-1.0,-2.0,-2.0,-2.0,2.0,1650847586307175.0
0.0,2.0,1.0,-2.0,-3.0,1.0,1.0,-2.0,1650847586307175.0
-4.0,-1.0,1.0,4.0,0.0,-1.0,-2.0,-3.0,1650847586320118.0
0.0,-4.0,-3.0,-1.0,0.0,-2.0,0.0,-2.0,1650847586320118.0
0.0,-2.0,-3.0,-5.0,1.0,0.0,-2.0,0.0,1650847586326164.0
1.0,2.0,0.0,2.0,1.0,1.0,0.0,0.0,1650847586326164.0
-2.0,-5.0,-4.0,-2.0,-2.0,2.0,-1.0,1.0,1650847586342886.0
-2.0,1.0,1.0,1.0,1.0,1.0,0.0,-1.0,1650847586342886.0
0.0,-2.0,1.0,2.0,0.0,-1.0,-2.0,0.0,1650847586348869.0
0.0,2.0,-1.0,0.0,0.0,1.0,-1.0,-1.0,1650847586348869.0
2.0,1.0,1.0,2.0,0.0,1.0,2.0,1.0,1650847586364788.0
-1.0,-6.0,-6.0,-3.0,-5.0,-3.0,-2.0,1.0,1650847586364788.0
-1.0,1.0,2.0,0.0,0.0,0.0,0.0,-3.0,1650847586366785.0
-1.0,-1.0,0.0,0.0,1.0,-1.0,0.0,-1.0,1650847586366785.0
-2.0,-3.0,-3.0,-1.0,2.0,-1.0,0.0,0.0,1650847586379839.0
-1.0,-2.0,4.0,4.0,3.0,0.0,1.0,-1.0,1650847586379839.0
-1.0,1.0,-6.0,-7.0,-3.0,-1.0,-1.0,0.0,1650847586386859.0
-1.0,-6.0,-4.0,-2.0,-3.0,-2.0,-3.0,-2.0,1650847586386859.0
0.0,4.0,4.0,-2.0,-1.0,-1.0,-1.0,-1.0,1650847586402781.0
0.0,1.0,-2.0,0.0,-1.0,1.0,1.0,0.0,1650847586402781.0
-1.0,-9.0,-8.0,-3.0,0.0,-1.0,0.0,0.0,1650847586404775.0
-1.0,2.0,1.0,-3.0,-1.0,-2.0,1.0,-1.0,1650847586404775.0
1.0,5.0,1.0,0.0,1.0,0.0,0.0,0.0,1650847586425731.0
1.0,2.0,3.0,1.0,0.0,-2.0,-1.0,0.0,1650847586425731.0
0.0,1.0,4.0,5.0,-2.0,-2.0,0.0,0.0,1650847586426717.0
-2.0,-5.0,-6.0,-3.0,-1.0,1.0,0.0,0.0,1650847586426717.0
0.0,5.0,3.0,2.0,2.0,-1.0,-1.0,1.0,1650847586439748.0
1.0,2.0,5.0,3.0,-3.0,-1.0,0.0,0.0,1650847586439748.0
0.0,-3.0,-2.0,3.0,3.0,0.0,0.0,0.0,1650847586446731.0
0.0,2.0,-12.0,-9.0,-5.0,-3.0,-1.0,1.0,1650847586446731.0
-1.0,-6.0,-2.0,0.0,-1.0,0.0,1.0,-1.0,1650847586463052.0
-3.0,7.0,-2.0,-1.0,-1.0,-2.0,-2.0,-1.0,1650847586463052.0
1.0,3.0,8.0,1.0,0.0,-1.0,-1.0,0.0,1650847586463980.0
-1.0,0.0,5.0,4.0,2.0,0.0,0.0,-2.0,1650847586463980.0
1.0,-1.0,-2.0,1.0,0.0,1.0,0.0,-4.0,1650847586484898.0
0.0,1.0,0.0,-4.0,-3.0,-1.0,-1.0,-1.0,1650847586484898.0
-2.0,-9.0,-4.0,-5.0,-3.0,-1.0,-2.0,0.0,1650847586486826.0
1.0,3.0,1.0,0.0,-1.0,1.0,-2.0,3.0,1650847586486826.0
0.0,-1.0,-3.0,-4.0,-4.0,-1.0,-1.0,2.0,1650847586499857.0
-2.0,-6.0,-1.0,1.0,2.0,1.0,-2.0,-1.0,1650847586499857.0
1.0,9.0,2.0,1.0,0.0,0.0,0.0,-1.0,1650847586506820.0
1.0,-1.0,2.0,2.0,-1.0,0.0,0.0,-1.0,1650847586506820.0
0.0,-1.0,1.0,1.0,0.0,-2.0,0.0,-1.0,1650847586522948.0
0.0,-5.0,-3.0,0.0,2.0,0.0,1.0,0.0,1650847586522948.0
0.0,0.0,-3.0,-2.0,-1.0,1.0,1.0,-1.0,1650847586524877.0
0.0,-3.0,1.0,2.0,0.0,-2.0,-2.0,-2.0,1650847586524877.0
0.0,1.0,-3.0,-4.0,-4.0,-1.0,1.0,0.0,1650847586544889.0
-1.0,-1.0,-2.0,0.0,0.0,-2.0,-1.0,-1.0,1650847586544889.0
0.0,-3.0,0.0,-2.0,0.0,0.0,0.0,-2.0,1650847586546822.0
-2.0,1.0,4.0,0.0,0.0,-1.0,0.0,2.0,1650847586546822.0
-1.0,-2.0,-1.0,-1.0,1.0,-1.0,-1.0,1.0,1650847586559187.0
0.0,-3.0,-1.0,1.0,0.0,1.0,-1.0,0.0,1650847586559187.0
-1.0,-1.0,-1.0,2.0,-1.0,-1.0,0.0,-2.0,1650847586566233.0
0.0,3.0,-2.0,-4.0,-1.0,1.0,0.0,-2.0,1650847586566233.0
0.0,-3.0,-2.0,-1.0,-2.0,-1.0,2.0,2.0,1650847586583157.0
-2.0,-1.0,-1.0,-1.0,-1.0,-3.0,0.0,1.0,1650847586583157.0
2.0,1.0,2.0,4.0,2.0,2.0,-1.0,1.0,1650847586584130.0
0.0,-2.0,-1.0,0.0,0.0,-1.0,1.0,-2.0,1650847586584130.0
-3.0,-5.0,-4.0,-6.0,-3.0,-2.0,-1.0,0.0,1650847586605071.0
1.0,1.0,2.0,8.0,4.0,1.0,0.0,0.0,1650847586605071.0
-3.0,-4.0,-4.0,-5.0,-4.0,-3.0,-2.0,1.0,1650847586607060.0
-2.0,-2.0,-3.0,-2.0,-1.0,-2.0,0.0,0.0,1650847586607060.0
0.0,5.0,-1.0,-4.0,0.0,-2.0,0.0,-1.0,1650847586619111.0
-2.0,-3.0,-1.0,-2.0,-1.0,-1.0,0.0,-2.0,1650847586619111.0
0.0,2.0,-3.0,-2.0,-2.0,-1.0,-3.0,-2.0,1650847586627606.0
0.0,0.0,2.0,2.0,0.0,1.0,1.0,-2.0,1650847586627606.0
-2.0,2.0,-2.0,0.0,0.0,-2.0,-2.0,-2.0,1650847586642832.0
1.0,1.0,0.0,0.0,0.0,2.0,-1.0,1.0,1650847586642832.0
0.0,-1.0,0.0,0.0,1.0,0.0,-1.0,-1.0,1650847586644819.0
1.0,1.0,2.0,0.0,-2.0,-1.0,0.0,0.0,1650847586644819.0
2.0,4.0,-1.0,-2.0,-2.0,-1.0,-3.0,-2.0,1650847586664762.0
-2.0,-2.0,-3.0,-2.0,-2.0,-1.0,1.0,-1.0,1650847586664762.0
-2.0,5.0,5.0,1.0,1.0,0.0,0.0,0.0,1650847586666757.0
-4.0,-9.0,-8.0,-1.0,-1.0,0.0,-2.0,0.0,1650847586666757.0
-2.0,1.0,2.0,1.0,-1.0,-1.0,0.0,-1.0,1650847586678791.0
-1.0,-3.0,-3.0,-3.0,1.0,0.0,0.0,0.0,1650847586678791.0
0.0,2.0,2.0,3.0,-2.0,-2.0,0.0,0.0,1650847586687701.0
-1.0,-4.0,-4.0,-1.0,-1.0,-1.0,-1.0,0.0,1650847586687701.0
0.0,0.0,-1.0,1.0,1.0,1.0,0.0,-2.0,1650847586702965.0
-1.0,2.0,-2.0,-4.0,-2.0,-1.0,-1.0,1.0,1650847586702965.0
1.0,-1.0,0.0,3.0,0.0,0.0,0.0,1.0,1650847586703967.0
-3.0,-6.0,2.0,3.0,2.0,-1.0,-1.0,-1.0,1650847586703967.0
-1.0,-5.0,-3.0,2.0,1.0,0.0,1.0,-2.0,1650847586725907.0
1.0,1.0,1.0,-2.0,0.0,1.0,-2.0,1.0,1650847586725907.0
0.0,1.0,-1.0,-2.0,1.0,1.0,1.0,0.0,1650847586730955.0
0.0,1.0,2.0,1.0,-1.0,-1.0,0.0,0.0,1650847586730955.0
0.0,-2.0,-1.0,-1.0,-2.0,-1.0,-1.0,1.0,1650847586738934.0
-2.0,-4.0,-4.0,-4.0,-1.0,-1.0,-1.0,-2.0,1650847586738934.0
-1.0,-1.0,0.0,0.0,-3.0,-2.0,-2.0,0.0,1650847586747980.0
1.0,4.0,6.0,3.0,2.0,1.0,1.0,-1.0,1650847586747980.0
0.0,-4.0,0.0,3.0,2.0,1.0,0.0,-2.0,1650847586762993.0
1.0,2.0,-1.0,0.0,-1.0,0.0,0.0,-2.0,1650847586762993.0
1.0,3.0,-1.0,0.0,3.0,3.0,2.0,1.0,1650847586763951.0
0.0,1.0,-5.0,-5.0,-2.0,-4.0,-1.0,-1.0,1650847586763951.0
0.0,1.0,-3.0,-6.0,-1.0,-1.0,-1.0,1.0,1650847586784935.0
1.0,-2.0,2.0,5.0,2.0,1.0,-1.0,-1.0,1650847586784935.0
-2.0,-3.0,-3.0,-8.0,-5.0,-1.0,-1.0,-3.0,1650847586786889.0
0.0,1.0,2.0,5.0,2.0,2.0,-1.0,-1.0,1650847586786889.0
-2.0,-1.0,-2.0,-4.0,0.0,0.0,0.0,1.0,1650847586798899.0
-2.0,0.0,-2.0,-3.0,-1.0,-3.0,-1.0,0.0,1650847586798899.0
-1.0,-3.0,0.0,-1.0,-1.0,0.0,-3.0,-1.0,1650847586807820.0
2.0,-2.0,-1.0,0.0,-2.0,1.0,0.0,0.0,1650847586807820.0
-1.0,-2.0,-2.0,1.0,-3.0,0.0,0.0,-1.0,1650847586822916.0
-3.0,-1.0,-1.0,0.0,-2.0,-2.0,0.0,-2.0,1650847586822916.0
-1.0,-1.0,-1.0,1.0,0.0,-1.0,0.0,-1.0,1650847586823943.0
-3.0,0.0,1.0,-4.0,-2.0,-1.0,-1.0,-1.0,1650847586823943.0
1.0,3.0,-1.0,2.0,-1.0,1.0,-1.0,0.0,1650847586844880.0
1.0,-2.0,-3.0,-3.0,-3.0,-2.0,-1.0,1.0,1650847586844880.0
-2.0,0.0,1.0,-1.0,0.0,-1.0,1.0,1.0,1650847586846809.0
1.0,1.0,1.0,1.0,1.0,-2.0,-2.0,1.0,1650847586846809.0
-1.0,-3.0,-3.0,-1.0,1.0,-3.0,0.0,0.0,1650847586858946.0
-1.0,0.0,1.0,1.0,0.0,1.0,-2.0,-2.0,1650847586858946.0
0.0,1.0,-1.0,-1.0,-1.0,-1.0,-1.0,0.0,1650847586867551.0
-4.0,-5.0,-1.0,1.0,-1.0,1.0,1.0,0.0,1650847586867551.0
0.0,4.0,2.0,0.0,-1.0,0.0,-1.0,-1.0,1650847586883115.0
-1.0,-1.0,1.0,0.0,-1.0,-2.0,1.0,-2.0,1650847586883115.0
-1.0,-2.0,-4.0,-3.0,-3.0,-2.0,-1.0,-1.0,1650847586884680.0
-1.0,1.0,2.0,2.0,3.0,-1.0,-1.0,-1.0,1650847586884680.0
-2.0,-2.0,0.0,1.0,-2.0,-1.0,0.0,0.0,1650847586905887.0
1.0,1.0,-3.0,0.0,-3.0,0.0,0.0,1.0,1650847586905887.0
1.0,1.0,1.0,2.0,1.0,1.0,-1.0,-2.0,1650847586907841.0
0.0,0.0,-3.0,-3.0,-1.0,2.0,-1.0,0.0,1650847586907841.0
-2.0,-3.0,0.0,-1.0,-3.0,-1.0,-3.0,-2.0,1650847586918975.0
1.0,0.0,1.0,-1.0,1.0,-2.0,-1.0,1.0,1650847586918975.0
-1.0,-1.0,-2.0,0.0,0.0,-2.0,0.0,0.0,1650847586927885.0
0.0,-2.0,-1.0,-3.0,-2.0,-2.0,-2.0,-2.0,1650847586927885.0
-2.0,-4.0,-1.0,0.0,0.0,0.0,-1.0,-1.0,1650847586942980.0
-1.0,-2.0,0.0,0.0,-2.0,0.0,-1.0,0.0,1650847586942980.0
-1.0,0.0,-1.0,0.0,-3.0,0.0,-1.0,1.0,1650847586943958.0
1.0,0.0,2.0,2.0,-1.0,0.0,0.0,-1.0,1650847586943958.0
0.0,-1.0,-2.0,-2.0,1.0,2.0,-1.0,0.0,1650847586964871.0
0.0,0.0,-1.0,-2.0,-2.0,-1.0,1.0,-1.0,1650847586964871.0
1.0,3.0,0.0,-5.0,-3.0,0.0,1.0,1.0,1650847586971790.0
-4.0,-6.0,-2.0,-1.0,0.0,-2.0,-2.0,-1.0,1650847586971790.0
0.0,0.0,0.0,-1.0,-3.0,-3.0,-1.0,-1.0,1650847586978835.0
0.0,1.0,-2.0,2.0,1.0,2.0,0.0,0.0,1650847586978835.0
0.0,-1.0,0.0,0.0,-1.0,0.0,-1.0,-1.0,1650847586987743.0
1.0,1.0,-1.0,-2.0,-1.0,2.0,0.0,1.0,1650847586987743.0
-1.0,0.0,0.0,3.0,4.0,1.0,1.0,-1.0,1650847587002925.0
1.0,3.0,1.0,-1.0,-3.0,0.0,-3.0,0.0,1650847587002925.0
-2.0,-12.0,-3.0,0.0,0.0,-4.0,-2.0,-2.0,1650847587003876.0
-1.0,1.0,-2.0,-1.0,-1.0,-1.0,-1.0,0.0,1650847587003876.0
-1.0,1.0,1.0,4.0,-1.0,1.0,0.0,0.0,1650847587024883.0
1.0,6.0,3.0,-1.0,-3.0,-3.0,2.0,0.0,1650847587024883.0
-2.0,-6.0,0.0,4.0,3.0,1.0,-2.0,-3.0,1650847587026824.0
0.0,-1.0,-3.0,-4.0,-3.0,-1.0,-2.0,0.0,1650847587026824.0
0.0,-1.0,-2.0,-2.0,1.0,0.0,0.0,0.0,1650847587048018.0
0.0,-1.0,3.0,-4.0,-1.0,0.0,1.0,0.0,1650847587048018.0
0.0,-6.0,-33.0,-4.0,3.0,0.0,-3.0,0.0,1650847587048948.0
-2.0,-3.0,1.0,-4.0,-2.0,0.0,1.0,-1.0,1650847587048948.0
0.0,4.0,16.0,2.0,-3.0,-2.0,0.0,1.0,1650847587063055.0
-2.0,-3.0,-1.0,5.0,-2.0,-2.0,-2.0,-1.0,1650847587063055.0
0.0,3.0,8.0,0.0,1.0,-2.0,-1.0,-2.0,1650847587064065.0
1.0,-2.0,-14.0,-5.0,2.0,-1.0,-2.0,0.0,1650847587064065.0
-1.0,-4.0,-7.0,-5.0,-3.0,1.0,0.0,-1.0,1650847587085065.0
0.0,1.0,2.0,2.0,1.0,2.0,-1.0,0.0,1650847587085065.0
-3.0,-3.0,1.0,-2.0,-4.0,1.0,-1.0,0.0,1650847587086994.0
-1.0,4.0,4.0,0.0,-2.0,-1.0,0.0,0.0,1650847587086994.0
-2.0,-2.0,10.0,-1.0,0.0,-2.0,1.0,-3.0,1650847587108073.0
0.0,-3.0,-14.0,-3.0,2.0,-2.0,-2.0,-3.0,1650847587108073.0
2.0,8.0,16.0,8.0,-1.0,-2.0,0.0,1.0,1650847587109005.0
3.0,6.0,5.0,1.0,-3.0,-1.0,1.0,-1.0,1650847587109005.0
-3.0,-9.0,-8.0,-2.0,-2.0,0.0,-1.0,0.0,1650847587122888.0
-2.0,-4.0,1.0,-1.0,-2.0,0.0,0.0,-1.0,1650847587122888.0
2.0,1.0,-2.0,-5.0,2.0,2.0,0.0,0.0,1650847587124816.0
0.0,3.0,7.0,6.0,-2.0,-1.0,-1.0,1.0,1650847587124816.0
-1.0,3.0,-1.0,0.0,1.0,-1.0,-3.0,-1.0,1650847587145693.0
-2.0,-3.0,-7.0,-4.0,1.0,1.0,0.0,-1.0,1650847587145693.0
-3.0,-2.0,-1.0,-4.0,1.0,2.0,1.0,1.0,1650847587146680.0
1.0,-1.0,6.0,-1.0,-1.0,-1.0,-2.0,2.0,1650847587146680.0
1.0,3.0,1.0,6.0,-2.0,-1.0,-3.0,-1.0,1650847587167680.0
-3.0,-4.0,-15.0,-9.0,0.0,0.0,-1.0,1.0,1650847587167680.0
