EMG_s0,EMG_s1,EMG_s2,EMG_s3,EMG_s4,EMG_s5,EMG_s6,EMG_s7,timestamp
-6.0,11.0,15.0,-1.0,5.0,13.0,7.0,-4.0,1650847289898881.0
-4.0,2.0,0.0,-4.0,1.0,2.0,1.0,-3.0,1650847289898881.0
10.0,-3.0,-6.0,3.0,-2.0,-11.0,-5.0,5.0,1650847289899908.0
0.0,1.0,5.0,-2.0,1.0,7.0,5.0,0.0,1650847289899908.0
-6.0,4.0,1.0,-12.0,-4.0,3.0,0.0,-5.0,1650847289900893.0
5.0,-7.0,-7.0,9.0,2.0,-9.0,-4.0,5.0,1650847289900893.0
1.0,4.0,5.0,1.0,5.0,5.0,1.0,1.0,1650847289901867.0
-4.0,9.0,6.0,-4.0,2.0,7.0,2.0,-2.0,1650847289901867.0
2.0,-8.0,-8.0,-2.0,-4.0,-12.0,-7.0,2.0,1650847289913836.0
3.0,0.0,-1.0,-5.0,-4.0,-3.0,-1.0,0.0,1650847289913836.0
-7.0,6.0,5.0,0.0,-1.0,9.0,5.0,-4.0,1650847289920816.0
0.0,0.0,-2.0,-1.0,8.0,-2.0,-1.0,-1.0,1650847289920816.0
3.0,-8.0,-7.0,-2.0,-4.0,-7.0,-3.0,4.0,1650847289928795.0
-3.0,5.0,5.0,-1.0,1.0,7.0,2.0,-1.0,1650847289928795.0
-6.0,-2.0,2.0,-2.0,-1.0,1.0,0.0,-3.0,1650847289941818.0
5.0,-3.0,-6.0,1.0,-4.0,-7.0,-4.0,1.0,1650847289941818.0
2.0,0.0,2.0,6.0,7.0,3.0,1.0,1.0,1650847289953738.0
-4.0,-2.0,4.0,-3.0,1.0,5.0,3.0,-4.0,1650847289953738.0
0.0,-1.0,-4.0,-1.0,-3.0,-4.0,-1.0,1.0,1650847289965808.0
1.0,-1.0,-1.0,0.0,-5.0,-5.0,-2.0,1.0,1650847289965808.0
-2.0,1.0,5.0,6.0,2.0,3.0,2.0,-3.0,1650847289973784.0
-1.0,0.0,-2.0,-8.0,-5.0,-1.0,-2.0,-1.0,1650847289973784.0
1.0,-2.0,0.0,18.0,4.0,-2.0,-1.0,-1.0,1650847289987347.0
-2.0,-3.0,0.0,-4.0,1.0,2.0,0.0,-2.0,1650847289987347.0
7.0,-7.0,-5.0,-2.0,-4.0,-7.0,-2.0,3.0,1650847290028975.0
-6.0,12.0,10.0,-2.0,1.0,11.0,5.0,-6.0,1650847290028975.0
-2.0,-3.0,-1.0,-5.0,0.0,-3.0,-3.0,-2.0,1650847290028975.0
6.0,-8.0,-6.0,6.0,2.0,-7.0,-3.0,4.0,1650847290028975.0
-6.0,2.0,7.0,2.0,10.0,10.0,3.0,0.0,1650847290032961.0
-4.0,1.0,-1.0,-4.0,-2.0,-1.0,0.0,-4.0,1650847290032961.0
7.0,-7.0,-8.0,1.0,-4.0,-10.0,-3.0,3.0,1650847290033972.0
-1.0,5.0,1.0,0.0,-1.0,4.0,0.0,-1.0,1650847290033972.0
-7.0,4.0,1.0,-4.0,-1.0,7.0,2.0,-4.0,1650847290038945.0
3.0,-8.0,-8.0,0.0,-2.0,-9.0,-4.0,5.0,1650847290038945.0
1.0,-1.0,-1.0,-6.0,-2.0,-1.0,0.0,0.0,1650847290047948.0
-5.0,5.0,7.0,5.0,2.0,6.0,4.0,-2.0,1650847290047948.0
1.0,-1.0,-4.0,-5.0,-1.0,-3.0,-2.0,0.0,1650847290053905.0
5.0,-6.0,-6.0,1.0,-3.0,-5.0,-2.0,2.0,1650847290053905.0
-4.0,4.0,5.0,0.0,-1.0,5.0,1.0,-3.0,1650847290069939.0
-3.0,3.0,0.0,-6.0,0.0,-1.0,-1.0,-3.0,1650847290069939.0
3.0,-4.0,-5.0,3.0,0.0,-6.0,-3.0,0.0,1650847290076961.0
1.0,-1.0,0.0,2.0,1.0,0.0,-1.0,1.0,1650847290076961.0
-6.0,-3.0,1.0,-5.0,-2.0,4.0,1.0,-2.0,1650847290100826.0
3.0,-5.0,-5.0,0.0,-3.0,-6.0,-5.0,0.0,1650847290100826.0
0.0,-1.0,-1.0,1.0,-2.0,-2.0,-1.0,0.0,1650847290102784.0
-2.0,3.0,1.0,-3.0,3.0,3.0,2.0,-1.0,1650847290102784.0
-1.0,-2.0,-4.0,-3.0,-1.0,-1.0,-1.0,-2.0,1650847290114786.0
1.0,-2.0,-1.0,-1.0,-3.0,-2.0,-1.0,1.0,1650847290114786.0
-1.0,1.0,0.0,-1.0,-2.0,0.0,-2.0,-2.0,1650847290121770.0
-2.0,-4.0,1.0,-4.0,-4.0,-1.0,-2.0,-1.0,1650847290121770.0
3.0,0.0,0.0,6.0,0.0,-2.0,-2.0,0.0,1650847290138444.0
-2.0,-1.0,0.0,-4.0,2.0,1.0,-1.0,1.0,1650847290138444.0
-2.0,0.0,0.0,-1.0,-2.0,-1.0,0.0,-3.0,1650847290139448.0
4.0,-1.0,-2.0,1.0,-1.0,-3.0,-4.0,1.0,1650847290139448.0
-1.0,5.0,1.0,1.0,-1.0,0.0,-1.0,0.0,1650847290160883.0
-1.0,1.0,1.0,-2.0,-2.0,2.0,-2.0,-2.0,1650847290160883.0
0.0,-2.0,-1.0,1.0,-2.0,-2.0,-2.0,1.0,1650847290161818.0
0.0,1.0,0.0,0.0,0.0,-2.0,0.0,0.0,1650847290161818.0
-2.0,3.0,2.0,3.0,1.0,3.0,1.0,0.0,1650847290174846.0
-1.0,-4.0,-4.0,-2.0,0.0,-2.0,-2.0,-2.0,1650847290174846.0
1.0,1.0,-1.0,-1.0,0.0,-2.0,0.0,1.0,1650847290181827.0
-3.0,-4.0,1.0,0.0,-1.0,1.0,0.0,-1.0,1650847290181827.0
1.0,0.0,-1.0,-1.0,-1.0,0.0,0.0,-2.0,1650847290198903.0
-1.0,-1.0,-2.0,0.0,-2.0,-3.0,-2.0,0.0,1650847290198903.0
0.0,-1.0,-1.0,-1.0,2.0,0.0,1.0,-2.0,1650847290199854.0
0.0,3.0,1.0,2.0,1.0,1.0,0.0,0.0,1650847290199854.0
0.0,-4.0,-4.0,0.0,-2.0,-2.0,0.0,2.0,1650847290220972.0
-1.0,1.0,0.0,-4.0,-1.0,-1.0,1.0,-2.0,1650847290220972.0
-2.0,-1.0,1.0,1.0,-2.0,0.0,-2.0,0.0,1650847290221902.0
-1.0,0.0,0.0,10.0,10.0,-1.0,0.0,0.0,1650847290221902.0
0.0,-2.0,-3.0,-7.0,0.0,-1.0,2.0,0.0,1650847290235485.0
0.0,-2.0,0.0,0.0,-3.0,0.0,2.0,-1.0,1650847290235485.0
2.0,0.0,0.0,-4.0,-2.0,-2.0,0.0,0.0,1650847290241473.0
1.0,-3.0,-2.0,-3.0,-3.0,0.0,-1.0,0.0,1650847290241473.0
-2.0,1.0,1.0,-1.0,-2.0,0.0,-1.0,-1.0,1650847290258686.0
-2.0,-2.0,0.0,2.0,2.0,2.0,0.0,-2.0,1650847290258686.0
0.0,-4.0,-1.0,6.0,-3.0,-3.0,-3.0,2.0,1650847290259693.0
0.0,6.0,0.0,-8.0,7.0,2.0,1.0,0.0,1650847290259693.0
1.0,0.0,3.0,9.0,4.0,0.0,0.0,0.0,1650847290280848.0
1.0,5.0,1.0,-6.0,-4.0,-5.0,-1.0,-1.0,1650847290280848.0
1.0,-4.0,-1.0,-1.0,-2.0,0.0,-1.0,-1.0,1650847290281805.0
-3.0,-2.0,0.0,1.0,-7.0,0.0,-1.0,-3.0,1650847290281805.0
-2.0,-3.0,-5.0,-2.0,0.0,-3.0,-2.0,2.0,1650847290294832.0
0.0,-2.0,0.0,4.0,3.0,2.0,1.0,2.0,1650847290294832.0
1.0,2.0,2.0,2.0,4.0,1.0,0.0,-3.0,1650847290303774.0
1.0,0.0,-2.0,-5.0,-6.0,-2.0,-2.0,0.0,1650847290303774.0
0.0,-1.0,-2.0,-2.0,-3.0,-2.0,-2.0,0.0,1650847290317810.0
-2.0,-6.0,-1.0,0.0,0.0,0.0,0.0,-1.0,1650847290317810.0
-1.0,5.0,-2.0,-7.0,1.0,0.0,0.0,0.0,1650847290325810.0
-3.0,-7.0,-4.0,-3.0,-2.0,-2.0,0.0,-1.0,1650847290325810.0
-1.0,0.0,2.0,1.0,-2.0,1.0,0.0,-2.0,1650847290339779.0
-1.0,3.0,1.0,1.0,1.0,0.0,-1.0,0.0,1650847290339779.0
-4.0,-1.0,-2.0,-1.0,-3.0,-2.0,0.0,-4.0,1650847290340748.0
-1.0,-2.0,-3.0,-5.0,0.0,0.0,-1.0,-1.0,1650847290340748.0
-1.0,6.0,3.0,6.0,2.0,1.0,0.0,2.0,1650847290362458.0
0.0,-2.0,2.0,6.0,5.0,1.0,-2.0,-1.0,1650847290362458.0
0.0,-13.0,-11.0,-13.0,-4.0,-2.0,0.0,1.0,1650847290363466.0
-1.0,9.0,4.0,10.0,-2.0,1.0,0.0,1.0,1650847290363466.0
0.0,1.0,5.0,-1.0,10.0,2.0,0.0,-1.0,1650847290377489.0
0.0,12.0,3.0,-5.0,-7.0,-4.0,1.0,0.0,1650847290377489.0
-3.0,-15.0,-7.0,0.0,-2.0,-1.0,-1.0,0.0,1650847290378438.0
-1.0,1.0,1.0,-1.0,-4.0,-2.0,-2.0,0.0,1650847290378438.0
0.0,-5.0,-5.0,-2.0,-2.0,0.0,0.0,-1.0,1650847290399759.0
1.0,2.0,0.0,4.0,0.0,-1.0,-1.0,-1.0,1650847290399759.0
-1.0,4.0,2.0,-2.0,0.0,-1.0,-1.0,0.0,1650847290400775.0
0.0,-2.0,-4.0,-4.0,-3.0,-1.0,-1.0,-1.0,1650847290400775.0
-1.0,0.0,0.0,2.0,0.0,-1.0,-1.0,-1.0,1650847290422729.0
-2.0,-7.0,-4.0,-7.0,0.0,1.0,1.0,0.0,1650847290422729.0
-1.0,4.0,2.0,2.0,-2.0,1.0,0.0,-1.0,1650847290423712.0
1.0,-5.0,-2.0,1.0,1.0,-4.0,-1.0,0.0,1650847290423712.0
1.0,1.0,-1.0,1.0,0.0,1.0,-1.0,0.0,1650847290437738.0
0.0,2.0,-2.0,-2.0,-2.0,3.0,0.0,0.0,1650847290437738.0
-1.0,3.0,-1.0,-2.0,-5.0,-1.0,0.0,-1.0,1650847290438672.0
-1.0,1.0,4.0,10.0,3.0,1.0,0.0,-1.0,1650847290438672.0
-1.0,1.0,3.0,4.0,5.0,1.0,1.0,0.0,1650847290459798.0
-1.0,-6.0,-7.0,-4.0,1.0,1.0,0.0,0.0,1650847290459798.0
3.0,7.0,3.0,3.0,2.0,0.0,-1.0,1.0,1650847290460729.0
0.0,-1.0,-1.0,-3.0,0.0,0.0,2.0,-1.0,1650847290460729.0
1.0,4.0,-1.0,-4.0,-5.0,0.0,0.0,-2.0,1650847290482885.0
0.0,-7.0,-1.0,2.0,-2.0,-3.0,-3.0,0.0,1650847290482885.0
0.0,3.0,5.0,3.0,0.0,0.0,-1.0,-2.0,1650847290482885.0
-1.0,-11.0,-5.0,-6.0,1.0,0.0,2.0,0.0,1650847290482885.0
-2.0,-3.0,-2.0,0.0,-1.0,-4.0,-2.0,-1.0,1650847290497893.0
1.0,-2.0,1.0,1.0,0.0,0.0,-2.0,-1.0,1650847290497893.0
0.0,2.0,1.0,0.0,2.0,2.0,1.0,-2.0,1650847290497893.0
-1.0,0.0,0.0,-2.0,-2.0,-1.0,-1.0,-2.0,1650847290497893.0
2.0,-2.0,-4.0,-3.0,-3.0,-1.0,-1.0,-2.0,1650847290520136.0
0.0,0.0,-2.0,-2.0,-1.0,-2.0,0.0,-2.0,1650847290520136.0
1.0,5.0,1.0,1.0,1.0,-1.0,1.0,1.0,1650847290521073.0
0.0,-2.0,-2.0,-2.0,-3.0,-3.0,-4.0,1.0,1650847290521073.0
-1.0,-5.0,-2.0,-5.0,0.0,2.0,0.0,1.0,1650847290543083.0
-1.0,3.0,0.0,-3.0,0.0,0.0,0.0,0.0,1650847290543083.0
-1.0,-2.0,-2.0,-3.0,-2.0,-3.0,-3.0,-2.0,1650847290544012.0
1.0,4.0,-3.0,-8.0,-2.0,1.0,0.0,0.0,1650847290544012.0
-2.0,-2.0,2.0,10.0,5.0,0.0,0.0,-1.0,1650847290557973.0
0.0,2.0,-3.0,-1.0,-6.0,-3.0,0.0,-1.0,1650847290557973.0
-1.0,-5.0,-1.0,0.0,6.0,1.0,0.0,0.0,1650847290557973.0
-2.0,1.0,2.0,-5.0,-5.0,-1.0,0.0,-1.0,1650847290557973.0
-3.0,-1.0,-2.0,-3.0,-3.0,-2.0,-1.0,-1.0,1650847290580103.0
0.0,0.0,-1.0,2.0,-1.0,-1.0,-1.0,0.0,1650847290580103.0
1.0,2.0,1.0,2.0,-2.0,0.0,0.0,0.0,1650847290581034.0
-1.0,2.0,2.0,-1.0,1.0,-1.0,0.0,0.0,1650847290581034.0
-1.0,-2.0,-3.0,-2.0,-3.0,-2.0,-2.0,-1.0,1650847290602162.0
0.0,-2.0,-1.0,2.0,0.0,0.0,1.0,0.0,1650847290602162.0
-1.0,-4.0,-2.0,1.0,-1.0,1.0,1.0,0.0,1650847290603105.0
1.0,-1.0,-2.0,1.0,0.0,0.0,-1.0,0.0,1650847290603105.0
1.0,-4.0,-3.0,-3.0,-3.0,-4.0,-1.0,0.0,1650847290617066.0
-2.0,7.0,4.0,-2.0,2.0,0.0,-1.0,0.0,1650847290617066.0
-1.0,0.0,1.0,2.0,0.0,0.0,0.0,0.0,1650847290618063.0
0.0,0.0,-1.0,1.0,-3.0,-2.0,-1.0,-1.0,1650847290618063.0
-3.0,1.0,1.0,0.0,3.0,1.0,-2.0,-1.0,1650847290640992.0
-2.0,-4.0,-6.0,-2.0,-5.0,-2.0,-2.0,-1.0,1650847290640992.0
1.0,1.0,4.0,10.0,14.0,4.0,2.0,2.0,1650847290640992.0
-2.0,0.0,-2.0,-2.0,-3.0,-2.0,-3.0,-2.0,1650847290640992.0
0.0,1.0,0.0,2.0,-2.0,-1.0,2.0,0.0,1650847290662939.0
0.0,-4.0,-2.0,-3.0,-1.0,-1.0,-1.0,-2.0,1650847290662939.0
0.0,2.0,-1.0,-1.0,-4.0,-3.0,-3.0,-1.0,1650847290662939.0
0.0,0.0,0.0,2.0,2.0,2.0,1.0,0.0,1650847290662939.0
1.0,-2.0,-3.0,-7.0,-3.0,-2.0,-2.0,-1.0,1650847290677940.0
1.0,-1.0,-1.0,2.0,2.0,0.0,-2.0,1.0,1650847290677940.0
0.0,-2.0,-1.0,-3.0,-5.0,-1.0,-1.0,0.0,1650847290677940.0
-1.0,1.0,0.0,2.0,2.0,1.0,0.0,0.0,1650847290677940.0
0.0,0.0,-1.0,-3.0,-4.0,-2.0,-1.0,0.0,1650847290700322.0
0.0,-3.0,-1.0,-1.0,3.0,-2.0,1.0,1.0,1650847290700322.0
0.0,3.0,0.0,1.0,-2.0,0.0,-3.0,-2.0,1650847290700322.0
-2.0,-7.0,-2.0,1.0,-2.0,-1.0,-1.0,-2.0,1650847290700322.0
2.0,1.0,-1.0,-1.0,1.0,2.0,0.0,3.0,1650847290722887.0
0.0,1.0,0.0,-2.0,-1.0,-1.0,0.0,-2.0,1650847290722887.0
-2.0,-2.0,-2.0,-5.0,-6.0,-1.0,-1.0,-2.0,1650847290722887.0
1.0,-1.0,0.0,-1.0,0.0,-2.0,0.0,0.0,1650847290722887.0
-1.0,2.0,-1.0,-5.0,-8.0,-2.0,0.0,-2.0,1650847290737842.0
-2.0,-6.0,1.0,13.0,17.0,4.0,2.0,0.0,1650847290737842.0
1.0,-1.0,-1.0,-2.0,2.0,2.0,1.0,2.0,1650847290737842.0
-1.0,-1.0,0.0,6.0,1.0,-1.0,-3.0,-1.0,1650847290737842.0
-1.0,2.0,0.0,-7.0,-4.0,-2.0,0.0,-4.0,1650847290759800.0
0.0,-2.0,-1.0,-4.0,-8.0,-3.0,0.0,-1.0,1650847290759800.0
-1.0,1.0,-2.0,-5.0,-3.0,-2.0,-1.0,-2.0,1650847290760823.0
-1.0,3.0,2.0,0.0,3.0,2.0,-1.0,-1.0,1650847290760823.0
1.0,1.0,-1.0,4.0,1.0,0.0,1.0,0.0,1650847290782964.0
1.0,3.0,-1.0,-4.0,-5.0,0.0,-1.0,0.0,1650847290782964.0
-3.0,-8.0,-1.0,1.0,4.0,-1.0,-1.0,-3.0,1650847290782964.0
0.0,1.0,-1.0,-5.0,-1.0,0.0,0.0,1.0,1650847290782964.0
1.0,-2.0,-4.0,1.0,-2.0,-1.0,-2.0,-1.0,1650847290797806.0
1.0,3.0,2.0,-1.0,1.0,2.0,-2.0,1.0,1650847290797806.0
-1.0,2.0,1.0,1.0,1.0,2.0,-1.0,0.0,1650847290798738.0
0.0,0.0,0.0,-10.0,-4.0,-3.0,-1.0,0.0,1650847290798738.0
-1.0,-6.0,-2.0,16.0,6.0,-1.0,-1.0,-3.0,1650847290820372.0
1.0,7.0,2.0,-6.0,-5.0,2.0,2.0,0.0,1650847290820372.0
0.0,-2.0,0.0,5.0,3.0,-1.0,1.0,-2.0,1650847290820372.0
1.0,0.0,0.0,-1.0,0.0,-1.0,0.0,-2.0,1650847290820372.0
-3.0,-4.0,-2.0,-10.0,-4.0,-1.0,-2.0,-1.0,1650847290842965.0
-2.0,-1.0,-1.0,-2.0,-3.0,1.0,0.0,-3.0,1650847290842965.0
-1.0,0.0,-4.0,-1.0,-4.0,-3.0,-3.0,-1.0,1650847290843774.0
-2.0,-6.0,-4.0,-1.0,-1.0,-1.0,-1.0,0.0,1650847290843774.0
0.0,5.0,4.0,3.0,4.0,2.0,1.0,2.0,1650847290857917.0
-2.0,-7.0,-3.0,4.0,-1.0,-3.0,-1.0,-1.0,1650847290857917.0
1.0,0.0,-3.0,-5.0,-5.0,-2.0,0.0,2.0,1650847290857917.0
-1.0,-1.0,-1.0,0.0,1.0,0.0,-2.0,0.0,1650847290857917.0
-2.0,1.0,0.0,-3.0,0.0,1.0,-2.0,0.0,1650847290879837.0
-1.0,-4.0,-3.0,-5.0,0.0,-3.0,-1.0,-1.0,1650847290879837.0
-1.0,5.0,5.0,16.0,-2.0,-3.0,-1.0,-2.0,1650847290880836.0
4.0,13.0,1.0,10.0,12.0,4.0,1.0,1.0,1650847290880836.0
0.0,-4.0,-4.0,-11.0,-6.0,0.0,0.0,-2.0,1650847290902847.0
0.0,-4.0,1.0,-4.0,-3.0,-1.0,0.0,-1.0,1650847290902847.0
0.0,6.0,7.0,6.0,1.0,3.0,-1.0,-1.0,1650847290903788.0
-2.0,-5.0,-4.0,-5.0,-10.0,-4.0,-3.0,-3.0,1650847290903788.0
2.0,-1.0,1.0,0.0,-1.0,-3.0,-2.0,1.0,1650847290917739.0
-1.0,0.0,-3.0,-1.0,1.0,-1.0,0.0,-2.0,1650847290917739.0
-1.0,-5.0,-3.0,-7.0,-5.0,-1.0,0.0,-1.0,1650847290918736.0
0.0,-2.0,1.0,2.0,1.0,0.0,-1.0,0.0,1650847290918736.0
-1.0,-3.0,-1.0,-5.0,-3.0,-1.0,0.0,-1.0,1650847290939679.0
-1.0,-1.0,-2.0,-2.0,-1.0,0.0,0.0,-1.0,1650847290939679.0
1.0,-4.0,-4.0,-2.0,1.0,-2.0,0.0,0.0,1650847290940676.0
-1.0,-2.0,-2.0,-2.0,-2.0,-1.0,2.0,0.0,1650847290940676.0
-1.0,0.0,0.0,-1.0,0.0,-1.0,-2.0,0.0,1650847290962879.0
-1.0,3.0,0.0,2.0,-1.0,-1.0,-1.0,-1.0,1650847290962879.0
0.0,-2.0,-1.0,-3.0,0.0,-2.0,-1.0,0.0,1650847290962879.0
-1.0,-1.0,-2.0,-5.0,-2.0,0.0,0.0,-1.0,1650847290962879.0
-2.0,-3.0,-1.0,9.0,0.0,-2.0,-2.0,-1.0,1650847290977840.0
-1.0,-5.0,-1.0,0.0,3.0,-2.0,0.0,0.0,1650847290977840.0
-1.0,-1.0,-2.0,-3.0,3.0,2.0,0.0,0.0,1650847290978783.0
1.0,2.0,2.0,8.0,-2.0,-1.0,0.0,-2.0,1650847290978783.0
-1.0,-11.0,-6.0,-3.0,-3.0,-3.0,-1.0,0.0,1650847290999781.0
2.0,1.0,-1.0,-1.0,3.0,2.0,-2.0,1.0,1650847290999781.0
-2.0,2.0,1.0,5.0,2.0,2.0,-1.0,0.0,1650847291007692.0
0.0,-2.0,-1.0,-5.0,-2.0,-3.0,-3.0,0.0,1650847291007692.0
1.0,2.0,1.0,0.0,1.0,-1.0,-1.0,0.0,1650847291022859.0
-2.0,-2.0,-2.0,-2.0,-4.0,-1.0,-1.0,-1.0,1650847291022859.0
-2.0,-4.0,-2.0,-4.0,-2.0,-1.0,-1.0,-1.0,1650847291022859.0
-1.0,-3.0,-2.0,4.0,1.0,-3.0,-1.0,2.0,1650847291022859.0
-1.0,5.0,2.0,-4.0,1.0,3.0,1.0,-1.0,1650847291060900.0
-2.0,-2.0,0.0,0.0,-2.0,0.0,-1.0,-1.0,1650847291060900.0
1.0,-3.0,-3.0,-2.0,-2.0,0.0,-1.0,0.0,1650847291061907.0
0.0,0.0,1.0,-1.0,-1.0,0.0,2.0,-1.0,1650847291061907.0
-1.0,5.0,1.0,-2.0,0.0,1.0,0.0,-1.0,1650847291063904.0
0.0,-1.0,-1.0,2.0,-2.0,-1.0,-1.0,-2.0,1650847291063904.0
-1.0,-1.0,-3.0,-3.0,-1.0,-1.0,0.0,-1.0,1650847291067893.0
-2.0,2.0,2.0,-1.0,-1.0,-1.0,-1.0,-2.0,1650847291067893.0
-1.0,-3.0,-1.0,-3.0,0.0,0.0,-1.0,-1.0,1650847291081974.0
1.0,6.0,2.0,8.0,6.0,1.0,1.0,0.0,1650847291081974.0
-2.0,-2.0,-1.0,-6.0,-3.0,-2.0,1.0,-1.0,1650847291089955.0
0.0,-2.0,-2.0,-5.0,-2.0,1.0,0.0,-1.0,1650847291089955.0
0.0,0.0,1.0,5.0,1.0,-1.0,-2.0,0.0,1650847291104859.0
1.0,0.0,1.0,-3.0,-1.0,1.0,-1.0,0.0,1650847291104859.0
-1.0,3.0,-2.0,-4.0,-2.0,0.0,1.0,-1.0,1650847291105790.0
0.0,0.0,0.0,0.0,1.0,-1.0,0.0,0.0,1650847291105790.0
2.0,0.0,0.0,1.0,0.0,0.0,0.0,1.0,1650847291127851.0
-3.0,-2.0,-2.0,1.0,-1.0,-1.0,0.0,-1.0,1650847291127851.0
1.0,-3.0,-2.0,-6.0,-3.0,-3.0,-1.0,0.0,1650847291128852.0
-1.0,-1.0,-1.0,5.0,5.0,2.0,-1.0,-1.0,1650847291128852.0
-1.0,3.0,-1.0,-1.0,1.0,1.0,0.0,-1.0,1650847291142880.0
-2.0,1.0,-3.0,-2.0,-2.0,-1.0,0.0,-1.0,1650847291142880.0
0.0,0.0,-1.0,1.0,-2.0,-5.0,0.0,0.0,1650847291142880.0
-2.0,0.0,0.0,-1.0,-2.0,0.0,1.0,-2.0,1650847291142880.0
0.0,1.0,-1.0,-2.0,0.0,1.0,-1.0,-2.0,1650847291164834.0
-1.0,-4.0,-1.0,-1.0,-2.0,-2.0,0.0,-1.0,1650847291164834.0
1.0,2.0,-1.0,-2.0,-2.0,-1.0,-1.0,-2.0,1650847291165773.0
0.0,2.0,1.0,-2.0,0.0,-1.0,1.0,-2.0,1650847291165773.0
-3.0,-7.0,-5.0,3.0,1.0,1.0,0.0,-3.0,1650847291179780.0
2.0,2.0,1.0,-4.0,-1.0,-2.0,1.0,-1.0,1650847291179780.0
-1.0,-1.0,1.0,3.0,4.0,2.0,-2.0,-1.0,1650847291187780.0
0.0,1.0,-2.0,-2.0,-2.0,-1.0,1.0,0.0,1650847291187780.0
0.0,-1.0,-1.0,0.0,-2.0,-4.0,-1.0,-1.0,1650847291202740.0
0.0,-2.0,-1.0,-2.0,-2.0,0.0,0.0,0.0,1650847291202740.0
-2.0,-1.0,0.0,-7.0,2.0,2.0,0.0,2.0,1650847291203673.0
1.0,-3.0,-2.0,-6.0,-4.0,-2.0,-1.0,0.0,1650847291203673.0
0.0,2.0,2.0,1.0,-3.0,-1.0,-1.0,1.0,1650847291224682.0
-2.0,-2.0,1.0,5.0,6.0,3.0,1.0,0.0,1650847291224682.0
-1.0,-3.0,-2.0,-1.0,-3.0,-2.0,-2.0,-1.0,1650847291225626.0
-2.0,-4.0,-5.0,-1.0,-1.0,0.0,-2.0,0.0,1650847291225626.0
-1.0,0.0,-2.0,-5.0,-2.0,-1.0,-1.0,-1.0,1650847291248616.0
-1.0,0.0,1.0,0.0,2.0,1.0,-3.0,-2.0,1650847291248616.0
0.0,1.0,0.0,1.0,-1.0,0.0,0.0,2.0,1650847291248865.0
-1.0,0.0,2.0,-1.0,0.0,0.0,-1.0,1.0,1650847291248865.0
-1.0,-3.0,0.0,2.0,2.0,0.0,1.0,0.0,1650847291262897.0
0.0,0.0,-3.0,-2.0,-4.0,-2.0,-3.0,-1.0,1650847291262897.0
1.0,0.0,0.0,4.0,7.0,1.0,0.0,-1.0,1650847291262897.0
-2.0,-3.0,-1.0,1.0,-1.0,2.0,0.0,0.0,1650847291262897.0
1.0,0.0,0.0,-3.0,-2.0,-2.0,-1.0,0.0,1650847291284813.0
0.0,1.0,0.0,-3.0,0.0,-1.0,-1.0,0.0,1650847291284813.0
-1.0,-3.0,0.0,-2.0,-4.0,-1.0,0.0,-4.0,1650847291285810.0
-1.0,0.0,0.0,1.0,-1.0,-1.0,-2.0,-1.0,1650847291285810.0
-2.0,0.0,0.0,3.0,-1.0,1.0,1.0,0.0,1650847291307752.0
0.0,-2.0,0.0,-1.0,2.0,1.0,2.0,-1.0,1650847291307752.0
-2.0,3.0,-1.0,0.0,-2.0,-3.0,0.0,0.0,1650847291308753.0
0.0,-5.0,-1.0,1.0,2.0,-1.0,-2.0,-1.0,1650847291308753.0
-1.0,0.0,0.0,-4.0,-2.0,-1.0,-2.0,1.0,1650847291322756.0
-2.0,3.0,-1.0,-3.0,-3.0,1.0,-1.0,-2.0,1650847291322756.0
1.0,1.0,3.0,16.0,7.0,1.0,1.0,-2.0,1650847291329762.0
0.0,-1.0,0.0,-2.0,-1.0,-1.0,1.0,0.0,1650847291329762.0
-1.0,5.0,1.0,-3.0,-2.0,-1.0,-1.0,1.0,1650847291344839.0
-1.0,-3.0,-2.0,1.0,-1.0,-1.0,0.0,0.0,1650847291344839.0
-1.0,-6.0,-4.0,-7.0,-3.0,0.0,0.0,-1.0,1650847291345770.0
0.0,3.0,0.0,0.0,-3.0,0.0,-1.0,-1.0,1650847291345770.0
0.0,-1.0,1.0,0.0,3.0,3.0,-1.0,0.0,1650847291367845.0
0.0,2.0,-1.0,0.0,-3.0,-1.0,-2.0,1.0,1650847291367845.0
0.0,-6.0,-2.0,-1.0,-3.0,-1.0,-1.0,-1.0,1650847291368779.0
-1.0,0.0,-1.0,0.0,2.0,2.0,0.0,-3.0,1650847291368779.0
0.0,-1.0,-2.0,-3.0,-3.0,-1.0,-1.0,-1.0,1650847291382799.0
1.0,0.0,-2.0,0.0,1.0,1.0,-2.0,0.0,1650847291382799.0
-2.0,2.0,0.0,-1.0,1.0,-1.0,0.0,0.0,1650847291383736.0
1.0,0.0,-2.0,-2.0,-5.0,0.0,-1.0,-1.0,1650847291383736.0
0.0,-1.0,-1.0,-2.0,3.0,-2.0,1.0,0.0,1650847291404911.0
-3.0,-1.0,2.0,1.0,-3.0,-2.0,0.0,-1.0,1650847291404911.0
0.0,2.0,0.0,-3.0,0.0,-2.0,-1.0,-1.0,1650847291405842.0
0.0,0.0,-5.0,-7.0,-2.0,-3.0,-1.0,-1.0,1650847291405842.0
1.0,-3.0,-1.0,13.0,4.0,1.0,0.0,0.0,1650847291428701.0
-1.0,1.0,0.0,-4.0,-2.0,0.0,1.0,0.0,1650847291428701.0
-1.0,0.0,-1.0,5.0,-2.0,0.0,0.0,0.0,1650847291428701.0
-1.0,-4.0,0.0,-3.0,-1.0,-4.0,-3.0,-3.0,1650847291428701.0
1.0,-3.0,-1.0,-5.0,-2.0,0.0,-1.0,-2.0,1650847291442825.0
-3.0,-5.0,-1.0,-2.0,-5.0,-2.0,0.0,-1.0,1650847291442825.0
1.0,-5.0,-4.0,-4.0,-3.0,-1.0,-2.0,1.0,1650847291442825.0
-3.0,1.0,1.0,4.0,0.0,1.0,-1.0,0.0,1650847291442825.0
-4.0,0.0,2.0,0.0,5.0,0.0,0.0,-2.0,1650847291464803.0
-1.0,-2.0,-1.0,1.0,1.0,-1.0,-1.0,0.0,1650847291464803.0
-1.0,1.0,-1.0,-6.0,-4.0,1.0,-1.0,-1.0,1650847291465771.0
-2.0,0.0,1.0,0.0,3.0,1.0,1.0,0.0,1650847291465771.0
1.0,0.0,-1.0,-3.0,-2.0,-2.0,-2.0,0.0,1650847291488717.0
-1.0,-5.0,-1.0,1.0,0.0,-2.0,-1.0,0.0,1650847291488717.0
-2.0,1.0,0.0,-1.0,0.0,0.0,-1.0,-1.0,1650847291488717.0
0.0,0.0,1.0,-1.0,1.0,0.0,0.0,-1.0,1650847291488717.0
0.0,2.0,-1.0,-1.0,-4.0,-3.0,0.0,0.0,1650847291502675.0
1.0,0.0,-1.0,0.0,0.0,2.0,0.0,1.0,1650847291502675.0
-3.0,-1.0,0.0,-2.0,-1.0,1.0,-1.0,1.0,1650847291503675.0
2.0,0.0,3.0,8.0,2.0,-1.0,0.0,1.0,1650847291503675.0
-2.0,-3.0,-4.0,-4.0,-4.0,-1.0,0.0,-3.0,1650847291524790.0
0.0,1.0,-1.0,0.0,-1.0,1.0,0.0,0.0,1650847291524790.0
-1.0,-1.0,-1.0,-1.0,2.0,0.0,0.0,-1.0,1650847291525721.0
0.0,0.0,-2.0,0.0,0.0,0.0,0.0,-1.0,1650847291525721.0
-1.0,4.0,2.0,-2.0,0.0,1.0,0.0,0.0,1650847291547881.0
1.0,-1.0,-1.0,1.0,-4.0,-2.0,-1.0,-2.0,1650847291547881.0
3.0,5.0,1.0,-2.0,1.0,-1.0,-2.0,1.0,1650847291548824.0
-1.0,-4.0,-2.0,-1.0,-3.0,-1.0,0.0,-1.0,1650847291548824.0
-2.0,0.0,1.0,4.0,1.0,1.0,-1.0,-1.0,1650847291562945.0
-1.0,-2.0,-1.0,0.0,2.0,-1.0,-1.0,-2.0,1650847291562945.0
0.0,0.0,1.0,-2.0,-4.0,-1.0,1.0,0.0,1650847291562945.0
0.0,2.0,0.0,0.0,-1.0,0.0,1.0,-1.0,1650847291562945.0
-2.0,-3.0,-3.0,-5.0,-4.0,-2.0,0.0,0.0,1650847291584958.0
1.0,2.0,-1.0,-2.0,1.0,0.0,0.0,1.0,1650847291584958.0
-1.0,1.0,1.0,2.0,3.0,2.0,-1.0,-2.0,1650847291585887.0
-3.0,-4.0,-2.0,1.0,-2.0,0.0,-1.0,-1.0,1650847291585887.0
3.0,7.0,4.0,1.0,2.0,-2.0,0.0,1.0,1650847291607947.0
-2.0,-4.0,0.0,-2.0,-1.0,0.0,0.0,-2.0,1650847291607947.0
0.0,-1.0,-1.0,-3.0,-5.0,-1.0,0.0,-4.0,1650847291608955.0
0.0,-5.0,-2.0,-1.0,3.0,1.0,-3.0,0.0,1650847291608955.0
0.0,-1.0,-1.0,-4.0,-3.0,-1.0,-3.0,-2.0,1650847291622373.0
1.0,0.0,0.0,1.0,-2.0,-2.0,0.0,-2.0,1650847291622373.0
1.0,-1.0,-1.0,-2.0,-2.0,-3.0,0.0,0.0,1650847291630448.0
-1.0,0.0,0.0,1.0,0.0,-3.0,-1.0,1.0,1650847291630448.0
0.0,-3.0,-1.0,0.0,2.0,2.0,0.0,0.0,1650847291645469.0
-2.0,-2.0,-1.0,-3.0,-2.0,-2.0,-1.0,0.0,1650847291645469.0
-1.0,-2.0,0.0,1.0,-1.0,-1.0,-1.0,-2.0,1650847291645469.0
-2.0,-3.0,0.0,-2.0,-3.0,-1.0,0.0,-1.0,1650847291645469.0
-1.0,0.0,1.0,-3.0,-2.0,0.0,0.0,-1.0,1650847291668473.0
-1.0,-2.0,-2.0,-1.0,0.0,-2.0,-3.0,2.0,1650847291668473.0
-1.0,3.0,1.0,6.0,0.0,0.0,-2.0,0.0,1650847291668473.0
0.0,3.0,0.0,-1.0,2.0,1.0,1.0,1.0,1650847291668473.0
1.0,-2.0,-2.0,1.0,-3.0,-3.0,1.0,-1.0,1650847291682913.0
-1.0,-3.0,1.0,-1.0,-3.0,1.0,1.0,-2.0,1650847291682913.0
-2.0,-3.0,0.0,0.0,-2.0,-1.0,0.0,-2.0,1650847291683494.0
2.0,1.0,1.0,-3.0,2.0,0.0,-1.0,0.0,1650847291683494.0
0.0,-3.0,-3.0,1.0,-1.0,-2.0,-1.0,2.0,1650847291705850.0
0.0,3.0,-1.0,0.0,1.0,-1.0,1.0,0.0,1650847291705850.0
-2.0,0.0,0.0,-2.0,-2.0,-2.0,0.0,0.0,1650847291712830.0
1.0,0.0,-2.0,0.0,-4.0,-2.0,0.0,-1.0,1650847291712830.0
0.0,-2.0,1.0,0.0,-1.0,1.0,-1.0,-1.0,1650847291727978.0
1.0,-2.0,1.0,-1.0,0.0,1.0,-2.0,-2.0,1650847291727978.0
1.0,5.0,1.0,-5.0,-3.0,-4.0,0.0,1.0,1650847291727978.0
-2.0,-5.0,-6.0,0.0,1.0,-1.0,-1.0,-1.0,1650847291727978.0
-2.0,0.0,3.0,14.0,9.0,2.0,1.0,0.0,1650847291742968.0
-2.0,1.0,1.0,4.0,2.0,1.0,-1.0,-2.0,1650847291742968.0
0.0,-4.0,-1.0,0.0,-2.0,0.0,-1.0,-1.0,1650847291742968.0
-2.0,0.0,0.0,-9.0,-6.0,0.0,0.0,-2.0,1650847291742968.0
-1.0,3.0,3.0,0.0,-2.0,-1.0,-3.0,-1.0,1650847291764849.0
1.0,-3.0,-4.0,1.0,-1.0,-3.0,-1.0,0.0,1650847291764849.0
0.0,0.0,-2.0,-4.0,1.0,1.0,-1.0,-1.0,1650847291765779.0
0.0,3.0,2.0,4.0,7.0,2.0,0.0,-1.0,1650847291765779.0
0.0,-6.0,-6.0,-6.0,-5.0,-2.0,1.0,-1.0,1650847291787847.0
1.0,-1.0,0.0,-5.0,0.0,0.0,-2.0,0.0,1650847291787847.0
-3.0,-4.0,-2.0,8.0,0.0,1.0,1.0,-1.0,1650847291788776.0
0.0,-1.0,0.0,-3.0,-4.0,-3.0,0.0,-1.0,1650847291788776.0
2.0,0.0,-2.0,-4.0,-4.0,-4.0,0.0,0.0,1650847291802835.0
-2.0,1.0,0.0,-4.0,0.0,-1.0,1.0,1.0,1650847291802835.0
1.0,6.0,0.0,-4.0,-1.0,-2.0,0.0,0.0,1650847291802835.0
0.0,-3.0,1.0,5.0,-1.0,-3.0,-1.0,-1.0,1650847291802835.0
-1.0,-4.0,-3.0,-2.0,0.0,0.0,-2.0,0.0,1650847291824833.0
-1.0,9.0,4.0,0.0,-5.0,0.0,0.0,0.0,1650847291824833.0
0.0,-6.0,-3.0,-3.0,1.0,0.0,0.0,0.0,1650847291825763.0
1.0,8.0,5.0,20.0,7.0,4.0,0.0,2.0,1650847291825763.0
-2.0,-8.0,-2.0,-5.0,0.0,1.0,0.0,-1.0,1650847291847938.0
2.0,8.0,-1.0,-3.0,-4.0,-2.0,-1.0,-1.0,1650847291847938.0
2.0,-3.0,1.0,4.0,2.0,0.0,0.0,1.0,1650847291847938.0
0.0,-1.0,-1.0,-7.0,-1.0,0.0,0.0,-2.0,1650847291847938.0
-3.0,2.0,-1.0,0.0,-3.0,-2.0,-1.0,-1.0,1650847291861886.0
-1.0,-6.0,-3.0,-2.0,0.0,1.0,0.0,0.0,1650847291861886.0
-1.0,-3.0,0.0,-3.0,-3.0,-2.0,0.0,-2.0,1650847291869818.0
0.0,2.0,1.0,-2.0,1.0,-1.0,-1.0,-1.0,1650847291869818.0
0.0,1.0,-3.0,2.0,0.0,-1.0,-1.0,1.0,1650847291884849.0
-1.0,-6.0,-2.0,-1.0,0.0,0.0,0.0,-2.0,1650847291884849.0
0.0,3.0,-1.0,-4.0,-2.0,1.0,-1.0,0.0,1650847291885779.0
-1.0,-3.0,-1.0,-4.0,-2.0,0.0,-2.0,0.0,1650847291885779.0
2.0,-2.0,1.0,-1.0,-1.0,-1.0,-2.0,-1.0,1650847291907906.0
0.0,-1.0,-1.0,-2.0,2.0,1.0,0.0,0.0,1650847291907906.0
-1.0,1.0,-2.0,-2.0,-1.0,2.0,0.0,0.0,1650847291907906.0
0.0,-1.0,-2.0,-1.0,-3.0,-4.0,-1.0,0.0,1650847291907906.0
-2.0,2.0,1.0,-4.0,-2.0,-2.0,1.0,-1.0,1650847291921920.0
-3.0,-5.0,0.0,5.0,4.0,1.0,1.0,-2.0,1650847291921920.0
0.0,4.0,1.0,-3.0,-2.0,-3.0,-1.0,1.0,1650847291929930.0
-1.0,-3.0,-3.0,2.0,0.0,-2.0,-2.0,-1.0,1650847291929930.0
-1.0,1.0,0.0,-4.0,-5.0,2.0,1.0,-2.0,1650847291945044.0
0.0,-1.0,-1.0,1.0,-2.0,-2.0,-1.0,0.0,1650847291945044.0
-1.0,-6.0,-4.0,0.0,-2.0,-2.0,1.0,0.0,1650847291945975.0
-1.0,2.0,3.0,-2.0,0.0,0.0,2.0,0.0,1650847291945975.0
0.0,2.0,0.0,-7.0,0.0,1.0,-1.0,1.0,1650847291968017.0
-1.0,-2.0,1.0,13.0,3.0,-2.0,-1.0,1.0,1650847291968017.0
0.0,1.0,-1.0,0.0,-2.0,1.0,-2.0,0.0,1650847291968017.0
-2.0,-3.0,-2.0,-3.0,-4.0,-1.0,0.0,0.0,1650847291968017.0
1.0,-2.0,-1.0,1.0,0.0,-3.0,-2.0,-1.0,1650847291982049.0
1.0,2.0,-2.0,-8.0,-2.0,-2.0,-2.0,0.0,1650847291982049.0
-3.0,-1.0,2.0,0.0,1.0,-1.0,-2.0,-2.0,1650847291990115.0
-1.0,-4.0,-2.0,-1.0,-1.0,-1.0,1.0,-2.0,1650847291990115.0
-1.0,-1.0,-1.0,1.0,-1.0,-1.0,0.0,-1.0,1650847292004851.0
-1.0,0.0,1.0,-2.0,-1.0,-2.0,1.0,1.0,1650847292004851.0
0.0,0.0,-1.0,-1.0,-1.0,2.0,0.0,0.0,1650847292005783.0
1.0,0.0,-3.0,-2.0,0.0,1.0,-2.0,0.0,1650847292005783.0
0.0,2.0,3.0,1.0,3.0,1.0,0.0,-1.0,1650847292027760.0
-2.0,-2.0,-3.0,-3.0,-4.0,0.0,0.0,-2.0,1650847292027760.0
-1.0,-2.0,-2.0,3.0,1.0,-3.0,-1.0,1.0,1650847292028722.0
1.0,6.0,0.0,-2.0,0.0,0.0,0.0,1.0,1650847292028722.0
-1.0,-2.0,-2.0,2.0,0.0,1.0,-1.0,2.0,1650847292041654.0
0.0,-6.0,-1.0,-1.0,-1.0,1.0,-1.0,0.0,1650847292041654.0
0.0,-1.0,1.0,5.0,1.0,-2.0,-1.0,-1.0,1650847292049817.0
0.0,0.0,0.0,-3.0,-1.0,1.0,0.0,0.0,1650847292049817.0
-1.0,2.0,0.0,1.0,1.0,-1.0,-1.0,-1.0,1650847292064842.0
-1.0,-5.0,-4.0,-5.0,0.0,-1.0,-3.0,0.0,1650847292064842.0
-1.0,-3.0,2.0,0.0,-2.0,2.0,0.0,-1.0,1650847292065772.0
-3.0,-2.0,-1.0,-2.0,0.0,0.0,-2.0,0.0,1650847292065772.0
-1.0,-2.0,-1.0,1.0,-1.0,-3.0,-2.0,1.0,1650847292087784.0
1.0,2.0,1.0,0.0,-2.0,-2.0,0.0,-1.0,1650847292087784.0
0.0,0.0,-2.0,-3.0,0.0,0.0,0.0,-1.0,1650847292088733.0
-1.0,-4.0,-1.0,-1.0,1.0,0.0,-2.0,-2.0,1650847292088733.0
2.0,2.0,-2.0,-7.0,-4.0,-3.0,0.0,-1.0,1650847292101743.0
-1.0,3.0,2.0,1.0,-1.0,1.0,2.0,-2.0,1650847292101743.0
1.0,4.0,1.0,0.0,0.0,0.0,-1.0,-1.0,1650847292109655.0
1.0,0.0,-1.0,2.0,-3.0,-2.0,-1.0,0.0,1650847292109655.0
-3.0,-7.0,-2.0,0.0,-1.0,1.0,-1.0,-2.0,1650847292124794.0
-3.0,1.0,-4.0,-3.0,-3.0,-1.0,-1.0,0.0,1650847292124794.0
0.0,-5.0,-1.0,-3.0,0.0,-2.0,-1.0,-1.0,1650847292125738.0
1.0,2.0,2.0,-2.0,-4.0,-2.0,0.0,0.0,1650847292125738.0
-1.0,-3.0,1.0,4.0,7.0,4.0,-1.0,0.0,1650847292147735.0
3.0,1.0,-3.0,-3.0,-3.0,-3.0,-1.0,2.0,1650847292147735.0
-2.0,-2.0,0.0,4.0,0.0,1.0,1.0,0.0,1650847292148705.0
0.0,-3.0,0.0,-6.0,-3.0,-1.0,-1.0,2.0,1650847292148705.0
2.0,-3.0,-4.0,0.0,-5.0,-6.0,-1.0,0.0,1650847292170673.0
0.0,3.0,4.0,2.0,6.0,5.0,2.0,-3.0,1650847292170673.0
-5.0,7.0,4.0,-4.0,0.0,4.0,2.0,-4.0,1650847292171644.0
0.0,-7.0,-9.0,-2.0,-3.0,-8.0,-4.0,1.0,1650847292171644.0
6.0,-1.0,-4.0,2.0,-2.0,-3.0,-3.0,3.0,1650847292184722.0
-7.0,4.0,4.0,1.0,5.0,7.0,2.0,-2.0,1650847292184722.0
-2.0,-1.0,-2.0,-2.0,0.0,-2.0,1.0,-1.0,1650847292185653.0
4.0,-7.0,-7.0,0.0,-3.0,-7.0,-3.0,1.0,1650847292185653.0
-5.0,2.0,3.0,-4.0,-4.0,3.0,3.0,-3.0,1650847292207660.0
-4.0,-3.0,-1.0,-2.0,-2.0,-3.0,-1.0,-1.0,1650847292207660.0
3.0,-5.0,-4.0,4.0,1.0,-5.0,-4.0,2.0,1650847292208591.0
-1.0,1.0,0.0,-7.0,1.0,3.0,1.0,1.0,1650847292208591.0
-2.0,6.0,4.0,-2.0,0.0,4.0,4.0,-2.0,1650847292230703.0
0.0,-8.0,-5.0,1.0,-3.0,-4.0,-2.0,1.0,1650847292230703.0
3.0,1.0,-5.0,-3.0,-4.0,-5.0,-2.0,2.0,1650847292231634.0
-5.0,3.0,4.0,2.0,1.0,4.0,2.0,-3.0,1650847292231634.0
-1.0,0.0,-1.0,-6.0,-4.0,-2.0,-1.0,-3.0,1650847292244669.0
3.0,-4.0,-4.0,2.0,-1.0,-7.0,-5.0,1.0,1650847292244669.0
-1.0,2.0,2.0,0.0,-2.0,2.0,1.0,-1.0,1650847292245603.0
-2.0,4.0,2.0,-1.0,1.0,4.0,1.0,-1.0,1650847292245603.0
1.0,-5.0,-1.0,6.0,0.0,-5.0,-2.0,1.0,1650847292267604.0
1.0,-2.0,0.0,1.0,0.0,-2.0,0.0,1.0,1650847292267604.0
-1.0,6.0,5.0,0.0,0.0,3.0,2.0,-2.0,1650847292268562.0
0.0,-5.0,-3.0,2.0,-1.0,-2.0,0.0,0.0,1650847292268562.0
2.0,0.0,-1.0,0.0,5.0,2.0,2.0,1.0,1650847292290702.0
0.0,-3.0,2.0,-1.0,0.0,2.0,0.0,-1.0,1650847292290702.0
1.0,5.0,0.0,-1.0,-2.0,-1.0,-1.0,-1.0,1650847292291633.0
0.0,1.0,0.0,3.0,1.0,-2.0,-2.0,-1.0,1650847292291633.0
-1.0,2.0,0.0,-1.0,-2.0,-1.0,-1.0,-1.0,1650847292304684.0
0.0,0.0,-1.0,-3.0,0.0,0.0,0.0,-1.0,1650847292304684.0
2.0,-7.0,2.0,2.0,5.0,-1.0,1.0,2.0,1650847292305619.0
1.0,4.0,0.0,3.0,1.0,1.0,-2.0,-1.0,1650847292305619.0
-3.0,-10.0,-2.0,0.0,1.0,3.0,0.0,-1.0,1650847292327623.0
5.0,24.0,4.0,-3.0,-2.0,-1.0,0.0,1.0,1650847292327623.0
-1.0,-11.0,-6.0,-1.0,-3.0,-3.0,-3.0,0.0,1650847292328560.0
-1.0,1.0,1.0,-2.0,1.0,2.0,2.0,-2.0,1650847292328560.0
0.0,-2.0,-3.0,-4.0,-2.0,-1.0,-3.0,-1.0,1650847292350791.0
1.0,-6.0,-3.0,-1.0,-1.0,-1.0,-1.0,-1.0,1650847292350791.0
-2.0,-2.0,-2.0,-4.0,-2.0,-1.0,0.0,-1.0,1650847292351749.0
0.0,7.0,3.0,1.0,0.0,-1.0,1.0,0.0,1650847292351749.0
-3.0,0.0,1.0,1.0,1.0,-3.0,0.0,0.0,1650847292364750.0
0.0,-1.0,0.0,-1.0,-2.0,-1.0,-1.0,2.0,1650847292364750.0
-3.0,-4.0,0.0,-3.0,0.0,0.0,0.0,-3.0,1650847292365685.0
-2.0,-2.0,0.0,0.0,-5.0,-1.0,0.0,-2.0,1650847292365685.0
1.0,3.0,-4.0,-1.0,2.0,0.0,1.0,0.0,1650847292387979.0
0.0,-7.0,1.0,8.0,-3.0,1.0,-1.0,-1.0,1650847292387979.0
-1.0,-2.0,-2.0,-4.0,4.0,3.0,0.0,-1.0,1650847292387979.0
2.0,5.0,0.0,5.0,2.0,-1.0,-2.0,1.0,1650847292387979.0
1.0,2.0,-1.0,-3.0,-3.0,-3.0,-1.0,-1.0,1650847292410847.0
-3.0,-4.0,1.0,3.0,-1.0,0.0,-2.0,-1.0,1650847292410847.0
-1.0,1.0,-3.0,-3.0,-1.0,-1.0,0.0,0.0,1650847292411801.0
-2.0,-8.0,-3.0,0.0,-2.0,-1.0,-1.0,1.0,1650847292411801.0
2.0,8.0,6.0,13.0,5.0,2.0,0.0,0.0,1650847292424916.0
-2.0,-3.0,-4.0,-5.0,-1.0,-4.0,0.0,-1.0,1650847292424916.0
0.0,-2.0,-2.0,2.0,-3.0,-2.0,-1.0,0.0,1650847292425846.0
-3.0,-2.0,0.0,-3.0,1.0,0.0,-1.0,-3.0,1650847292425846.0
0.0,2.0,-1.0,-5.0,-4.0,1.0,-1.0,-2.0,1650847292447900.0
0.0,-3.0,0.0,4.0,7.0,1.0,-1.0,0.0,1650847292447900.0
0.0,-1.0,1.0,3.0,2.0,1.0,-1.0,0.0,1650847292447900.0
1.0,2.0,2.0,2.0,2.0,1.0,3.0,0.0,1650847292447900.0
-1.0,-7.0,-1.0,-2.0,-2.0,-1.0,-2.0,-1.0,1650847292470015.0
0.0,6.0,2.0,0.0,-1.0,0.0,-1.0,-1.0,1650847292470015.0
0.0,0.0,-1.0,-4.0,-1.0,-2.0,-1.0,-1.0,1650847292477995.0
-1.0,-7.0,-5.0,-2.0,-1.0,-1.0,-2.0,-2.0,1650847292477995.0
0.0,1.0,0.0,1.0,-1.0,-3.0,-1.0,0.0,1650847292485041.0
0.0,-2.0,-3.0,-2.0,0.0,3.0,-1.0,-2.0,1650847292485041.0
-3.0,-1.0,0.0,1.0,-1.0,-1.0,-1.0,-2.0,1650847292485972.0
0.0,-2.0,-3.0,-3.0,-2.0,-1.0,-2.0,-1.0,1650847292485972.0
-1.0,-1.0,0.0,-2.0,0.0,1.0,0.0,0.0,1650847292507978.0
-1.0,0.0,-2.0,-8.0,-3.0,-1.0,1.0,-1.0,1650847292507978.0
1.0,-3.0,-1.0,3.0,-1.0,-1.0,0.0,-1.0,1650847292507978.0
-1.0,-3.0,-1.0,-1.0,0.0,0.0,-2.0,0.0,1650847292507978.0
0.0,-1.0,-1.0,-2.0,-2.0,0.0,0.0,0.0,1650847292530903.0
0.0,-1.0,0.0,1.0,-1.0,-1.0,0.0,-1.0,1650847292530903.0
0.0,-1.0,0.0,0.0,3.0,1.0,-2.0,-2.0,1650847292531873.0
-1.0,0.0,-1.0,-3.0,-3.0,-1.0,-2.0,-1.0,1650847292531873.0
-1.0,0.0,0.0,2.0,-2.0,-1.0,-2.0,-1.0,1650847292544905.0
0.0,0.0,0.0,-1.0,1.0,-1.0,1.0,1.0,1650847292544905.0
-1.0,1.0,-1.0,-1.0,0.0,-2.0,0.0,-1.0,1650847292545836.0
0.0,2.0,1.0,0.0,0.0,0.0,-2.0,1.0,1650847292545836.0
-1.0,-6.0,-2.0,0.0,-1.0,-2.0,-2.0,0.0,1650847292567913.0
0.0,4.0,0.0,0.0,0.0,-1.0,2.0,2.0,1650847292567913.0
-2.0,-3.0,0.0,0.0,-2.0,0.0,0.0,-1.0,1650847292567913.0
-1.0,-2.0,-3.0,-4.0,-1.0,-1.0,1.0,-1.0,1650847292567913.0
0.0,9.0,1.0,1.0,-3.0,-1.0,-1.0,-1.0,1650847292590679.0
-2.0,-5.0,-3.0,1.0,1.0,-2.0,-2.0,-1.0,1650847292590679.0
1.0,2.0,-1.0,-2.0,-4.0,-1.0,-1.0,2.0,1650847292591611.0
0.0,2.0,1.0,-2.0,0.0,2.0,1.0,-1.0,1650847292591611.0
-1.0,-3.0,-3.0,-1.0,0.0,-1.0,0.0,-1.0,1650847292604577.0
-2.0,0.0,-2.0,-2.0,-3.0,-1.0,0.0,-1.0,1650847292604577.0
-1.0,0.0,0.0,-1.0,-4.0,-1.0,-1.0,1.0,1650847292605573.0
0.0,-1.0,-4.0,-1.0,3.0,1.0,-1.0,-3.0,1650847292605573.0
-1.0,-4.0,-2.0,-8.0,-2.0,0.0,-2.0,-1.0,1650847292627644.0
1.0,-1.0,2.0,17.0,8.0,3.0,-1.0,0.0,1650847292627644.0
-1.0,1.0,-2.0,-7.0,-4.0,-2.0,0.0,2.0,1650847292628642.0
2.0,11.0,7.0,10.0,1.0,-1.0,1.0,2.0,1650847292628642.0
-3.0,-5.0,-2.0,1.0,6.0,2.0,1.0,-1.0,1650847292650866.0
0.0,0.0,2.0,0.0,2.0,1.0,-1.0,-2.0,1650847292650866.0
-2.0,-2.0,-3.0,-3.0,-2.0,-1.0,0.0,-1.0,1650847292651823.0
0.0,0.0,-2.0,-4.0,-4.0,-2.0,0.0,-1.0,1650847292651823.0
0.0,-2.0,-1.0,-1.0,-2.0,-3.0,0.0,0.0,1650847292664829.0
-1.0,2.0,0.0,-1.0,-2.0,-2.0,0.0,-1.0,1650847292664829.0
0.0,0.0,1.0,3.0,1.0,2.0,0.0,-1.0,1650847292665766.0
-2.0,1.0,1.0,-2.0,-4.0,0.0,-1.0,1.0,1650847292665766.0
0.0,-2.0,-1.0,1.0,-2.0,-2.0,0.0,0.0,1650847292687701.0
-1.0,-5.0,-3.0,-4.0,-3.0,0.0,-1.0,0.0,1650847292687701.0
2.0,4.0,-1.0,-2.0,1.0,1.0,1.0,-1.0,1650847292688721.0
-3.0,-5.0,-2.0,0.0,-1.0,-1.0,0.0,-1.0,1650847292688721.0
0.0,1.0,0.0,1.0,1.0,3.0,1.0,1.0,1650847292710813.0
-3.0,-4.0,-3.0,-7.0,-6.0,-4.0,-2.0,-3.0,1650847292710813.0
0.0,-2.0,-2.0,2.0,0.0,-2.0,-2.0,-1.0,1650847292711770.0
-1.0,-1.0,-2.0,-2.0,6.0,2.0,0.0,0.0,1650847292711770.0
1.0,7.0,4.0,1.0,-3.0,0.0,1.0,2.0,1650847292724776.0
0.0,-2.0,4.0,10.0,7.0,1.0,-1.0,0.0,1650847292724776.0
0.0,2.0,0.0,-7.0,-2.0,0.0,-1.0,-1.0,1650847292725718.0
0.0,-7.0,-3.0,-3.0,-2.0,-3.0,-2.0,-2.0,1650847292725718.0
-1.0,-1.0,-1.0,-7.0,-3.0,-1.0,-1.0,0.0,1650847292747722.0
-2.0,0.0,-1.0,-5.0,-1.0,1.0,0.0,-1.0,1650847292747722.0
-1.0,-1.0,2.0,5.0,1.0,0.0,0.0,1.0,1650847292754629.0
-1.0,-2.0,-1.0,0.0,0.0,1.0,0.0,1.0,1650847292754629.0
1.0,0.0,-1.0,2.0,1.0,-2.0,-1.0,0.0,1650847292770710.0
2.0,3.0,-2.0,-3.0,-4.0,-1.0,0.0,-1.0,1650847292770710.0
1.0,1.0,0.0,0.0,2.0,-1.0,0.0,-1.0,1650847292771706.0
1.0,1.0,-2.0,-2.0,-4.0,-2.0,0.0,0.0,1650847292771706.0
-1.0,-3.0,-3.0,1.0,-1.0,-2.0,-1.0,-2.0,1650847292784734.0
1.0,2.0,-4.0,-4.0,-1.0,-2.0,-1.0,2.0,1650847292784734.0
-1.0,1.0,0.0,-4.0,-1.0,0.0,-1.0,-1.0,1650847292792661.0
-1.0,-3.0,1.0,2.0,0.0,0.0,-1.0,-1.0,1650847292792661.0
0.0,0.0,0.0,1.0,2.0,2.0,0.0,2.0,1650847292807961.0
3.0,2.0,-2.0,-6.0,-5.0,-2.0,-2.0,1.0,1650847292807961.0
-2.0,-5.0,-3.0,-1.0,2.0,1.0,1.0,0.0,1650847292808781.0
-1.0,2.0,0.0,1.0,-2.0,-2.0,-1.0,-1.0,1650847292808781.0
1.0,1.0,0.0,0.0,-2.0,0.0,0.0,-1.0,1650847292830785.0
-1.0,-1.0,-1.0,-1.0,-4.0,0.0,1.0,0.0,1650847292830785.0
-1.0,2.0,1.0,0.0,-3.0,-1.0,-2.0,1.0,1650847292831722.0
-1.0,-4.0,-2.0,0.0,0.0,0.0,-2.0,-3.0,1650847292831722.0
1.0,3.0,-1.0,-2.0,0.0,0.0,0.0,-2.0,1650847292844698.0
-1.0,-1.0,-2.0,-2.0,1.0,-2.0,0.0,0.0,1650847292844698.0
-1.0,0.0,-2.0,3.0,0.0,0.0,-2.0,-2.0,1650847292852732.0
0.0,-2.0,-1.0,0.0,0.0,0.0,2.0,0.0,1650847292852732.0
0.0,0.0,-1.0,-2.0,0.0,-1.0,-1.0,0.0,1650847292867689.0
-2.0,-1.0,0.0,0.0,-1.0,-2.0,0.0,-1.0,1650847292867689.0
-2.0,-1.0,-2.0,2.0,1.0,-2.0,0.0,1.0,1650847292868624.0
-1.0,-2.0,0.0,2.0,-2.0,-1.0,-2.0,-2.0,1650847292868624.0
-1.0,-4.0,-4.0,-2.0,-5.0,-1.0,0.0,-1.0,1650847292890499.0
0.0,-3.0,0.0,4.0,3.0,1.0,-1.0,1.0,1650847292890499.0
0.0,-2.0,-2.0,-5.0,-3.0,-1.0,-1.0,-2.0,1650847292891429.0
2.0,4.0,2.0,-2.0,0.0,2.0,-1.0,0.0,1650847292891429.0
-3.0,0.0,-1.0,-2.0,-1.0,-1.0,-1.0,-2.0,1650847292904394.0
-1.0,-1.0,0.0,-1.0,1.0,2.0,-1.0,-2.0,1650847292904394.0
-1.0,-4.0,-2.0,1.0,-2.0,-1.0,-1.0,-1.0,1650847292912385.0
0.0,-1.0,-1.0,0.0,-2.0,-2.0,0.0,-2.0,1650847292912385.0
1.0,3.0,0.0,1.0,-1.0,-2.0,-1.0,-1.0,1650847292927332.0
-1.0,-3.0,-1.0,-2.0,-2.0,-1.0,-1.0,1.0,1650847292927332.0
-1.0,0.0,0.0,-1.0,1.0,-1.0,-1.0,1.0,1650847292928362.0
-2.0,-1.0,-2.0,-5.0,-2.0,-1.0,1.0,0.0,1650847292928362.0
-2.0,-3.0,0.0,3.0,-1.0,0.0,0.0,0.0,1650847292950504.0
-1.0,4.0,-1.0,-2.0,0.0,-2.0,-1.0,-1.0,1650847292950504.0
3.0,-2.0,1.0,1.0,-4.0,1.0,0.0,0.0,1650847292951434.0
2.0,2.0,1.0,0.0,3.0,1.0,-1.0,0.0,1650847292951434.0
-2.0,-3.0,-2.0,0.0,-1.0,-2.0,-3.0,-1.0,1650847292964467.0
0.0,-4.0,-1.0,-1.0,-4.0,-2.0,-1.0,0.0,1650847292964467.0
1.0,13.0,2.0,0.0,-2.0,1.0,-1.0,0.0,1650847292972445.0
0.0,-3.0,-1.0,-4.0,-2.0,-2.0,1.0,1.0,1650847292972445.0
0.0,-3.0,-1.0,-5.0,3.0,1.0,-1.0,-1.0,1650847292987461.0
-1.0,0.0,1.0,1.0,-2.0,-1.0,0.0,-1.0,1650847292987461.0
-1.0,-3.0,1.0,2.0,2.0,0.0,-1.0,0.0,1650847292988396.0
-1.0,0.0,-1.0,-3.0,-5.0,-4.0,-2.0,1.0,1650847292988396.0
0.0,2.0,-1.0,2.0,-1.0,-3.0,0.0,-1.0,1650847293010368.0
0.0,0.0,-2.0,-15.0,-4.0,-1.0,1.0,0.0,1650847293010368.0
-3.0,0.0,2.0,7.0,-5.0,-2.0,-3.0,-2.0,1650847293011298.0
-1.0,-4.0,-1.0,0.0,5.0,3.0,-1.0,1.0,1650847293011298.0
-1.0,-3.0,-2.0,-4.0,-5.0,-1.0,1.0,-2.0,1650847293024331.0
0.0,1.0,-2.0,-2.0,-2.0,0.0,-3.0,-1.0,1650847293024331.0
0.0,-6.0,0.0,-1.0,1.0,1.0,0.0,0.0,1650847293032242.0
-3.0,-1.0,-1.0,0.0,-3.0,0.0,0.0,-1.0,1650847293032242.0
0.0,4.0,0.0,-1.0,0.0,0.0,-1.0,0.0,1650847293047270.0
1.0,3.0,4.0,2.0,-2.0,-1.0,-1.0,0.0,1650847293047270.0
0.0,1.0,-1.0,-2.0,1.0,-4.0,0.0,0.0,1650847293048214.0
1.0,-1.0,-3.0,2.0,1.0,1.0,0.0,-1.0,1650847293048214.0
1.0,4.0,1.0,-2.0,-2.0,-2.0,2.0,0.0,1650847293070905.0
-1.0,-6.0,-4.0,-1.0,-1.0,0.0,-1.0,-1.0,1650847293070905.0
1.0,-1.0,0.0,1.0,1.0,1.0,-1.0,1.0,1650847293071868.0
1.0,5.0,2.0,2.0,2.0,0.0,-2.0,0.0,1650847293071868.0
0.0,-4.0,-4.0,-6.0,-3.0,0.0,-1.0,0.0,1650847293084790.0
-1.0,0.0,3.0,12.0,0.0,-1.0,-1.0,-2.0,1650847293084790.0
0.0,2.0,-3.0,-4.0,1.0,-2.0,-1.0,-2.0,1650847293092820.0
-1.0,-4.0,-2.0,-1.0,1.0,-2.0,0.0,-1.0,1650847293092820.0
0.0,2.0,2.0,3.0,3.0,0.0,0.0,0.0,1650847293108436.0
-1.0,0.0,0.0,-2.0,-1.0,1.0,0.0,-1.0,1650847293108436.0
-2.0,2.0,-3.0,-3.0,-1.0,-1.0,1.0,-1.0,1650847293108806.0
-1.0,-1.0,-2.0,-3.0,-2.0,0.0,-1.0,-2.0,1650847293108806.0
2.0,-6.0,1.0,2.0,1.0,1.0,-1.0,2.0,1650847293130816.0
0.0,3.0,0.0,-2.0,-3.0,-1.0,-2.0,-1.0,1650847293130816.0
-1.0,-3.0,-1.0,-1.0,-1.0,-1.0,-1.0,0.0,1650847293131747.0
-1.0,-1.0,0.0,3.0,-1.0,0.0,0.0,-1.0,1650847293131747.0
-2.0,1.0,0.0,1.0,2.0,0.0,0.0,-1.0,1650847293153701.0
1.0,0.0,1.0,-3.0,1.0,1.0,2.0,2.0,1650847293153701.0
-1.0,-4.0,-1.0,0.0,-1.0,1.0,0.0,0.0,1650847293153701.0
-2.0,4.0,-2.0,-5.0,-3.0,-2.0,0.0,-1.0,1650847293153701.0
-1.0,-2.0,0.0,-1.0,-2.0,0.0,-2.0,-2.0,1650847293167718.0
1.0,1.0,-2.0,0.0,1.0,-1.0,1.0,-1.0,1650847293167718.0
-2.0,-4.0,-1.0,-3.0,-1.0,-1.0,-1.0,2.0,1650847293168649.0
-1.0,-6.0,0.0,3.0,-3.0,-2.0,0.0,0.0,1650847293168649.0
0.0,5.0,2.0,0.0,0.0,-1.0,1.0,1.0,1650847293191066.0
-1.0,-5.0,0.0,-2.0,5.0,2.0,0.0,0.0,1650847293191066.0
0.0,4.0,1.0,1.0,-4.0,-1.0,2.0,-2.0,1650847293191066.0
0.0,-1.0,-2.0,-2.0,-2.0,-1.0,-3.0,0.0,1650847293191066.0
0.0,-2.0,1.0,6.0,2.0,0.0,-1.0,-1.0,1650847293213116.0
-1.0,-5.0,-3.0,0.0,-2.0,-1.0,-1.0,0.0,1650847293213116.0
1.0,9.0,4.0,-3.0,1.0,-1.0,-1.0,0.0,1650847293214046.0
0.0,0.0,-3.0,-9.0,-2.0,1.0,-2.0,-1.0,1650847293214046.0
-4.0,-9.0,-2.0,4.0,-4.0,-2.0,-1.0,1.0,1650847293228007.0
-2.0,1.0,-3.0,1.0,-1.0,-2.0,-1.0,-1.0,1650847293228007.0
1.0,-1.0,-1.0,-2.0,-1.0,1.0,-2.0,-2.0,1650847293228007.0
-1.0,1.0,1.0,-1.0,0.0,0.0,0.0,0.0,1650847293228007.0
-1.0,0.0,0.0,-3.0,1.0,0.0,1.0,-1.0,1650847293251104.0
0.0,3.0,-1.0,1.0,0.0,0.0,-1.0,0.0,1650847293251104.0
0.0,2.0,1.0,0.0,0.0,-1.0,0.0,1.0,1650847293251104.0
1.0,-1.0,0.0,1.0,3.0,2.0,1.0,0.0,1650847293251104.0
0.0,-1.0,1.0,7.0,4.0,1.0,-2.0,0.0,1650847293272883.0
-1.0,4.0,-2.0,-3.0,-5.0,-2.0,-1.0,0.0,1650847293272883.0
-1.0,-3.0,-1.0,1.0,-1.0,-1.0,0.0,0.0,1650847293273813.0
0.0,-3.0,0.0,2.0,1.0,-1.0,-1.0,-1.0,1650847293273813.0
0.0,0.0,-1.0,-4.0,-2.0,-1.0,-2.0,-2.0,1650847293287897.0
-3.0,-11.0,-1.0,2.0,1.0,-1.0,0.0,-1.0,1650847293287897.0
2.0,12.0,0.0,-2.0,2.0,0.0,0.0,-1.0,1650847293287897.0
-2.0,4.0,2.0,-2.0,-4.0,-2.0,-1.0,0.0,1650847293287897.0
-2.0,-4.0,-1.0,0.0,-2.0,0.0,1.0,0.0,1650847293311006.0
0.0,4.0,2.0,-1.0,0.0,0.0,0.0,-1.0,1650847293311006.0
-1.0,-13.0,-4.0,3.0,5.0,2.0,0.0,-1.0,1650847293311006.0
0.0,5.0,4.0,-1.0,-2.0,0.0,-1.0,0.0,1650847293311006.0
1.0,3.0,0.0,1.0,-3.0,-1.0,-1.0,-2.0,1650847293333008.0
2.0,2.0,1.0,-4.0,1.0,-1.0,-1.0,0.0,1650847293333008.0
-3.0,-6.0,-2.0,-2.0,-4.0,-2.0,-3.0,-1.0,1650847293333945.0
1.0,-2.0,-1.0,3.0,0.0,1.0,-2.0,-3.0,1650847293333945.0
-1.0,1.0,0.0,2.0,2.0,0.0,-1.0,-1.0,1650847293347906.0
-1.0,5.0,-1.0,-4.0,-2.0,-1.0,0.0,-2.0,1650847293347906.0
-1.0,-2.0,0.0,-1.0,-2.0,-4.0,0.0,-2.0,1650847293347906.0
-2.0,-3.0,-1.0,2.0,1.0,-1.0,-1.0,1.0,1650847293347906.0
-1.0,2.0,-2.0,-6.0,-4.0,0.0,0.0,-2.0,1650847293370890.0
-2.0,-9.0,0.0,0.0,-2.0,0.0,-2.0,0.0,1650847293370890.0
0.0,-2.0,0.0,-3.0,2.0,1.0,1.0,0.0,1650847293371820.0
0.0,3.0,-1.0,1.0,-3.0,-2.0,0.0,2.0,1650847293371820.0
-1.0,-5.0,0.0,-1.0,3.0,-2.0,-2.0,0.0,1650847293392915.0
-1.0,1.0,-1.0,-4.0,-2.0,1.0,0.0,-1.0,1650847293392915.0
-2.0,-4.0,-1.0,3.0,-1.0,1.0,-1.0,1.0,1650847293393857.0
1.0,2.0,-3.0,0.0,1.0,-1.0,1.0,0.0,1650847293393857.0
-3.0,-8.0,0.0,-4.0,3.0,2.0,1.0,-1.0,1650847293407914.0
-1.0,-1.0,-6.0,-8.0,-2.0,-1.0,-1.0,-1.0,1650847293407914.0
-1.0,-4.0,0.0,4.0,-1.0,-2.0,-2.0,-3.0,1650847293407914.0
1.0,-1.0,-2.0,4.0,0.0,-1.0,-2.0,-1.0,1650847293407914.0
-2.0,5.0,1.0,-4.0,-3.0,-2.0,1.0,-1.0,1650847293430868.0
1.0,-5.0,-2.0,3.0,0.0,0.0,0.0,1.0,1650847293430868.0
-2.0,3.0,0.0,0.0,2.0,1.0,1.0,-1.0,1650847293431826.0
-2.0,-1.0,-1.0,-1.0,-1.0,0.0,-2.0,-1.0,1650847293431826.0
0.0,-2.0,1.0,-1.0,-1.0,-1.0,-2.0,-2.0,1650847293452810.0
0.0,2.0,1.0,2.0,-2.0,-2.0,1.0,1.0,1650847293452810.0
0.0,1.0,-2.0,-4.0,-1.0,0.0,0.0,-1.0,1650847293453747.0
-1.0,-1.0,1.0,-1.0,0.0,0.0,-1.0,-2.0,1650847293453747.0
-1.0,-4.0,-5.0,-2.0,-3.0,0.0,0.0,0.0,1650847293467823.0
0.0,4.0,3.0,2.0,0.0,-1.0,-1.0,-1.0,1650847293467823.0
0.0,0.0,-2.0,-4.0,-4.0,-1.0,0.0,1.0,1650847293467823.0
0.0,-3.0,0.0,-5.0,0.0,-2.0,0.0,-2.0,1650847293467823.0
-1.0,-3.0,-2.0,-3.0,-4.0,-1.0,0.0,0.0,1650847293491115.0
-4.0,-5.0,-4.0,0.0,-1.0,-2.0,0.0,0.0,1650847293491115.0
1.0,0.0,0.0,1.0,2.0,0.0,0.0,0.0,1650847293491115.0
-1.0,-2.0,1.0,1.0,-2.0,-1.0,-1.0,0.0,1650847293491115.0
0.0,2.0,-4.0,0.0,1.0,-2.0,1.0,1.0,1650847293512992.0
-1.0,3.0,0.0,2.0,0.0,0.0,-2.0,-1.0,1650847293512992.0
-1.0,0.0,-2.0,-2.0,-1.0,-2.0,-1.0,0.0,1650847293513970.0
-2.0,-7.0,-2.0,-1.0,1.0,-1.0,0.0,1.0,1650847293513970.0
2.0,2.0,2.0,-1.0,0.0,-1.0,-2.0,-1.0,1650847293527932.0
0.0,1.0,-1.0,-3.0,-1.0,-1.0,-1.0,0.0,1650847293527932.0
-1.0,-2.0,-1.0,-2.0,-4.0,-2.0,-3.0,1.0,1650847293527932.0
-1.0,-1.0,0.0,-3.0,-2.0,0.0,-1.0,-2.0,1650847293527932.0
0.0,-2.0,-1.0,-2.0,1.0,1.0,1.0,-1.0,1650847293551085.0
0.0,1.0,0.0,5.0,3.0,2.0,-1.0,-1.0,1650847293551085.0
0.0,-4.0,-2.0,0.0,-2.0,-2.0,-2.0,0.0,1650847293551085.0
0.0,1.0,-1.0,-1.0,-1.0,0.0,-1.0,-1.0,1650847293551085.0
1.0,-3.0,-1.0,-3.0,-4.0,-1.0,-1.0,0.0,1650847293572961.0
-3.0,-8.0,-3.0,6.0,3.0,-2.0,-1.0,-3.0,1650847293572961.0
0.0,-1.0,0.0,0.0,0.0,0.0,0.0,0.0,1650847293573957.0
-1.0,3.0,1.0,2.0,-1.0,1.0,1.0,1.0,1650847293573957.0
1.0,1.0,-3.0,-1.0,0.0,1.0,1.0,2.0,1650847293587969.0
-2.0,-1.0,-1.0,-2.0,-2.0,1.0,0.0,0.0,1650847293587969.0
-1.0,1.0,-2.0,-1.0,-1.0,-1.0,-3.0,-2.0,1650847293587969.0
1.0,-2.0,-1.0,-1.0,0.0,-3.0,-1.0,-1.0,1650847293587969.0
-1.0,2.0,2.0,3.0,-1.0,-2.0,-1.0,-1.0,1650847293610889.0
1.0,-1.0,2.0,-2.0,-3.0,0.0,0.0,1.0,1650847293610889.0
1.0,1.0,0.0,-2.0,-1.0,0.0,0.0,0.0,1650847293611820.0
-1.0,0.0,-1.0,-3.0,-2.0,-2.0,0.0,-1.0,1650847293611820.0
0.0,4.0,1.0,-1.0,-2.0,0.0,0.0,-1.0,1650847293632830.0
-1.0,-2.0,-3.0,-1.0,-1.0,0.0,-2.0,-1.0,1650847293632830.0
-1.0,-2.0,0.0,0.0,2.0,1.0,-1.0,1.0,1650847293633761.0
0.0,2.0,0.0,1.0,1.0,2.0,-2.0,0.0,1650847293633761.0
-2.0,-1.0,-2.0,0.0,-2.0,-3.0,-2.0,-1.0,1650847293647910.0
1.0,-1.0,0.0,-3.0,-2.0,0.0,0.0,0.0,1650847293647910.0
0.0,3.0,0.0,1.0,0.0,-2.0,-1.0,-1.0,1650847293647910.0
0.0,8.0,4.0,0.0,1.0,1.0,1.0,-1.0,1650847293647910.0
-2.0,-7.0,-4.0,3.0,5.0,1.0,0.0,-1.0,1650847293670811.0
0.0,-1.0,0.0,-11.0,-6.0,1.0,1.0,-2.0,1650847293670811.0
-2.0,-5.0,-1.0,7.0,-1.0,-2.0,1.0,-1.0,1650847293671741.0
2.0,5.0,6.0,8.0,6.0,1.0,-1.0,-1.0,1650847293671741.0
0.0,3.0,-2.0,-5.0,-3.0,0.0,-1.0,0.0,1650847293692844.0
1.0,4.0,2.0,1.0,0.0,-3.0,-1.0,0.0,1650847293692844.0
-1.0,-6.0,-3.0,-6.0,-3.0,0.0,-1.0,0.0,1650847293693776.0
-1.0,2.0,-4.0,-3.0,-2.0,-2.0,0.0,-1.0,1650847293693776.0
0.0,1.0,3.0,5.0,4.0,2.0,-1.0,0.0,1650847293706740.0
1.0,0.0,-2.0,-4.0,2.0,-1.0,0.0,1.0,1650847293706740.0
0.0,2.0,0.0,-2.0,-1.0,1.0,-1.0,0.0,1650847293714786.0
0.0,-7.0,-2.0,-2.0,-2.0,1.0,-1.0,0.0,1650847293714786.0
1.0,1.0,0.0,0.0,-5.0,-1.0,-2.0,-1.0,1650847293730748.0
-2.0,-2.0,1.0,-1.0,2.0,-1.0,0.0,1.0,1650847293730748.0
-1.0,0.0,-2.0,-4.0,-1.0,0.0,1.0,-1.0,1650847293731701.0
-3.0,-5.0,-2.0,-2.0,-1.0,0.0,-1.0,1.0,1650847293731701.0
-1.0,1.0,-1.0,-6.0,-4.0,-1.0,-3.0,-1.0,1650847293751824.0
0.0,-3.0,0.0,5.0,-1.0,1.0,1.0,0.0,1650847293751824.0
0.0,0.0,0.0,0.0,-3.0,0.0,0.0,-2.0,1650847293759874.0
-1.0,-3.0,-2.0,-2.0,-2.0,-1.0,-1.0,0.0,1650847293759874.0
0.0,7.0,2.0,-6.0,-6.0,-3.0,-1.0,-1.0,1650847293766854.0
1.0,-2.0,-1.0,15.0,11.0,2.0,0.0,0.0,1650847293766854.0
0.0,0.0,1.0,0.0,1.0,0.0,1.0,-2.0,1650847293774833.0
4.0,4.0,-2.0,-2.0,-1.0,0.0,0.0,-1.0,1650847293774833.0
-3.0,-10.0,-1.0,-2.0,-2.0,-2.0,-3.0,1.0,1650847293790968.0
0.0,3.0,-2.0,-2.0,-1.0,-1.0,-1.0,-1.0,1650847293790968.0
-1.0,-1.0,-1.0,-1.0,-2.0,-1.0,-1.0,0.0,1650847293791898.0
0.0,0.0,-1.0,-1.0,2.0,0.0,0.0,-2.0,1650847293791898.0
0.0,1.0,-1.0,3.0,1.0,1.0,1.0,0.0,1650847293812736.0
0.0,1.0,-2.0,-5.0,-2.0,0.0,-1.0,0.0,1650847293812736.0
-3.0,-5.0,-1.0,6.0,0.0,0.0,-1.0,-1.0,1650847293813735.0
-1.0,-2.0,-1.0,-4.0,-4.0,-3.0,-2.0,-2.0,1650847293813735.0
1.0,0.0,-1.0,2.0,2.0,2.0,0.0,1.0,1650847293826768.0
-1.0,1.0,2.0,-1.0,1.0,-1.0,-1.0,-1.0,1650847293826768.0
-1.0,-4.0,-2.0,-2.0,0.0,-1.0,-1.0,0.0,1650847293834748.0
-2.0,0.0,2.0,2.0,0.0,2.0,0.0,1.0,1650847293834748.0
-3.0,-4.0,0.0,-1.0,3.0,-1.0,0.0,-3.0,1650847293850812.0
0.0,3.0,-1.0,-1.0,-1.0,-1.0,-2.0,1.0,1650847293850812.0
0.0,2.0,-2.0,-1.0,-1.0,-3.0,0.0,1.0,1650847293851765.0
-1.0,-3.0,-2.0,-3.0,-4.0,-2.0,-1.0,0.0,1650847293851765.0
-1.0,0.0,2.0,-1.0,4.0,-2.0,1.0,-1.0,1650847293873689.0
1.0,-1.0,0.0,-3.0,-2.0,-3.0,-2.0,0.0,1650847293873689.0
-1.0,1.0,2.0,3.0,4.0,0.0,-1.0,1.0,1650847293873689.0
0.0,-2.0,-1.0,-2.0,-3.0,-1.0,-2.0,-2.0,1650847293873689.0
2.0,3.0,0.0,1.0,-4.0,0.0,2.0,-1.0,1650847293886711.0
-1.0,-2.0,-1.0,-1.0,0.0,0.0,0.0,-3.0,1650847293886711.0
1.0,1.0,-1.0,-1.0,-2.0,0.0,-1.0,1.0,1650847293894691.0
0.0,-2.0,-2.0,-2.0,-1.0,-2.0,1.0,1.0,1650847293894691.0
-2.0,-2.0,-1.0,3.0,2.0,1.0,0.0,-1.0,1650847293910847.0
0.0,0.0,-2.0,-4.0,-4.0,0.0,0.0,-2.0,1650847293910847.0
1.0,-1.0,-3.0,-1.0,-1.0,0.0,-1.0,-2.0,1650847293911778.0
0.0,-3.0,0.0,0.0,3.0,0.0,-1.0,0.0,1650847293911778.0
0.0,-1.0,-1.0,-2.0,-1.0,-1.0,1.0,0.0,1650847293932788.0
0.0,3.0,1.0,-1.0,-3.0,0.0,-2.0,0.0,1650847293932788.0
-1.0,-2.0,-2.0,-2.0,-1.0,0.0,0.0,-2.0,1650847293933720.0
-2.0,1.0,1.0,0.0,-4.0,-1.0,-1.0,-1.0,1650847293933720.0
0.0,0.0,-1.0,1.0,1.0,0.0,-1.0,-2.0,1650847293946751.0
1.0,-5.0,-1.0,-4.0,-3.0,-1.0,2.0,0.0,1650847293946751.0
-1.0,-2.0,0.0,2.0,-2.0,2.0,-1.0,-1.0,1650847293954731.0
-1.0,1.0,-3.0,-3.0,-1.0,-1.0,-1.0,0.0,1650847293954731.0
2.0,-1.0,2.0,12.0,6.0,2.0,0.0,-2.0,1650847293970687.0
0.0,-2.0,-2.0,-1.0,-2.0,-4.0,-1.0,0.0,1650847293970687.0
-1.0,-5.0,0.0,-2.0,-1.0,-3.0,0.0,-3.0,1650847293971618.0
0.0,-3.0,-3.0,-1.0,-3.0,0.0,1.0,-1.0,1650847293971618.0
-1.0,2.0,-1.0,-1.0,-1.0,-1.0,0.0,0.0,1650847293992784.0
-2.0,-4.0,-2.0,0.0,2.0,0.0,-1.0,0.0,1650847293992784.0
-1.0,4.0,0.0,-3.0,-2.0,1.0,0.0,-1.0,1650847293993722.0
0.0,-2.0,1.0,10.0,9.0,1.0,-1.0,0.0,1650847293993722.0
0.0,-1.0,-3.0,-7.0,-6.0,-3.0,-2.0,2.0,1650847294006679.0
-1.0,-13.0,-3.0,5.0,4.0,0.0,0.0,-1.0,1650847294006679.0
3.0,20.0,8.0,-2.0,-1.0,1.0,-2.0,1.0,1650847294014720.0
-1.0,-5.0,1.0,0.0,2.0,0.0,0.0,1.0,1650847294014720.0
1.0,1.0,0.0,0.0,-1.0,1.0,-1.0,-3.0,1650847294030681.0
-2.0,-7.0,-3.0,-6.0,-7.0,-3.0,-1.0,1.0,1650847294030681.0
-1.0,-5.0,-2.0,3.0,4.0,1.0,-1.0,-1.0,1650847294031612.0
0.0,3.0,0.0,0.0,0.0,-1.0,2.0,-2.0,1650847294031612.0
-1.0,-1.0,0.0,-2.0,-1.0,-2.0,0.0,0.0,1650847294053551.0
0.0,4.0,0.0,-2.0,-2.0,-1.0,-2.0,1.0,1650847294053551.0
0.0,-3.0,-2.0,-5.0,-4.0,-2.0,-2.0,2.0,1650847294053783.0
-4.0,1.0,2.0,7.0,-1.0,-1.0,-2.0,-1.0,1650847294053783.0
-1.0,-4.0,-3.0,-6.0,0.0,0.0,0.0,-1.0,1650847294075842.0
0.0,7.0,3.0,1.0,-1.0,-1.0,0.0,0.0,1650847294075842.0
1.0,-2.0,-4.0,-1.0,-2.0,-5.0,-1.0,-1.0,1650847294076799.0
0.0,-1.0,-1.0,-4.0,3.0,2.0,1.0,-1.0,1650847294076799.0
0.0,-3.0,-3.0,-4.0,-6.0,-2.0,-1.0,-1.0,1650847294090736.0
-1.0,1.0,3.0,12.0,6.0,0.0,0.0,0.0,1650847294090736.0
-1.0,-5.0,-3.0,-9.0,-5.0,-3.0,0.0,-1.0,1650847294091760.0
-3.0,-9.0,-1.0,1.0,3.0,-1.0,-1.0,1.0,1650847294091760.0
0.0,9.0,-2.0,-7.0,-5.0,-2.0,0.0,0.0,1650847294112735.0
-1.0,3.0,1.0,-3.0,-2.0,-1.0,-1.0,-1.0,1650847294112735.0
-3.0,-1.0,5.0,19.0,15.0,4.0,1.0,-1.0,1650847294113722.0
2.0,-5.0,-3.0,-14.0,-7.0,-3.0,-1.0,0.0,1650847294113722.0
-2.0,4.0,3.0,1.0,-3.0,0.0,1.0,1.0,1650847294134734.0
-2.0,-4.0,-3.0,-6.0,-1.0,0.0,-1.0,-1.0,1650847294134734.0
-1.0,1.0,1.0,4.0,-2.0,-2.0,0.0,0.0,1650847294142761.0
-1.0,2.0,-2.0,-2.0,-1.0,-1.0,-1.0,-1.0,1650847294142761.0
0.0,-1.0,0.0,0.0,2.0,0.0,-1.0,0.0,1650847294150809.0
0.0,4.0,-3.0,-6.0,-6.0,-2.0,0.0,2.0,1650847294150809.0
-2.0,-3.0,-1.0,-5.0,-1.0,1.0,0.0,1.0,1650847294151767.0
1.0,5.0,-1.0,3.0,2.0,1.0,0.0,-1.0,1650847294151767.0
-1.0,-7.0,-3.0,-2.0,-1.0,-2.0,-1.0,-1.0,1650847294173199.0
-1.0,-3.0,0.0,5.0,3.0,-1.0,0.0,-1.0,1650847294173199.0
0.0,2.0,1.0,-3.0,0.0,1.0,0.0,1.0,1650847294173762.0
0.0,-3.0,-2.0,-2.0,-2.0,0.0,0.0,-1.0,1650847294173762.0
-2.0,-1.0,3.0,2.0,1.0,3.0,0.0,-1.0,1650847294195864.0
1.0,2.0,-1.0,-1.0,2.0,1.0,-2.0,-1.0,1650847294195864.0
0.0,0.0,-2.0,0.0,-4.0,-4.0,0.0,-2.0,1650847294196818.0
-1.0,-4.0,-1.0,-2.0,-1.0,-1.0,-2.0,-1.0,1650847294196818.0
-1.0,-1.0,2.0,4.0,1.0,2.0,0.0,2.0,1650847294210920.0
-1.0,-1.0,-5.0,-1.0,2.0,1.0,0.0,-3.0,1650847294210920.0
0.0,2.0,-2.0,3.0,2.0,0.0,-1.0,0.0,1650847294211855.0
0.0,1.0,-2.0,0.0,0.0,-1.0,-1.0,-1.0,1650847294211855.0
1.0,-4.0,-1.0,0.0,2.0,-1.0,-1.0,-2.0,1650847294232919.0
-1.0,-2.0,0.0,0.0,-4.0,-1.0,-1.0,0.0,1650847294232919.0
1.0,-2.0,-3.0,-4.0,-2.0,0.0,-2.0,-1.0,1650847294234914.0
1.0,7.0,4.0,1.0,0.0,-1.0,0.0,0.0,1650847294234914.0
-1.0,-1.0,0.0,1.0,0.0,-2.0,-1.0,-2.0,1650847294256035.0
1.0,0.0,1.0,-2.0,-2.0,0.0,1.0,0.0,1650847294256035.0
0.0,-1.0,-2.0,-2.0,-2.0,-1.0,2.0,-2.0,1650847294256035.0
-1.0,-2.0,1.0,0.0,0.0,2.0,1.0,1.0,1650847294256035.0
0.0,2.0,-1.0,-1.0,-1.0,-2.0,-3.0,1.0,1650847294269001.0
-1.0,2.0,1.0,-1.0,0.0,-1.0,0.0,0.0,1650847294269001.0
0.0,-2.0,1.0,4.0,0.0,1.0,0.0,-3.0,1650847294277954.0
0.0,0.0,-2.0,-3.0,-4.0,-3.0,-1.0,1.0,1650847294277954.0
-1.0,1.0,-1.0,6.0,4.0,0.0,-1.0,-1.0,1650847294293559.0
-3.0,-1.0,-2.0,-1.0,-1.0,-1.0,0.0,-3.0,1650847294293559.0
0.0,-1.0,-2.0,-4.0,0.0,1.0,0.0,0.0,1650847294294786.0
1.0,2.0,0.0,0.0,0.0,1.0,-1.0,-2.0,1650847294294786.0
0.0,-4.0,-2.0,-1.0,-5.0,-3.0,-1.0,0.0,1650847294315849.0
-1.0,-2.0,-2.0,2.0,1.0,-1.0,-1.0,-3.0,1650847294315849.0
-2.0,0.0,-2.0,-6.0,-2.0,-1.0,0.0,1.0,1650847294317777.0
0.0,-1.0,1.0,0.0,-3.0,-3.0,-1.0,-1.0,1650847294317777.0
-2.0,-10.0,-5.0,-7.0,-2.0,1.0,-1.0,0.0,1650847294329882.0
2.0,11.0,8.0,12.0,4.0,1.0,-1.0,1.0,1650847294329882.0
-1.0,-1.0,-2.0,-6.0,-3.0,-3.0,-1.0,0.0,1650847294338735.0
0.0,-2.0,0.0,4.0,2.0,2.0,0.0,1.0,1650847294338735.0
-1.0,-7.0,-2.0,-7.0,-6.0,-2.0,1.0,-3.0,1650847294353313.0
-1.0,13.0,-2.0,-6.0,-6.0,-1.0,0.0,-1.0,1650847294353313.0
-3.0,0.0,1.0,7.0,3.0,2.0,-3.0,-2.0,1650847294354312.0
-2.0,-1.0,0.0,-4.0,-4.0,-2.0,-1.0,0.0,1650847294354312.0
1.0,1.0,1.0,0.0,3.0,2.0,-1.0,0.0,1650847294376254.0
-1.0,-6.0,-3.0,-4.0,2.0,-1.0,-1.0,-1.0,1650847294376254.0
-1.0,3.0,0.0,1.0,-4.0,-3.0,-3.0,1.0,1650847294377252.0
0.0,1.0,-2.0,-1.0,-1.0,-1.0,0.0,-3.0,1650847294377252.0
1.0,9.0,6.0,2.0,1.0,0.0,-2.0,0.0,1650847294389789.0
-2.0,-10.0,-2.0,-1.0,3.0,0.0,1.0,1.0,1650847294389789.0
-1.0,-2.0,-1.0,-4.0,-5.0,0.0,-1.0,0.0,1650847294398050.0
-1.0,1.0,1.0,3.0,1.0,0.0,0.0,0.0,1650847294398050.0
0.0,2.0,-1.0,12.0,6.0,1.0,0.0,-1.0,1650847294413053.0
-2.0,-6.0,-1.0,-7.0,-7.0,-2.0,-2.0,0.0,1650847294413053.0
2.0,3.0,-3.0,-4.0,0.0,-3.0,1.0,-1.0,1650847294415049.0
0.0,-3.0,-3.0,-7.0,0.0,-2.0,-1.0,0.0,1650847294415049.0
-1.0,-3.0,-2.0,-3.0,-2.0,-4.0,0.0,1.0,1650847294436190.0
1.0,-4.0,-2.0,2.0,-1.0,0.0,-1.0,-1.0,1650847294436190.0
-1.0,-2.0,2.0,-2.0,-2.0,0.0,-1.0,0.0,1650847294437137.0
-1.0,1.0,-1.0,0.0,-1.0,-1.0,0.0,-2.0,1650847294437137.0
0.0,4.0,-1.0,-3.0,-2.0,0.0,-1.0,0.0,1650847294449173.0
-3.0,-9.0,-2.0,-5.0,-5.0,-1.0,-2.0,1.0,1650847294449173.0
0.0,-4.0,-2.0,-2.0,1.0,-1.0,-1.0,0.0,1650847294458096.0
-1.0,0.0,-1.0,2.0,-1.0,1.0,-1.0,-1.0,1650847294458096.0
-1.0,-2.0,0.0,3.0,6.0,0.0,1.0,1.0,1650847294473189.0
1.0,1.0,1.0,3.0,7.0,1.0,0.0,0.0,1650847294473189.0
-1.0,0.0,-2.0,-4.0,-4.0,-2.0,-1.0,0.0,1650847294475214.0
2.0,0.0,-1.0,-2.0,-2.0,-1.0,-1.0,-1.0,1650847294475214.0
0.0,-2.0,-3.0,-10.0,-3.0,2.0,2.0,-1.0,1650847294495882.0
0.0,0.0,1.0,9.0,2.0,0.0,1.0,0.0,1650847294495882.0
-1.0,-4.0,3.0,7.0,2.0,-2.0,-1.0,0.0,1650847294496811.0
-2.0,-5.0,-3.0,-3.0,-2.0,-2.0,0.0,-1.0,1650847294496811.0
-1.0,1.0,1.0,-3.0,0.0,0.0,-1.0,-2.0,1650847294509805.0
-1.0,0.0,-2.0,-5.0,-4.0,-3.0,-3.0,-1.0,1650847294509805.0
-2.0,-2.0,0.0,-2.0,-1.0,1.0,-1.0,-1.0,1650847294518840.0
-2.0,-1.0,1.0,8.0,5.0,2.0,2.0,0.0,1650847294518840.0
-1.0,3.0,1.0,-4.0,-3.0,0.0,0.0,0.0,1650847294532861.0
1.0,-3.0,-2.0,2.0,-2.0,-1.0,1.0,-1.0,1650847294532861.0
1.0,5.0,3.0,-2.0,-1.0,0.0,0.0,-2.0,1650847294534886.0
-2.0,0.0,-1.0,0.0,1.0,-1.0,-1.0,1.0,1650847294534886.0
1.0,0.0,0.0,2.0,-1.0,-1.0,-2.0,-1.0,1650847294555494.0
2.0,1.0,-1.0,-4.0,-3.0,-1.0,-1.0,0.0,1650847294555494.0
-1.0,3.0,1.0,0.0,0.0,1.0,-2.0,0.0,1650847294557422.0
1.0,-8.0,-4.0,-2.0,-5.0,0.0,-1.0,-1.0,1650847294557422.0
0.0,-1.0,0.0,-2.0,3.0,0.0,0.0,1.0,1650847294568993.0
-1.0,-1.0,-2.0,-4.0,-2.0,0.0,-1.0,-1.0,1650847294568993.0
-2.0,-4.0,0.0,7.0,-1.0,-1.0,0.0,-2.0,1650847294577971.0
1.0,3.0,0.0,-5.0,-3.0,-1.0,1.0,-1.0,1650847294577971.0
-1.0,-10.0,-3.0,-2.0,-1.0,0.0,-1.0,-2.0,1650847294593087.0
0.0,15.0,2.0,4.0,1.0,0.0,-1.0,-2.0,1650847294593087.0
-1.0,-5.0,-1.0,-7.0,-2.0,-1.0,1.0,0.0,1650847294595044.0
-2.0,-1.0,0.0,4.0,1.0,1.0,-2.0,0.0,1650847294595044.0
-2.0,-1.0,-3.0,-1.0,-4.0,-3.0,-2.0,-1.0,1650847294615400.0
-1.0,-3.0,-2.0,-6.0,-3.0,0.0,-2.0,-1.0,1650847294615400.0
1.0,1.0,-1.0,1.0,0.0,0.0,1.0,1.0,1650847294617334.0
-1.0,2.0,1.0,-2.0,-3.0,-1.0,-3.0,0.0,1650847294617334.0
0.0,0.0,1.0,0.0,-1.0,0.0,0.0,0.0,1650847294629472.0
-3.0,-2.0,1.0,2.0,0.0,-1.0,1.0,-2.0,1650847294629472.0
-1.0,0.0,-2.0,-3.0,2.0,1.0,1.0,0.0,1650847294638381.0
-1.0,-4.0,0.0,-2.0,0.0,0.0,2.0,0.0,1650847294638381.0
-1.0,-1.0,0.0,10.0,2.0,-2.0,-1.0,-1.0,1650847294652409.0
-1.0,-4.0,-2.0,-2.0,0.0,0.0,0.0,-2.0,1650847294652409.0
1.0,-1.0,-2.0,1.0,-2.0,0.0,-1.0,-2.0,1650847294660380.0
1.0,4.0,0.0,-5.0,0.0,1.0,1.0,0.0,1650847294660380.0
-1.0,1.0,1.0,0.0,0.0,-1.0,-1.0,0.0,1650847294675384.0
-1.0,-1.0,-2.0,-5.0,-2.0,1.0,-1.0,-1.0,1650847294675384.0
-2.0,-1.0,1.0,10.0,1.0,-1.0,-1.0,-1.0,1650847294677378.0
-1.0,-1.0,-1.0,-1.0,2.0,0.0,-1.0,-2.0,1650847294677378.0
0.0,3.0,-4.0,-3.0,-5.0,-1.0,1.0,0.0,1650847294689413.0
-1.0,-3.0,-1.0,2.0,1.0,0.0,-1.0,1.0,1650847294689413.0
-2.0,-3.0,-1.0,-6.0,-2.0,-1.0,-1.0,0.0,1650847294698810.0
-1.0,3.0,1.0,4.0,-1.0,-1.0,-1.0,1.0,1650847294698810.0
-2.0,-2.0,0.0,-3.0,0.0,1.0,-3.0,1.0,1650847294712789.0
-1.0,-1.0,0.0,-2.0,1.0,0.0,-1.0,2.0,1650847294712789.0
1.0,-1.0,-1.0,3.0,1.0,1.0,-2.0,0.0,1650847294714724.0
1.0,9.0,2.0,1.0,-2.0,-4.0,-1.0,-1.0,1650847294714724.0
1.0,-3.0,-1.0,1.0,-2.0,0.0,0.0,-1.0,1650847294735727.0
-2.0,-5.0,-3.0,-3.0,1.0,0.0,-1.0,0.0,1650847294735727.0
0.0,1.0,1.0,-2.0,0.0,0.0,0.0,0.0,1650847294737656.0
0.0,-4.0,-3.0,-4.0,-4.0,-1.0,0.0,-1.0,1650847294737656.0
1.0,9.0,4.0,11.0,9.0,3.0,1.0,2.0,1650847294749732.0
1.0,0.0,1.0,2.0,-3.0,-1.0,-1.0,-1.0,1650847294749732.0
-2.0,-7.0,-2.0,-5.0,2.0,3.0,0.0,-1.0,1650847294758635.0
0.0,0.0,0.0,0.0,0.0,-1.0,-1.0,0.0,1650847294758635.0
0.0,1.0,-2.0,-3.0,-2.0,-2.0,-2.0,-1.0,1650847294773436.0
0.0,4.0,2.0,0.0,0.0,0.0,0.0,1.0,1650847294773436.0
0.0,0.0,0.0,0.0,-3.0,-1.0,-2.0,-1.0,1650847294774366.0
-3.0,-1.0,-2.0,0.0,2.0,1.0,-3.0,-2.0,1650847294774366.0
-1.0,0.0,-3.0,-5.0,-6.0,-3.0,1.0,-1.0,1650847294795377.0
1.0,1.0,-1.0,-4.0,-1.0,1.0,0.0,-1.0,1650847294795377.0
0.0,-1.0,-2.0,3.0,0.0,-2.0,-1.0,0.0,1650847294797306.0
-3.0,0.0,-1.0,-1.0,-3.0,1.0,-2.0,-1.0,1650847294797306.0
-1.0,-3.0,1.0,-1.0,2.0,1.0,0.0,0.0,1650847294809388.0
-1.0,-3.0,-3.0,-7.0,-4.0,-3.0,1.0,-1.0,1650847294809388.0
-1.0,2.0,2.0,9.0,-1.0,0.0,-1.0,1.0,1650847294818303.0
-2.0,-1.0,-1.0,3.0,6.0,3.0,1.0,0.0,1650847294818303.0
-1.0,-9.0,-6.0,-1.0,-3.0,-2.0,-1.0,-1.0,1650847294833475.0
0.0,0.0,0.0,-7.0,-2.0,-3.0,1.0,0.0,1650847294833475.0
1.0,1.0,-3.0,0.0,-3.0,-3.0,-1.0,0.0,1650847294834404.0
-1.0,1.0,3.0,1.0,-2.0,-1.0,-2.0,0.0,1650847294834404.0
-1.0,-1.0,2.0,-1.0,-5.0,-1.0,-2.0,-2.0,1650847294855416.0
1.0,14.0,2.0,2.0,1.0,-1.0,-2.0,0.0,1650847294855416.0
-1.0,-5.0,-4.0,-7.0,-3.0,-3.0,1.0,0.0,1650847294857344.0
0.0,0.0,1.0,-1.0,3.0,0.0,1.0,-2.0,1650847294857344.0
0.0,-1.0,-2.0,-7.0,-3.0,-1.0,-1.0,1.0,1650847294869546.0
-1.0,-8.0,0.0,1.0,-3.0,-3.0,-3.0,-1.0,1650847294869546.0
1.0,6.0,0.0,0.0,-3.0,1.0,-1.0,0.0,1650847294878434.0
0.0,-7.0,-2.0,0.0,-2.0,-1.0,-1.0,-2.0,1650847294878434.0
-2.0,-5.0,1.0,-2.0,1.0,0.0,-2.0,0.0,1650847294893597.0
2.0,4.0,1.0,2.0,-1.0,-2.0,0.0,-1.0,1650847294893597.0
-3.0,-1.0,-1.0,-8.0,-6.0,-2.0,0.0,-1.0,1650847294894597.0
0.0,-2.0,-1.0,-6.0,4.0,2.0,1.0,0.0,1650847294894597.0
0.0,4.0,1.0,4.0,-1.0,-1.0,1.0,1.0,1650847294915608.0
-3.0,-8.0,-4.0,2.0,3.0,0.0,-1.0,-1.0,1650847294915608.0
-1.0,4.0,0.0,0.0,3.0,-3.0,-1.0,-1.0,1650847294917565.0
-1.0,-1.0,-3.0,-2.0,-5.0,-3.0,1.0,1.0,1650847294917565.0
-2.0,1.0,2.0,-1.0,2.0,-1.0,-1.0,-2.0,1650847294929298.0
0.0,0.0,-1.0,2.0,0.0,1.0,-1.0,-1.0,1650847294929298.0
-2.0,-6.0,-1.0,-2.0,1.0,1.0,1.0,0.0,1650847294938785.0
-1.0,3.0,2.0,3.0,0.0,-1.0,-1.0,1.0,1650847294938785.0
1.0,1.0,-2.0,-3.0,-3.0,-1.0,2.0,1.0,1650847294952884.0
1.0,2.0,2.0,4.0,2.0,1.0,1.0,0.0,1650847294952884.0
0.0,-5.0,0.0,-2.0,1.0,0.0,0.0,-2.0,1650847294954813.0
-1.0,-1.0,-2.0,-5.0,-5.0,-2.0,-2.0,-1.0,1650847294954813.0
0.0,-4.0,-2.0,4.0,0.0,-1.0,-2.0,-1.0,1650847294975542.0
-2.0,3.0,-1.0,1.0,-3.0,-1.0,0.0,0.0,1650847294975542.0
3.0,5.0,0.0,0.0,4.0,2.0,1.0,0.0,1650847294977533.0
0.0,0.0,-1.0,-4.0,-4.0,-2.0,0.0,-1.0,1650847294977533.0
0.0,-3.0,2.0,7.0,6.0,3.0,-1.0,-1.0,1650847294989540.0
0.0,8.0,0.0,-2.0,-3.0,-1.0,-1.0,-1.0,1650847294989540.0
-2.0,-2.0,-2.0,-1.0,0.0,0.0,-1.0,0.0,1650847294998451.0
-1.0,-2.0,-3.0,-1.0,-4.0,-3.0,-1.0,-2.0,1650847294998451.0
-2.0,-1.0,-3.0,-4.0,-6.0,0.0,-1.0,-2.0,1650847295013618.0
-1.0,-4.0,0.0,0.0,0.0,2.0,0.0,0.0,1650847295013618.0
-1.0,-2.0,-1.0,0.0,1.0,-1.0,-2.0,-1.0,1650847295014618.0
0.0,1.0,0.0,2.0,3.0,2.0,1.0,0.0,1650847295014618.0
-2.0,3.0,1.0,-1.0,-1.0,-1.0,1.0,0.0,1650847295035851.0
-1.0,-3.0,-2.0,2.0,1.0,-1.0,1.0,-2.0,1650847295035851.0
0.0,-1.0,-1.0,0.0,-3.0,0.0,-1.0,-1.0,1650847295037777.0
0.0,-5.0,0.0,7.0,1.0,0.0,-1.0,-1.0,1650847295037777.0
1.0,4.0,0.0,-5.0,2.0,-1.0,-1.0,0.0,1650847295057835.0
0.0,-2.0,1.0,8.0,1.0,1.0,0.0,2.0,1650847295057835.0
-1.0,-5.0,-2.0,-10.0,-3.0,-3.0,0.0,0.0,1650847295059775.0
-1.0,2.0,1.0,7.0,0.0,-1.0,-3.0,-1.0,1650847295059775.0
-2.0,-1.0,-1.0,-4.0,-3.0,-2.0,0.0,-3.0,1650847295073581.0
1.0,-3.0,-1.0,-3.0,0.0,0.0,1.0,-1.0,1650847295073581.0
2.0,3.0,2.0,2.0,-2.0,1.0,0.0,0.0,1650847295074538.0
-1.0,-3.0,-3.0,-4.0,0.0,0.0,0.0,1.0,1650847295074538.0
-1.0,0.0,-3.0,0.0,-2.0,-1.0,-1.0,-1.0,1650847295095546.0
-3.0,-11.0,1.0,2.0,1.0,0.0,0.0,0.0,1650847295095546.0
0.0,11.0,4.0,14.0,6.0,0.0,-2.0,-1.0,1650847295097501.0
0.0,-1.0,0.0,-8.0,-6.0,-1.0,0.0,1.0,1650847295097501.0
1.0,-3.0,-2.0,-3.0,1.0,-1.0,0.0,0.0,1650847295118533.0
-2.0,-6.0,-1.0,-1.0,-1.0,1.0,-1.0,-1.0,1650847295118533.0
-2.0,1.0,-1.0,0.0,5.0,1.0,0.0,0.0,1650847295119534.0
0.0,-2.0,1.0,-1.0,0.0,-1.0,-1.0,0.0,1650847295119534.0
-1.0,2.0,0.0,4.0,-1.0,-2.0,-2.0,0.0,1650847295133548.0
0.0,3.0,-1.0,-3.0,-3.0,-2.0,0.0,-1.0,1650847295133548.0
1.0,-4.0,-2.0,-2.0,-4.0,-1.0,-1.0,0.0,1650847295134497.0
-2.0,-1.0,-2.0,1.0,-1.0,2.0,-2.0,-4.0,1650847295134497.0
0.0,-1.0,0.0,-6.0,-3.0,-3.0,0.0,1.0,1650847295155505.0
1.0,3.0,-2.0,-1.0,3.0,1.0,0.0,0.0,1650847295155505.0
-1.0,0.0,-1.0,-2.0,-5.0,0.0,1.0,-1.0,1650847295157459.0
-2.0,-8.0,-4.0,-1.0,0.0,-1.0,0.0,-2.0,1650847295157459.0
1.0,2.0,-1.0,-3.0,-5.0,-1.0,-1.0,-1.0,1650847295178599.0
-2.0,-4.0,-1.0,6.0,0.0,-1.0,-1.0,-3.0,1650847295178599.0
-2.0,-1.0,0.0,-5.0,3.0,0.0,0.0,0.0,1650847295179529.0
2.0,4.0,1.0,0.0,3.0,1.0,0.0,1.0,1650847295179529.0
-1.0,-1.0,0.0,2.0,0.0,-1.0,-1.0,-2.0,1650847295192494.0
0.0,-1.0,-2.0,-2.0,-2.0,0.0,-1.0,-1.0,1650847295192494.0
2.0,-2.0,0.0,5.0,-3.0,-1.0,-1.0,0.0,1650847295199475.0
-1.0,-3.0,0.0,-1.0,-2.0,-2.0,1.0,-1.0,1650847295199475.0
-1.0,12.0,3.0,8.0,6.0,1.0,-2.0,-2.0,1650847295215433.0
0.0,-3.0,-2.0,-5.0,-1.0,-2.0,-1.0,0.0,1650847295215433.0
-2.0,-2.0,0.0,2.0,-1.0,0.0,-3.0,-1.0,1650847295217428.0
2.0,7.0,0.0,1.0,1.0,0.0,-1.0,3.0,1650847295217428.0
0.0,-5.0,-3.0,-3.0,-1.0,-2.0,0.0,0.0,1650847295238371.0
-1.0,-3.0,2.0,1.0,0.0,-1.0,-1.0,-1.0,1650847295238371.0
-1.0,4.0,1.0,-5.0,-3.0,-1.0,1.0,0.0,1650847295239368.0
-1.0,-4.0,-1.0,3.0,-5.0,0.0,0.0,1.0,1650847295239368.0
-2.0,-2.0,1.0,-2.0,1.0,0.0,-4.0,1.0,1650847295260319.0
-1.0,-3.0,-4.0,-6.0,1.0,-1.0,-2.0,-1.0,1650847295260319.0
-1.0,-4.0,2.0,11.0,3.0,-2.0,-1.0,-3.0,1650847295262308.0
0.0,-1.0,-2.0,-3.0,-1.0,-3.0,0.0,0.0,1650847295262308.0
-1.0,-2.0,0.0,1.0,-1.0,2.0,1.0,-2.0,1650847295275273.0
1.0,5.0,0.0,-2.0,-3.0,0.0,0.0,0.0,1650847295275273.0
0.0,1.0,0.0,-6.0,-1.0,0.0,-1.0,0.0,1650847295277267.0
0.0,4.0,1.0,6.0,1.0,0.0,0.0,-1.0,1650847295277267.0
0.0,-7.0,-2.0,4.0,-1.0,0.0,1.0,0.0,1650847295298212.0
-2.0,-3.0,-1.0,-4.0,-1.0,-3.0,-1.0,0.0,1650847295298212.0
-1.0,-4.0,-5.0,-12.0,-5.0,-1.0,0.0,0.0,1650847295300206.0
-2.0,2.0,2.0,7.0,7.0,3.0,0.0,0.0,1650847295300206.0
-1.0,-9.0,-4.0,-5.0,-5.0,-2.0,-1.0,-1.0,1650847295312175.0
0.0,5.0,0.0,3.0,-1.0,-2.0,-2.0,-1.0,1650847295312175.0
0.0,-2.0,-2.0,-3.0,-3.0,-2.0,0.0,0.0,1650847295319156.0
-1.0,-1.0,-2.0,-4.0,0.0,1.0,-1.0,-1.0,1650847295319156.0
-1.0,1.0,0.0,-1.0,0.0,0.0,-3.0,-1.0,1650847295336110.0
-1.0,2.0,1.0,0.0,0.0,1.0,2.0,0.0,1650847295336110.0
0.0,-1.0,0.0,-2.0,-1.0,-2.0,0.0,0.0,1650847295337107.0
0.0,0.0,0.0,-2.0,-2.0,-1.0,0.0,-1.0,1650847295337107.0
0.0,5.0,0.0,-6.0,-3.0,-2.0,-1.0,1.0,1650847295358051.0
0.0,-5.0,2.0,13.0,4.0,2.0,-1.0,1.0,1650847295358051.0
-1.0,2.0,-2.0,-5.0,0.0,0.0,0.0,0.0,1650847295360047.0
-1.0,-2.0,0.0,-3.0,-3.0,0.0,-1.0,-1.0,1650847295360047.0
1.0,-1.0,0.0,0.0,-1.0,-2.0,0.0,-1.0,1650847295372014.0
0.0,-1.0,-2.0,-7.0,0.0,0.0,-1.0,0.0,1650847295372014.0
1.0,-2.0,-1.0,4.0,4.0,2.0,-2.0,0.0,1650847295378996.0
1.0,0.0,-3.0,-6.0,-5.0,-1.0,-1.0,0.0,1650847295378996.0
-2.0,-2.0,-1.0,3.0,-1.0,1.0,-1.0,0.0,1650847295395950.0
0.0,0.0,0.0,-3.0,-5.0,-1.0,0.0,-2.0,1650847295395950.0
-1.0,0.0,0.0,1.0,6.0,-1.0,-1.0,-1.0,1650847295396947.0
-2.0,-3.0,-5.0,-6.0,-3.0,-2.0,-3.0,1.0,1650847295396947.0
0.0,2.0,0.0,1.0,1.0,1.0,1.0,1.0,1650847295418287.0
0.0,-2.0,-1.0,-1.0,-2.0,-2.0,1.0,0.0,1650847295418287.0
-1.0,-2.0,-1.0,0.0,-2.0,-1.0,1.0,-1.0,1650847295419287.0
-1.0,-1.0,-1.0,-1.0,-3.0,1.0,-3.0,-1.0,1650847295419287.0
-1.0,-1.0,0.0,5.0,3.0,0.0,0.0,-1.0,1650847295432252.0
1.0,0.0,1.0,-2.0,-1.0,-1.0,1.0,-1.0,1650847295432252.0
0.0,-1.0,0.0,0.0,-3.0,0.0,-1.0,-1.0,1650847295439254.0
-1.0,-1.0,0.0,-4.0,-1.0,-2.0,0.0,-1.0,1650847295439254.0
-1.0,0.0,-2.0,-3.0,1.0,-1.0,-3.0,0.0,1650847295455217.0
1.0,3.0,1.0,0.0,0.0,0.0,-2.0,-1.0,1650847295455217.0
-1.0,-3.0,-3.0,-5.0,-3.0,-1.0,-1.0,0.0,1650847295457223.0
-1.0,0.0,2.0,3.0,-5.0,-3.0,1.0,-2.0,1650847295457223.0
-2.0,-5.0,1.0,3.0,8.0,4.0,1.0,-1.0,1650847295478668.0
-1.0,-11.0,2.0,6.0,1.0,1.0,0.0,0.0,1650847295478668.0
1.0,26.0,-2.0,-10.0,-7.0,-4.0,-1.0,-1.0,1650847295479668.0
2.0,-3.0,5.0,22.0,16.0,7.0,2.0,2.0,1650847295479668.0
0.0,4.0,-2.0,-4.0,11.0,2.0,0.0,1.0,1650847295492638.0
-2.0,-4.0,-3.0,1.0,-9.0,-5.0,-2.0,-4.0,1650847295492638.0
0.0,-2.0,22.0,73.0,44.0,13.0,7.0,0.0,1650847295499613.0
1.0,2.0,-4.0,-11.0,-15.0,-4.0,-7.0,0.0,1650847295499613.0
2.0,6.0,-3.0,-9.0,-13.0,-3.0,-1.0,-1.0,1650847295515771.0
-3.0,-13.0,-7.0,-6.0,7.0,5.0,1.0,0.0,1650847295515771.0
0.0,8.0,2.0,2.0,4.0,-2.0,2.0,1.0,1650847295517705.0
-1.0,5.0,0.0,-7.0,-6.0,-4.0,-1.0,-2.0,1650847295517705.0
-1.0,-2.0,-2.0,0.0,1.0,0.0,1.0,-2.0,1650847295538693.0
-3.0,2.0,-1.0,-10.0,-11.0,-6.0,-3.0,-1.0,1650847295538693.0
1.0,-17.0,-12.0,-24.0,-21.0,-6.0,-5.0,-6.0,1650847295539702.0
1.0,1.0,1.0,2.0,14.0,7.0,3.0,-2.0,1650847295539702.0
-4.0,-14.0,0.0,-5.0,-1.0,1.0,5.0,3.0,1650847295552234.0
-4.0,4.0,-25.0,-24.0,-13.0,-10.0,-2.0,5.0,1650847295552234.0
2.0,7.0,18.0,31.0,17.0,12.0,-2.0,0.0,1650847295561244.0
1.0,5.0,7.0,2.0,2.0,-5.0,-4.0,-1.0,1650847295561244.0
5.0,-1.0,-6.0,-8.0,-19.0,-6.0,7.0,0.0,1650847295575709.0
-4.0,-5.0,-1.0,14.0,34.0,17.0,-3.0,-9.0,1650847295575709.0
-10.0,-30.0,-23.0,-45.0,-23.0,-6.0,-2.0,-3.0,1650847295577663.0
0.0,9.0,14.0,54.0,24.0,0.0,-3.0,5.0,1650847295577663.0
4.0,20.0,17.0,23.0,6.0,1.0,-4.0,-2.0,1650847295598614.0
-1.0,-2.0,0.0,-21.0,-10.0,-4.0,1.0,-1.0,1650847295598614.0
1.0,6.0,-12.0,-30.0,-22.0,-10.0,-4.0,0.0,1650847295599577.0
-2.0,-11.0,-7.0,-17.0,-3.0,7.0,8.0,-2.0,1650847295599577.0
-1.0,8.0,4.0,15.0,11.0,2.0,-6.0,-2.0,1650847295611837.0
4.0,5.0,-4.0,-11.0,-14.0,-4.0,3.0,7.0,1650847295611837.0
1.0,-4.0,5.0,8.0,6.0,4.0,-6.0,-8.0,1650847295620836.0
-6.0,11.0,-14.0,-67.0,-41.0,-16.0,-19.0,-23.0,1650847295620836.0
7.0,-4.0,19.0,28.0,22.0,19.0,43.0,26.0,1650847295635853.0
1.0,-2.0,15.0,92.0,39.0,9.0,6.0,15.0,1650847295635853.0
-11.0,-34.0,-9.0,27.0,35.0,4.0,0.0,-8.0,1650847295636810.0
0.0,-3.0,-10.0,-24.0,-17.0,-6.0,-19.0,-8.0,1650847295636810.0
-1.0,5.0,-11.0,-38.0,-29.0,-15.0,-37.0,-31.0,1650847295658583.0
15.0,8.0,3.0,-27.0,-12.0,11.0,36.0,32.0,1650847295658583.0
21.0,25.0,16.0,2.0,5.0,7.0,31.0,28.0,1650847295659808.0
-16.0,-36.0,-16.0,34.0,15.0,-12.0,-15.0,-25.0,1650847295659808.0
-21.0,-22.0,-21.0,-26.0,-11.0,-7.0,-44.0,-33.0,1650847295671841.0
-2.0,28.0,19.0,3.0,-8.0,-3.0,-12.0,-10.0,1650847295671841.0
0.0,2.0,-12.0,-23.0,-21.0,-9.0,9.0,15.0,1650847295680752.0
12.0,15.0,19.0,21.0,25.0,22.0,35.0,26.0,1650847295680752.0
-2.0,-19.0,-11.0,-6.0,-17.0,-16.0,12.0,4.0,1650847295695886.0
2.0,-1.0,-10.0,-1.0,-3.0,-3.0,-38.0,-9.0,1650847295695886.0
-15.0,-22.0,-18.0,-28.0,2.0,2.0,2.0,-11.0,1650847295696843.0
6.0,22.0,26.0,34.0,21.0,9.0,0.0,1.0,1650847295696843.0
0.0,-8.0,-2.0,13.0,4.0,7.0,12.0,6.0,1650847295718170.0
-11.0,-19.0,-25.0,-50.0,-24.0,-18.0,-35.0,-27.0,1650847295718170.0
19.0,5.0,12.0,57.0,23.0,0.0,28.0,33.0,1650847295720125.0
-1.0,21.0,17.0,10.0,-11.0,-10.0,-9.0,0.0,1650847295720125.0
3.0,17.0,-4.0,-4.0,14.0,8.0,9.0,10.0,1650847295732092.0
-13.0,-27.0,-16.0,-25.0,-21.0,-12.0,-16.0,-22.0,1650847295732092.0
0.0,7.0,-2.0,-33.0,-25.0,-2.0,12.0,9.0,1650847295741073.0
10.0,30.0,15.0,1.0,17.0,6.0,24.0,16.0,1650847295741073.0
-19.0,-61.0,-21.0,16.0,-7.0,-6.0,-2.0,-3.0,1650847295755922.0
1.0,5.0,3.0,-6.0,-3.0,-5.0,-7.0,-9.0,1650847295755922.0
-5.0,32.0,19.0,-7.0,-21.0,-8.0,-32.0,-26.0,1650847295756872.0
6.0,-24.0,-34.0,-68.0,-25.0,-5.0,10.0,21.0,1650847295756872.0
5.0,31.0,46.0,62.0,25.0,7.0,2.0,0.0,1650847295777987.0
21.0,-13.0,-23.0,-11.0,15.0,9.0,13.0,8.0,1650847295777987.0
-10.0,-2.0,4.0,-4.0,-11.0,2.0,-18.0,-11.0,1650847295779984.0
-1.0,5.0,8.0,-13.0,-8.0,-3.0,14.0,-3.0,1650847295779984.0
2.0,13.0,2.0,-7.0,-10.0,-7.0,-2.0,31.0,1650847295792018.0
-12.0,-17.0,10.0,29.0,13.0,4.0,1.0,-11.0,1650847295792018.0
-5.0,-17.0,-31.0,-26.0,-3.0,-1.0,0.0,-6.0,1650847295800928.0
5.0,13.0,28.0,34.0,13.0,3.0,-15.0,-16.0,1650847295800928.0
-3.0,-32.0,-20.0,-36.0,-3.0,0.0,-1.0,-15.0,1650847295815838.0
2.0,14.0,39.0,47.0,4.0,-3.0,-1.0,5.0,1650847295815838.0
-21.0,-45.0,-29.0,-50.0,-29.0,-32.0,19.0,4.0,1650847295816788.0
-17.0,13.0,-14.0,15.0,-3.0,-10.0,-41.0,-19.0,1650847295816788.0
-7.0,-33.0,-29.0,-11.0,2.0,-7.0,-23.0,-17.0,1650847295838711.0
-21.0,-8.0,50.0,43.0,29.0,11.0,-4.0,-16.0,1650847295838711.0
11.0,60.0,4.0,-5.0,8.0,12.0,-17.0,-18.0,1650847295839716.0
-37.0,-54.0,-37.0,-57.0,-42.0,-19.0,-14.0,-3.0,1650847295839716.0
0.0,-2.0,-20.0,-10.0,2.0,0.0,-6.0,9.0,1650847295851794.0
5.0,18.0,7.0,8.0,-3.0,-1.0,40.0,8.0,1650847295851794.0
32.0,6.0,34.0,55.0,36.0,18.0,10.0,23.0,1650847295860734.0
8.0,-63.0,-60.0,-22.0,-13.0,1.0,9.0,3.0,1650847295860734.0
-25.0,66.0,9.0,-23.0,-20.0,-15.0,-33.0,-20.0,1650847295875322.0
-20.0,-23.0,-15.0,-32.0,-23.0,-13.0,-11.0,2.0,1650847295875322.0
5.0,-7.0,-4.0,-3.0,-4.0,11.0,35.0,5.0,1650847295882237.0
9.0,20.0,30.0,32.0,27.0,12.0,-26.0,-17.0,1650847295882237.0
3.0,-28.0,-10.0,-9.0,-4.0,2.0,30.0,31.0,1650847295898344.0
20.0,36.0,4.0,5.0,1.0,-4.0,12.0,12.0,1650847295898344.0
-4.0,19.0,26.0,25.0,4.0,-2.0,-26.0,-19.0,1650847295899275.0
-5.0,-78.0,-39.0,-9.0,-2.0,6.0,22.0,3.0,1650847295899275.0
19.0,96.0,38.0,-16.0,-16.0,-8.0,-27.0,-23.0,1650847295912327.0
-28.0,-16.0,-6.0,-10.0,2.0,5.0,40.0,18.0,1650847295912327.0
7.0,-15.0,-4.0,12.0,7.0,9.0,-8.0,7.0,1650847295921350.0
20.0,43.0,29.0,2.0,2.0,-6.0,-23.0,2.0,1650847295921350.0
-9.0,-54.0,-17.0,21.0,-9.0,-1.0,23.0,-11.0,1650847295935405.0
21.0,33.0,6.0,-9.0,8.0,8.0,-6.0,22.0,1650847295935405.0
-8.0,-2.0,-11.0,-16.0,-17.0,-14.0,-10.0,-10.0,1650847295942386.0
-5.0,10.0,7.0,11.0,-1.0,2.0,-2.0,-11.0,1650847295942386.0
17.0,-5.0,4.0,-34.0,-13.0,-7.0,-11.0,4.0,1650847295958345.0
-9.0,9.0,-2.0,33.0,21.0,9.0,-5.0,-18.0,1650847295958345.0
-4.0,-8.0,10.0,-2.0,0.0,-2.0,-33.0,-7.0,1650847295959305.0
13.0,-10.0,3.0,4.0,-4.0,7.0,65.0,50.0,1650847295959305.0
14.0,91.0,30.0,3.0,-3.0,0.0,-6.0,0.0,1650847295980451.0
-9.0,-6.0,-13.0,-7.0,2.0,-5.0,-6.0,-3.0,1650847295980451.0
-8.0,-11.0,-17.0,-31.0,-22.0,-26.0,-50.0,-43.0,1650847295982380.0
5.0,36.0,31.0,35.0,11.0,9.0,15.0,27.0,1650847295982380.0
2.0,-56.0,-24.0,-22.0,-4.0,3.0,27.0,2.0,1650847295995411.0
12.0,2.0,-5.0,-5.0,-12.0,0.0,13.0,23.0,1650847295995411.0
4.0,4.0,-2.0,-6.0,-1.0,-1.0,6.0,2.0,1650847296002388.0
-9.0,-28.0,1.0,-8.0,-6.0,2.0,4.0,-25.0,1650847296002388.0
-7.0,20.0,-15.0,4.0,8.0,1.0,15.0,30.0,1650847296018349.0
10.0,-2.0,-2.0,-36.0,-22.0,-12.0,-43.0,-46.0,1650847296018349.0
-6.0,14.0,11.0,17.0,13.0,12.0,23.0,14.0,1650847296019308.0
-14.0,-33.0,-24.0,-12.0,2.0,-6.0,-10.0,-21.0,1650847296019308.0
-19.0,-20.0,0.0,4.0,3.0,4.0,-6.0,-4.0,1650847296041233.0
14.0,4.0,-10.0,4.0,21.0,10.0,11.0,21.0,1650847296041233.0
-18.0,7.0,12.0,15.0,-12.0,-1.0,17.0,-11.0,1650847296042224.0
-4.0,-4.0,-22.0,-35.0,-17.0,-11.0,-43.0,-29.0,1650847296042224.0
-9.0,-21.0,12.0,34.0,6.0,-3.0,0.0,-5.0,1650847296055373.0
6.0,-29.0,-18.0,-15.0,4.0,6.0,20.0,38.0,1650847296055373.0
-6.0,15.0,4.0,11.0,5.0,-6.0,-33.0,-59.0,1650847296062287.0
11.0,16.0,0.0,-10.0,1.0,6.0,54.0,52.0,1650847296062287.0
3.0,-15.0,-5.0,-10.0,-2.0,2.0,-21.0,-29.0,1650847296079309.0
3.0,24.0,7.0,7.0,-3.0,-9.0,-13.0,-2.0,1650847296079309.0
-16.0,-7.0,19.0,37.0,15.0,2.0,-22.0,11.0,1650847296080242.0
17.0,47.0,3.0,-16.0,-11.0,-8.0,-7.0,-7.0,1650847296080242.0
-9.0,-10.0,0.0,-8.0,7.0,10.0,38.0,23.0,1650847296101172.0
-12.0,-31.0,-9.0,9.0,-12.0,-5.0,-22.0,-25.0,1650847296101172.0
-5.0,14.0,9.0,25.0,22.0,10.0,31.0,40.0,1650847296102174.0
-2.0,-13.0,-7.0,-6.0,-4.0,-5.0,-16.0,-25.0,1650847296102174.0
17.0,6.0,12.0,0.0,4.0,11.0,11.0,-9.0,1650847296115206.0
4.0,59.0,12.0,30.0,25.0,6.0,-3.0,10.0,1650847296115206.0
9.0,-10.0,-10.0,-32.0,-26.0,-17.0,-23.0,-27.0,1650847296122186.0
5.0,6.0,4.0,18.0,22.0,14.0,24.0,50.0,1650847296122186.0
0.0,-14.0,-7.0,-12.0,10.0,3.0,15.0,16.0,1650847296138376.0
1.0,3.0,5.0,8.0,-14.0,2.0,14.0,-4.0,1650847296138376.0
-4.0,-9.0,-5.0,-23.0,-3.0,-8.0,-39.0,-5.0,1650847296139418.0
-16.0,36.0,5.0,10.0,0.0,1.0,34.0,-1.0,1650847296139418.0
18.0,9.0,-6.0,-43.0,-18.0,-10.0,-23.0,-3.0,1650847296160470.0
-6.0,-5.0,-7.0,-18.0,-1.0,-4.0,-7.0,-15.0,1650847296160470.0
8.0,-7.0,2.0,39.0,13.0,7.0,20.0,25.0,1650847296162465.0
-3.0,22.0,15.0,-6.0,-13.0,-7.0,-16.0,-37.0,1650847296162465.0
3.0,-4.0,-11.0,2.0,5.0,-1.0,10.0,36.0,1650847296175509.0
-5.0,3.0,4.0,-6.0,-5.0,-5.0,-27.0,-23.0,1650847296175509.0
13.0,-15.0,-13.0,-13.0,-9.0,0.0,20.0,11.0,1650847296181481.0
-5.0,-16.0,3.0,-5.0,9.0,12.0,6.0,2.0,1650847296181481.0
0.0,18.0,15.0,25.0,11.0,0.0,-32.0,-29.0,1650847296198437.0
18.0,26.0,-15.0,-38.0,-20.0,-4.0,54.0,73.0,1650847296198437.0
5.0,-8.0,3.0,16.0,15.0,10.0,11.0,-10.0,1650847296199393.0
3.0,-14.0,1.0,14.0,-8.0,-6.0,4.0,13.0,1650847296199393.0
-23.0,-3.0,0.0,-2.0,2.0,-5.0,-20.0,-17.0,1650847296220377.0
-11.0,-42.0,-15.0,-33.0,-18.0,-10.0,-29.0,-26.0,1650847296220377.0
10.0,12.0,-2.0,25.0,13.0,9.0,42.0,41.0,1650847296222305.0
-4.0,11.0,7.0,1.0,17.0,3.0,-29.0,-23.0,1650847296222305.0
6.0,-24.0,-10.0,3.0,-6.0,-8.0,-9.0,-3.0,1650847296235338.0
7.0,31.0,20.0,6.0,2.0,2.0,-1.0,1.0,1650847296235338.0
-8.0,-14.0,-23.0,-40.0,-20.0,-2.0,1.0,-7.0,1650847296242312.0
4.0,-11.0,6.0,36.0,24.0,4.0,-4.0,25.0,1650847296242312.0
-2.0,17.0,12.0,18.0,2.0,2.0,1.0,-32.0,1650847296258277.0
-7.0,-8.0,-2.0,-2.0,-9.0,-1.0,9.0,-3.0,1650847296258277.0
-4.0,-35.0,-27.0,-36.0,-28.0,-12.0,-34.0,-26.0,1650847296260234.0
-6.0,-15.0,-5.0,18.0,7.0,-3.0,-3.0,23.0,1650847296260234.0
6.0,15.0,15.0,20.0,9.0,8.0,14.0,7.0,1650847296280367.0
-1.0,-21.0,-18.0,-12.0,2.0,-1.0,2.0,-7.0,1650847296280367.0
2.0,5.0,5.0,1.0,-1.0,2.0,-12.0,0.0,1650847296282295.0
14.0,-1.0,-22.0,-56.0,-25.0,-6.0,27.0,29.0,1650847296282295.0
-2.0,3.0,15.0,56.0,20.0,9.0,-1.0,-7.0,1650847296295326.0
2.0,-20.0,-6.0,5.0,4.0,1.0,-25.0,-34.0,1650847296295326.0
-13.0,-1.0,4.0,-10.0,0.0,0.0,16.0,17.0,1650847296302241.0
6.0,11.0,-4.0,-23.0,-17.0,-2.0,-3.0,1.0,1650847296302241.0
3.0,-3.0,-6.0,-13.0,-14.0,-11.0,-10.0,0.0,1650847296317797.0
0.0,2.0,2.0,-4.0,0.0,-4.0,-8.0,-7.0,1650847296317797.0
8.0,27.0,25.0,44.0,37.0,19.0,22.0,25.0,1650847296324812.0
-7.0,-20.0,-13.0,3.0,-9.0,-6.0,-2.0,-7.0,1650847296324812.0
0.0,24.0,-2.0,-3.0,3.0,2.0,-4.0,-21.0,1650847296340745.0
1.0,-18.0,2.0,4.0,8.0,9.0,12.0,14.0,1650847296340745.0
3.0,11.0,-3.0,-1.0,-12.0,-13.0,-4.0,10.0,1650847296342729.0
-10.0,-14.0,-3.0,1.0,5.0,3.0,-14.0,-44.0,1650847296342729.0
15.0,19.0,17.0,18.0,-1.0,0.0,4.0,22.0,1650847296355357.0
-8.0,-28.0,-8.0,11.0,11.0,9.0,10.0,-2.0,1650847296355357.0
5.0,0.0,3.0,-13.0,-10.0,-7.0,-9.0,0.0,1650847296362320.0
-1.0,18.0,-1.0,-5.0,0.0,0.0,-10.0,-16.0,1650847296362320.0
-8.0,-40.0,-15.0,-17.0,-15.0,-10.0,7.0,18.0,1650847296378273.0
-4.0,24.0,9.0,13.0,-7.0,-5.0,-11.0,-12.0,1650847296378273.0
0.0,5.0,16.0,24.0,16.0,13.0,20.0,5.0,1650847296380271.0
-2.0,-15.0,-2.0,-4.0,-6.0,-10.0,-22.0,-20.0,1650847296380271.0
1.0,0.0,-8.0,-28.0,-8.0,3.0,10.0,4.0,1650847296400217.0
-20.0,1.0,1.0,1.0,-8.0,-5.0,9.0,19.0,1650847296400217.0
-5.0,-15.0,-19.0,-25.0,-6.0,0.0,-2.0,-19.0,1650847296402211.0
-4.0,0.0,8.0,27.0,10.0,-3.0,-8.0,-6.0,1650847296402211.0
2.0,11.0,4.0,-9.0,-2.0,0.0,-5.0,3.0,1650847296415240.0
9.0,14.0,1.0,-12.0,-6.0,0.0,5.0,14.0,1650847296415240.0
-5.0,-5.0,-8.0,-5.0,-10.0,-5.0,-20.0,-29.0,1650847296422222.0
1.0,3.0,17.0,25.0,22.0,11.0,19.0,16.0,1650847296422222.0
5.0,7.0,-2.0,-1.0,8.0,10.0,38.0,41.0,1650847296438690.0
-3.0,-11.0,-3.0,-8.0,-9.0,-7.0,-18.0,-20.0,1650847296438690.0
-3.0,-20.0,-14.0,-4.0,3.0,5.0,7.0,-7.0,1650847296439697.0
4.0,37.0,13.0,5.0,-7.0,-6.0,-27.0,-21.0,1650847296439697.0
3.0,-15.0,-4.0,16.0,20.0,6.0,7.0,10.0,1650847296460939.0
4.0,-33.0,-18.0,-22.0,6.0,6.0,15.0,7.0,1650847296460939.0
-3.0,-6.0,7.0,11.0,1.0,-3.0,-11.0,-4.0,1650847296461908.0
0.0,-2.0,0.0,-2.0,-7.0,-1.0,8.0,12.0,1650847296461908.0
-5.0,-18.0,-10.0,-10.0,-3.0,-6.0,-25.0,-18.0,1650847296473992.0
-2.0,-11.0,-2.0,-6.0,-1.0,-1.0,15.0,8.0,1650847296473992.0
2.0,5.0,4.0,-5.0,-6.0,-4.0,-13.0,-3.0,1650847296483000.0
-4.0,-21.0,-12.0,4.0,1.0,-6.0,1.0,-7.0,1650847296483000.0
-3.0,2.0,2.0,-3.0,1.0,-2.0,-7.0,-10.0,1650847296498642.0
8.0,6.0,17.0,36.0,24.0,15.0,-6.0,-3.0,1650847296498642.0
-1.0,-7.0,-12.0,-22.0,-11.0,-5.0,11.0,27.0,1650847296499642.0
-4.0,-4.0,-3.0,-18.0,-8.0,2.0,-4.0,-18.0,1650847296499642.0
3.0,7.0,7.0,13.0,4.0,5.0,7.0,6.0,1650847296520814.0
-3.0,-25.0,1.0,24.0,3.0,-5.0,10.0,1.0,1650847296520814.0
-6.0,22.0,2.0,-9.0,6.0,-2.0,-19.0,-17.0,1650847296521821.0
7.0,1.0,-2.0,-12.0,-11.0,2.0,23.0,33.0,1650847296521821.0
-4.0,3.0,1.0,-11.0,-3.0,-4.0,-16.0,-19.0,1650847296534814.0
3.0,5.0,-6.0,-10.0,-3.0,-3.0,-3.0,-2.0,1650847296534814.0
10.0,23.0,11.0,5.0,3.0,11.0,32.0,24.0,1650847296543740.0
-7.0,-13.0,-2.0,20.0,11.0,5.0,0.0,9.0,1650847296543740.0
-7.0,-17.0,-12.0,2.0,2.0,1.0,-8.0,-2.0,1650847296558603.0
4.0,19.0,6.0,1.0,-4.0,3.0,6.0,-4.0,1650847296558603.0
-3.0,-17.0,-6.0,-11.0,-4.0,-4.0,-14.0,-13.0,1650847296559781.0
13.0,35.0,12.0,-16.0,-9.0,-6.0,9.0,17.0,1650847296559781.0
-1.0,26.0,2.0,13.0,-6.0,-4.0,0.0,9.0,1650847296580947.0
-3.0,-14.0,3.0,24.0,8.0,-1.0,-18.0,-16.0,1650847296580947.0
2.0,5.0,1.0,-11.0,-2.0,-1.0,9.0,9.0,1650847296581905.0
-6.0,-13.0,-2.0,-3.0,3.0,-2.0,-38.0,-41.0,1650847296581905.0
4.0,-3.0,-7.0,-7.0,2.0,4.0,32.0,32.0,1650847296593857.0
-4.0,-2.0,9.0,2.0,-9.0,-4.0,-6.0,-19.0,1650847296593857.0
-2.0,-2.0,-1.0,23.0,20.0,6.0,-5.0,-4.0,1650847296602888.0
-4.0,-2.0,-2.0,-15.0,-13.0,-7.0,6.0,10.0,1650847296602888.0
-1.0,-12.0,-4.0,18.0,7.0,1.0,-10.0,-9.0,1650847296617958.0
-2.0,4.0,-3.0,-26.0,-16.0,-5.0,-7.0,-3.0,1650847296617958.0
4.0,-6.0,-2.0,1.0,-7.0,1.0,27.0,30.0,1650847296619980.0
-4.0,7.0,-6.0,0.0,8.0,-1.0,-8.0,-12.0,1650847296619980.0
-9.0,-27.0,-4.0,2.0,-8.0,-8.0,-23.0,-21.0,1650847296640893.0
9.0,21.0,8.0,-2.0,-4.0,4.0,22.0,24.0,1650847296640893.0
-3.0,9.0,-5.0,-3.0,-9.0,-6.0,-12.0,-14.0,1650847296641850.0
-2.0,-26.0,-1.0,14.0,15.0,8.0,-1.0,4.0,1650847296641850.0
-4.0,-2.0,-5.0,-26.0,-13.0,-6.0,3.0,-10.0,1650847296653791.0
-1.0,0.0,-10.0,3.0,-4.0,-3.0,5.0,9.0,1650847296653791.0
8.0,31.0,26.0,11.0,17.0,6.0,9.0,5.0,1650847296663766.0
-9.0,-22.0,-10.0,-3.0,-4.0,-4.0,-8.0,-10.0,1650847296663766.0
-1.0,-6.0,2.0,9.0,2.0,1.0,-6.0,-7.0,1650847296677792.0
-2.0,2.0,-8.0,-21.0,-19.0,-8.0,-10.0,-9.0,1650847296677792.0
5.0,-16.0,1.0,22.0,19.0,8.0,14.0,10.0,1650847296679721.0
2.0,10.0,0.0,0.0,2.0,1.0,0.0,4.0,1650847296679721.0
0.0,-5.0,3.0,-9.0,-3.0,3.0,3.0,5.0,1650847296700840.0
-3.0,-6.0,-2.0,13.0,4.0,0.0,3.0,-1.0,1650847296700840.0
-6.0,-6.0,-12.0,-29.0,-23.0,-13.0,-5.0,-7.0,1650847296701841.0
4.0,9.0,9.0,20.0,13.0,3.0,-2.0,16.0,1650847296701841.0
0.0,10.0,3.0,-13.0,-8.0,0.0,16.0,-3.0,1650847296714786.0
-7.0,-7.0,2.0,-3.0,3.0,-2.0,-12.0,-6.0,1650847296714786.0
-2.0,-18.0,-24.0,-27.0,-12.0,-3.0,-1.0,-6.0,1650847296722773.0
-7.0,-4.0,4.0,17.0,0.0,-1.0,9.0,7.0,1650847296722773.0
4.0,-3.0,-8.0,-17.0,-1.0,-3.0,-4.0,0.0,1650847296737853.0
4.0,14.0,11.0,17.0,8.0,1.0,-3.0,-6.0,1650847296737853.0
-4.0,-16.0,-1.0,-6.0,-15.0,-6.0,-29.0,-21.0,1650847296739781.0
6.0,26.0,6.0,-5.0,10.0,5.0,36.0,32.0,1650847296739781.0
5.0,-8.0,5.0,22.0,10.0,4.0,5.0,-3.0,1650847296760873.0
3.0,23.0,-2.0,-15.0,-6.0,-7.0,-14.0,-1.0,1650847296760873.0
-8.0,-17.0,0.0,-4.0,-5.0,-4.0,-7.0,-16.0,1650847296761805.0
4.0,14.0,3.0,-12.0,-15.0,-4.0,-12.0,-2.0,1650847296761805.0
1.0,13.0,7.0,21.0,33.0,10.0,2.0,-3.0,1650847296774868.0
1.0,-34.0,-11.0,-2.0,3.0,4.0,2.0,-5.0,1650847296774868.0
4.0,26.0,13.0,4.0,-8.0,-5.0,2.0,10.0,1650847296783746.0
-1.0,-16.0,-9.0,6.0,6.0,3.0,3.0,-8.0,1650847296783746.0
-1.0,19.0,1.0,1.0,-12.0,-3.0,0.0,2.0,1650847296797774.0
-2.0,6.0,-2.0,-8.0,-4.0,-4.0,-13.0,0.0,1650847296797774.0
-6.0,-6.0,-11.0,-8.0,-13.0,-7.0,12.0,2.0,1650847296799714.0
-3.0,-12.0,-11.0,-19.0,-2.0,-3.0,-21.0,-15.0,1650847296799714.0
2.0,14.0,11.0,19.0,0.0,-1.0,-5.0,-12.0,1650847296820790.0
0.0,-8.0,-15.0,-20.0,-10.0,-6.0,13.0,17.0,1650847296820790.0
-7.0,9.0,7.0,10.0,3.0,-1.0,-23.0,-9.0,1650847296822741.0
-5.0,-7.0,-3.0,-6.0,-3.0,-3.0,1.0,-23.0,1650847296822741.0
-4.0,-20.0,-4.0,3.0,-1.0,-1.0,10.0,18.0,1650847296834761.0
4.0,14.0,8.0,-12.0,-5.0,0.0,8.0,24.0,1650847296834761.0
-10.0,-18.0,-14.0,10.0,3.0,-3.0,-9.0,-31.0,1650847296843661.0
6.0,10.0,7.0,7.0,4.0,7.0,2.0,-3.0,1650847296843661.0
-7.0,-21.0,-13.0,-9.0,-10.0,-3.0,-3.0,-4.0,1650847296858607.0
-2.0,-2.0,7.0,12.0,-4.0,-7.0,-13.0,-4.0,1650847296858607.0
3.0,-3.0,0.0,5.0,11.0,3.0,8.0,4.0,1650847296859822.0
2.0,-12.0,-3.0,3.0,-7.0,-4.0,-3.0,10.0,1650847296859822.0
-6.0,14.0,-7.0,-32.0,-21.0,-11.0,-10.0,-14.0,1650847296880931.0
3.0,-13.0,-9.0,-3.0,8.0,9.0,2.0,-3.0,1650847296880931.0
6.0,7.0,7.0,20.0,2.0,0.0,0.0,5.0,1650847296881888.0
3.0,22.0,7.0,-24.0,-12.0,-4.0,-3.0,-10.0,1650847296881888.0
-2.0,-14.0,-2.0,16.0,20.0,7.0,15.0,16.0,1650847296902840.0
2.0,26.0,11.0,17.0,5.0,3.0,-4.0,-9.0,1650847296902840.0
-4.0,-11.0,-7.0,-10.0,3.0,-2.0,-17.0,2.0,1650847296904765.0
-5.0,-2.0,0.0,3.0,-4.0,3.0,23.0,10.0,1650847296904765.0
-5.0,9.0,6.0,-4.0,-10.0,-4.0,-25.0,-41.0,1650847296918727.0
1.0,20.0,4.0,7.0,17.0,5.0,7.0,4.0,1650847296918727.0
4.0,-15.0,-8.0,-12.0,-5.0,3.0,10.0,11.0,1650847296919736.0
-3.0,-7.0,-2.0,2.0,-1.0,-4.0,-1.0,9.0,1650847296919736.0
3.0,15.0,5.0,-2.0,-2.0,0.0,-10.0,4.0,1650847296940855.0
-7.0,-35.0,-10.0,-3.0,-3.0,-3.0,-6.0,-12.0,1650847296940855.0
-3.0,23.0,11.0,1.0,1.0,-1.0,-5.0,-6.0,1650847296942799.0
4.0,17.0,5.0,3.0,-2.0,-1.0,3.0,1.0,1650847296942799.0
1.0,-11.0,-5.0,-5.0,-4.0,-1.0,1.0,2.0,1650847296962727.0
-1.0,-16.0,-10.0,1.0,-2.0,1.0,-2.0,2.0,1650847296962727.0
-4.0,-5.0,-7.0,-1.0,-1.0,0.0,5.0,-4.0,1650847296964721.0
1.0,-11.0,-2.0,-1.0,-2.0,-1.0,-10.0,-1.0,1650847296964721.0
2.0,11.0,2.0,0.0,1.0,-1.0,5.0,12.0,1650847296978683.0
-2.0,3.0,3.0,4.0,3.0,6.0,0.0,-9.0,1650847296978683.0
-2.0,1.0,0.0,-9.0,-6.0,-6.0,11.0,9.0,1650847296979681.0
-2.0,-7.0,0.0,5.0,1.0,-1.0,-7.0,-2.0,1650847296979681.0
1.0,-5.0,-5.0,-7.0,-1.0,2.0,-5.0,-4.0,1650847297000501.0
4.0,10.0,8.0,9.0,6.0,3.0,21.0,14.0,1650847297000501.0
2.0,-7.0,-8.0,-20.0,-7.0,2.0,5.0,8.0,1650847297002458.0
0.0,-4.0,-4.0,10.0,4.0,0.0,-5.0,-8.0,1650847297002458.0
3.0,-7.0,-10.0,-23.0,-10.0,1.0,1.0,6.0,1650847297023440.0
1.0,15.0,15.0,22.0,8.0,1.0,1.0,0.0,1650847297023440.0
-1.0,-13.0,-13.0,-2.0,-1.0,3.0,4.0,2.0,1650847297024393.0
-4.0,-25.0,-5.0,2.0,1.0,0.0,-1.0,-1.0,1650847297024393.0
-2.0,7.0,-2.0,-12.0,-10.0,-4.0,-3.0,0.0,1650847297038453.0
-2.0,-3.0,-2.0,-8.0,-7.0,0.0,1.0,-14.0,1650847297038453.0
2.0,14.0,9.0,3.0,7.0,1.0,-1.0,6.0,1650847297039454.0
-1.0,-17.0,-13.0,0.0,-1.0,-1.0,-1.0,-2.0,1650847297039454.0
-1.0,-3.0,4.0,13.0,5.0,-1.0,3.0,1.0,1650847297061858.0
-2.0,0.0,-2.0,-12.0,-9.0,-1.0,-2.0,2.0,1650847297061858.0
5.0,11.0,6.0,12.0,2.0,1.0,0.0,1.0,1650847297062835.0
-4.0,-1.0,-4.0,-15.0,-4.0,-1.0,-1.0,-3.0,1650847297062835.0
-1.0,9.0,8.0,7.0,6.0,-1.0,4.0,3.0,1650847297083671.0
-5.0,9.0,-3.0,-5.0,-1.0,-3.0,-4.0,-4.0,1650847297083671.0
-2.0,4.0,2.0,-10.0,-5.0,-1.0,-2.0,-4.0,1650847297084675.0
3.0,4.0,-3.0,4.0,0.0,-1.0,1.0,0.0,1650847297084675.0
-2.0,-19.0,0.0,1.0,-1.0,-1.0,0.0,3.0,1650847297097701.0
3.0,14.0,4.0,-6.0,-4.0,-1.0,-3.0,-2.0,1650847297097701.0
-3.0,-9.0,1.0,7.0,7.0,2.0,-2.0,-2.0,1650847297104682.0
-3.0,2.0,-1.0,1.0,0.0,-1.0,-1.0,2.0,1650847297104682.0
-2.0,10.0,-2.0,-1.0,2.0,-1.0,-1.0,-3.0,1650847297120640.0
-4.0,-21.0,-14.0,-8.0,-2.0,0.0,-3.0,-3.0,1650847297120640.0
1.0,0.0,4.0,2.0,2.0,2.0,3.0,0.0,1650847297122595.0
0.0,12.0,4.0,3.0,0.0,-2.0,-1.0,-2.0,1650847297122595.0
-1.0,-13.0,-5.0,-3.0,-2.0,1.0,-2.0,-2.0,1650847297142788.0
-1.0,1.0,4.0,4.0,3.0,-3.0,-2.0,-1.0,1650847297142788.0
1.0,7.0,4.0,1.0,-2.0,-1.0,-2.0,1.0,1650847297144722.0
-2.0,-3.0,1.0,-4.0,-2.0,2.0,0.0,-2.0,1650847297144722.0
-3.0,1.0,-3.0,1.0,-1.0,2.0,0.0,0.0,1650847297156906.0
2.0,-4.0,0.0,-4.0,-5.0,-3.0,-4.0,-1.0,1650847297156906.0
-3.0,12.0,-5.0,-3.0,-3.0,-6.0,-5.0,-2.0,1650847297166143.0
-1.0,-18.0,-8.0,-1.0,0.0,0.0,-1.0,-2.0,1650847297166143.0
-2.0,2.0,1.0,-5.0,-6.0,-4.0,-2.0,0.0,1650847297181012.0
-5.0,-18.0,-1.0,3.0,-1.0,-1.0,-1.0,-2.0,1650847297181012.0
3.0,6.0,5.0,-1.0,-6.0,-3.0,-1.0,1.0,1650847297182013.0
-3.0,15.0,-1.0,6.0,5.0,2.0,-2.0,-1.0,1650847297182013.0
-2.0,-14.0,0.0,-3.0,2.0,0.0,-1.0,-1.0,1650847297203023.0
-3.0,4.0,-6.0,0.0,-1.0,-1.0,-1.0,-1.0,1650847297203023.0
6.0,16.0,17.0,6.0,2.0,0.0,0.0,0.0,1650847297204978.0
3.0,-4.0,6.0,-3.0,0.0,-2.0,-1.0,0.0,1650847297204978.0
6.0,4.0,2.0,3.0,3.0,1.0,2.0,2.0,1650847297216988.0
0.0,-11.0,-4.0,1.0,6.0,0.0,-2.0,-1.0,1650847297216988.0
2.0,-7.0,-5.0,-7.0,-5.0,1.0,2.0,0.0,1650847297225895.0
1.0,8.0,2.0,-2.0,-12.0,-3.0,0.0,0.0,1650847297225895.0
1.0,2.0,0.0,8.0,18.0,4.0,1.0,0.0,1650847297240891.0
1.0,7.0,3.0,-1.0,-5.0,0.0,-1.0,-1.0,1650847297240891.0
-6.0,-7.0,-8.0,-4.0,-2.0,-2.0,0.0,0.0,1650847297241847.0
1.0,-5.0,-5.0,-12.0,-5.0,0.0,2.0,1.0,1650847297241847.0
1.0,2.0,-3.0,2.0,-5.0,-2.0,1.0,0.0,1650847297263829.0
3.0,6.0,7.0,-1.0,-2.0,-1.0,0.0,2.0,1650847297263829.0
0.0,-5.0,-3.0,-5.0,0.0,1.0,-2.0,0.0,1650847297265822.0
0.0,-2.0,-1.0,0.0,2.0,-3.0,-2.0,-2.0,1650847297265822.0
-2.0,0.0,4.0,22.0,-1.0,-1.0,0.0,0.0,1650847297277856.0
-1.0,5.0,3.0,0.0,3.0,2.0,0.0,-1.0,1650847297277856.0
-1.0,-7.0,4.0,3.0,-2.0,0.0,1.0,-1.0,1650847297284798.0
-1.0,-3.0,3.0,-4.0,4.0,1.0,-1.0,-1.0,1650847297284798.0
0.0,4.0,-27.0,-15.0,-5.0,-2.0,-2.0,0.0,1650847297308581.0
-4.0,-5.0,-1.0,0.0,-4.0,-1.0,0.0,0.0,1650847297308581.0
-2.0,-1.0,-1.0,1.0,2.0,-1.0,-1.0,1.0,1650847297309773.0
-5.0,-20.0,-7.0,4.0,1.0,2.0,0.0,-1.0,1650847297309773.0
-1.0,2.0,11.0,1.0,-1.0,1.0,0.0,1.0,1650847297322806.0
-2.0,3.0,-4.0,-2.0,3.0,3.0,0.0,0.0,1650847297322806.0
-4.0,-1.0,3.0,1.0,0.0,1.0,2.0,0.0,1650847297324733.0
-3.0,10.0,3.0,3.0,2.0,0.0,0.0,-1.0,1650847297324733.0
-1.0,-2.0,1.0,-4.0,-5.0,-2.0,-2.0,-2.0,1650847297337764.0
0.0,-7.0,-13.0,-3.0,0.0,0.0,-2.0,-1.0,1650847297337764.0
2.0,11.0,20.0,11.0,1.0,1.0,1.0,0.0,1650847297344746.0
6.0,14.0,5.0,4.0,1.0,2.0,1.0,0.0,1650847297344746.0
-2.0,-32.0,-5.0,-11.0,-4.0,-2.0,0.0,-4.0,1650847297360856.0
1.0,26.0,-9.0,-11.0,-9.0,-5.0,-3.0,-5.0,1650847297360856.0
2.0,-6.0,-6.0,1.0,4.0,0.0,-1.0,-1.0,1650847297361787.0
1.0,4.0,2.0,-4.0,-4.0,0.0,-2.0,0.0,1650847297361787.0
4.0,10.0,7.0,2.0,1.0,-1.0,1.0,2.0,1650847297382949.0
2.0,-7.0,-2.0,1.0,5.0,2.0,3.0,0.0,1650847297382949.0
-3.0,-6.0,2.0,9.0,0.0,-3.0,-1.0,-3.0,1650847297384878.0
1.0,15.0,30.0,3.0,0.0,0.0,-1.0,-1.0,1650847297384878.0
-5.0,-3.0,-20.0,-6.0,-4.0,-3.0,-4.0,-2.0,1650847297396847.0
-2.0,-13.0,1.0,0.0,0.0,-2.0,-3.0,0.0,1650847297396847.0
1.0,0.0,-16.0,-9.0,-2.0,-1.0,-1.0,1.0,1650847297405822.0
0.0,1.0,0.0,2.0,-1.0,-1.0,1.0,1.0,1650847297405822.0
1.0,0.0,6.0,2.0,-2.0,0.0,0.0,-1.0,1650847297420915.0
0.0,0.0,3.0,0.0,-3.0,0.0,0.0,-1.0,1650847297420915.0
1.0,1.0,-3.0,-1.0,4.0,0.0,2.0,-1.0,1650847297421854.0
-5.0,-7.0,-9.0,-3.0,-7.0,-4.0,-1.0,-3.0,1650847297421854.0
-1.0,1.0,3.0,-4.0,0.0,-2.0,-1.0,0.0,1650847297442794.0
-1.0,-3.0,3.0,17.0,13.0,3.0,0.0,-1.0,1650847297442794.0
-1.0,-1.0,-2.0,-2.0,-1.0,-1.0,0.0,-1.0,1650847297444722.0
-2.0,-7.0,-18.0,-9.0,-4.0,-4.0,-2.0,1.0,1650847297444722.0
1.0,7.0,7.0,0.0,-6.0,-2.0,2.0,0.0,1650847297456756.0
0.0,-2.0,6.0,-1.0,3.0,-2.0,-1.0,1.0,1650847297456756.0
-3.0,-17.0,-7.0,-1.0,-2.0,-1.0,-1.0,0.0,1650847297465734.0
1.0,14.0,-2.0,-7.0,3.0,0.0,-1.0,-1.0,1650847297465734.0
-1.0,2.0,2.0,3.0,-5.0,-1.0,0.0,0.0,1650847297480694.0
1.0,5.0,4.0,-6.0,-2.0,1.0,1.0,0.0,1650847297480694.0
-2.0,3.0,0.0,-5.0,-2.0,0.0,-2.0,-1.0,1650847297482692.0
-1.0,-14.0,-10.0,0.0,0.0,0.0,1.0,-1.0,1650847297482692.0
2.0,8.0,1.0,-2.0,1.0,1.0,-1.0,-2.0,1650847297502786.0
-2.0,-14.0,-9.0,-2.0,-3.0,0.0,-1.0,-1.0,1650847297502786.0
1.0,17.0,0.0,-4.0,-6.0,-2.0,1.0,0.0,1650847297504786.0
-4.0,2.0,2.0,5.0,10.0,3.0,-1.0,-1.0,1650847297504786.0
1.0,-11.0,0.0,20.0,10.0,2.0,0.0,-1.0,1650847297516856.0
1.0,0.0,3.0,0.0,-4.0,-2.0,-1.0,-1.0,1650847297516856.0
2.0,-9.0,-20.0,-8.0,-3.0,1.0,0.0,0.0,1650847297525814.0
0.0,-4.0,2.0,-1.0,2.0,0.0,0.0,1.0,1650847297525814.0
4.0,17.0,8.0,-4.0,-4.0,-2.0,-1.0,2.0,1650847297540991.0
-3.0,-16.0,4.0,4.0,-2.0,0.0,-2.0,-2.0,1650847297540991.0
0.0,-8.0,-2.0,-8.0,-3.0,-1.0,-2.0,-4.0,1650847297541924.0
1.0,-1.0,-1.0,5.0,-3.0,-1.0,0.0,0.0,1650847297541924.0
-2.0,5.0,4.0,0.0,2.0,0.0,-1.0,-2.0,1650847297563014.0
2.0,-5.0,-6.0,1.0,4.0,4.0,2.0,1.0,1650847297563014.0
-1.0,3.0,1.0,-2.0,-2.0,-2.0,-2.0,-1.0,1650847297564982.0
-3.0,-5.0,-5.0,-6.0,-6.0,-3.0,-1.0,-1.0,1650847297564982.0
-2.0,3.0,4.0,3.0,1.0,0.0,-1.0,-2.0,1650847297577015.0
0.0,11.0,2.0,-6.0,-5.0,-2.0,-2.0,0.0,1650847297577015.0
-2.0,-5.0,-2.0,1.0,3.0,0.0,0.0,0.0,1650847297585931.0
-1.0,1.0,6.0,3.0,0.0,-1.0,-1.0,-2.0,1650847297585931.0
0.0,-11.0,-12.0,-4.0,-1.0,-1.0,0.0,0.0,1650847297600792.0
-1.0,-2.0,1.0,1.0,0.0,1.0,1.0,-1.0,1650847297600792.0
0.0,11.0,0.0,3.0,0.0,-2.0,0.0,-2.0,1650847297602722.0
-1.0,7.0,1.0,-2.0,-6.0,-2.0,-1.0,0.0,1650847297602722.0
-2.0,2.0,-1.0,-3.0,-2.0,-1.0,-1.0,1.0,1650847297623666.0
-3.0,-8.0,-7.0,-1.0,-1.0,0.0,-1.0,-1.0,1650847297623666.0
1.0,-2.0,9.0,19.0,18.0,6.0,2.0,1.0,1650847297624676.0
2.0,4.0,0.0,-5.0,-1.0,-1.0,1.0,-2.0,1650847297624676.0
-2.0,-1.0,-5.0,-12.0,-2.0,-1.0,0.0,1.0,1650847297636630.0
0.0,3.0,-1.0,-3.0,-5.0,-2.0,0.0,0.0,1650847297636630.0
-2.0,-3.0,1.0,9.0,-1.0,0.0,-1.0,-1.0,1650847297645606.0
1.0,-2.0,3.0,0.0,1.0,0.0,-2.0,1.0,1650847297645606.0
1.0,-3.0,-2.0,-6.0,-3.0,-1.0,-1.0,-3.0,1650847297660633.0
2.0,7.0,6.0,5.0,5.0,1.0,0.0,-1.0,1650847297660633.0
0.0,-5.0,-7.0,-9.0,-6.0,-2.0,-1.0,-1.0,1650847297662561.0
0.0,-7.0,-7.0,1.0,1.0,-1.0,1.0,2.0,1650847297662561.0
0.0,-1.0,5.0,5.0,6.0,1.0,0.0,-1.0,1650847297683545.0
0.0,8.0,1.0,-1.0,-2.0,-2.0,-2.0,2.0,1650847297683545.0
-2.0,-5.0,-6.0,-1.0,2.0,0.0,1.0,1.0,1650847297684776.0
-2.0,-1.0,4.0,-1.0,-4.0,-1.0,-1.0,-3.0,1650847297684776.0
1.0,7.0,-1.0,-6.0,-5.0,0.0,0.0,1.0,1650847297696755.0
-3.0,-4.0,-3.0,3.0,-3.0,-3.0,-1.0,-3.0,1650847297696755.0
-1.0,-13.0,-2.0,-3.0,-3.0,-4.0,-3.0,-1.0,1650847297705718.0
-2.0,-1.0,-6.0,-4.0,1.0,0.0,0.0,-1.0,1650847297705718.0
-2.0,1.0,2.0,-1.0,1.0,1.0,0.0,0.0,1650847297720747.0
-1.0,-6.0,-1.0,5.0,5.0,1.0,0.0,-1.0,1650847297720747.0
-1.0,6.0,2.0,-4.0,-6.0,-2.0,0.0,1.0,1650847297722690.0
0.0,1.0,0.0,-1.0,-2.0,-1.0,-1.0,2.0,1650847297722690.0
0.0,-11.0,-6.0,-2.0,1.0,-2.0,-1.0,-3.0,1650847297743653.0
-1.0,6.0,1.0,-3.0,-4.0,-1.0,-2.0,2.0,1650847297743653.0
0.0,-4.0,0.0,8.0,8.0,2.0,0.0,0.0,1650847297744643.0
2.0,2.0,-2.0,-1.0,2.0,0.0,2.0,1.0,1650847297744643.0
-2.0,0.0,3.0,1.0,-1.0,-1.0,0.0,0.0,1650847297756676.0
0.0,-1.0,0.0,-3.0,-5.0,-4.0,0.0,0.0,1650847297756676.0
1.0,7.0,1.0,-4.0,-2.0,2.0,0.0,0.0,1650847297765595.0
-2.0,-4.0,-1.0,4.0,8.0,1.0,0.0,-1.0,1650847297765595.0
0.0,0.0,0.0,7.0,-1.0,-2.0,-3.0,-2.0,1650847297780815.0
0.0,4.0,3.0,-2.0,1.0,-1.0,-1.0,-2.0,1650847297780815.0
-3.0,-13.0,-6.0,-9.0,-8.0,-4.0,-4.0,0.0,1650847297781812.0
-1.0,-1.0,3.0,9.0,3.0,2.0,-1.0,0.0,1650847297781812.0
-1.0,6.0,3.0,0.0,1.0,-1.0,0.0,1.0,1650847297802829.0
1.0,-3.0,-3.0,-2.0,-1.0,-2.0,1.0,0.0,1650847297802829.0
2.0,10.0,1.0,-3.0,-3.0,0.0,1.0,-1.0,1650847297804824.0
-3.0,-15.0,-9.0,-8.0,-6.0,-1.0,-4.0,-1.0,1650847297804824.0
-2.0,-1.0,2.0,10.0,7.0,3.0,1.0,0.0,1650847297825835.0
0.0,-2.0,-2.0,-5.0,-4.0,-2.0,-2.0,-1.0,1650847297825835.0
-1.0,2.0,1.0,4.0,7.0,1.0,1.0,-4.0,1650847297826792.0
0.0,-15.0,-6.0,-8.0,-5.0,-4.0,0.0,-2.0,1650847297826792.0
0.0,9.0,-1.0,-3.0,-4.0,-3.0,-3.0,1.0,1650847297840791.0
1.0,-2.0,-1.0,-7.0,-6.0,-1.0,1.0,-2.0,1650847297840791.0
0.0,5.0,6.0,8.0,9.0,2.0,1.0,0.0,1650847297842757.0
-2.0,-12.0,-5.0,-3.0,-1.0,1.0,0.0,-1.0,1650847297842757.0
-1.0,-4.0,-1.0,-6.0,-2.0,0.0,1.0,-1.0,1650847297863777.0
-1.0,0.0,-3.0,0.0,4.0,-2.0,-2.0,1.0,1650847297863777.0
0.0,8.0,10.0,7.0,1.0,0.0,0.0,-2.0,1650847297864784.0
0.0,-1.0,-8.0,0.0,-4.0,-1.0,1.0,1.0,1650847297864784.0
-1.0,9.0,3.0,-6.0,-5.0,-1.0,-2.0,0.0,1650847297885791.0
-2.0,-10.0,-3.0,-2.0,0.0,0.0,0.0,0.0,1650847297885791.0
1.0,5.0,0.0,-4.0,-4.0,-1.0,-3.0,0.0,1650847297886784.0
3.0,10.0,5.0,6.0,2.0,-1.0,0.0,-1.0,1650847297886784.0
0.0,-5.0,-3.0,-3.0,-4.0,2.0,-1.0,1.0,1650847297900914.0
1.0,6.0,2.0,4.0,2.0,2.0,0.0,0.0,1650847297900914.0
-1.0,-15.0,-5.0,-4.0,-1.0,-1.0,0.0,1.0,1650847297902842.0
1.0,21.0,6.0,-2.0,1.0,0.0,1.0,0.0,1650847297902842.0
-4.0,-10.0,-2.0,4.0,-3.0,-1.0,-1.0,-2.0,1650847297922817.0
0.0,-9.0,-4.0,-4.0,-2.0,-1.0,0.0,-1.0,1650847297922817.0
0.0,-6.0,-5.0,-13.0,-8.0,-2.0,-1.0,0.0,1650847297924746.0
-1.0,-1.0,4.0,9.0,2.0,1.0,0.0,-2.0,1650847297924746.0
-1.0,3.0,4.0,9.0,2.0,3.0,0.0,-1.0,1650847297945821.0
-1.0,2.0,0.0,3.0,2.0,2.0,-1.0,-1.0,1650847297945821.0
-1.0,-1.0,-3.0,-7.0,-9.0,-4.0,-1.0,-2.0,1650847297947748.0
1.0,9.0,5.0,1.0,-3.0,-2.0,-2.0,-1.0,1650847297947748.0
-1.0,-11.0,-6.0,5.0,9.0,0.0,1.0,-2.0,1650847297968710.0
0.0,4.0,0.0,3.0,-1.0,0.0,-1.0,-1.0,1650847297968710.0
-1.0,1.0,-2.0,-3.0,0.0,-3.0,1.0,0.0,1650847297969709.0
0.0,0.0,-2.0,-13.0,-9.0,-3.0,-3.0,-1.0,1650847297969709.0
-2.0,-14.0,-4.0,6.0,2.0,-2.0,-1.0,0.0,1650847297983672.0
-1.0,7.0,2.0,-2.0,-2.0,0.0,1.0,1.0,1650847297983672.0
0.0,0.0,-1.0,-3.0,-1.0,-2.0,-1.0,0.0,1650847297984676.0
-2.0,3.0,1.0,1.0,1.0,0.0,0.0,1.0,1650847297984676.0
0.0,-2.0,-1.0,-5.0,-6.0,-1.0,0.0,1.0,1650847298005775.0
-2.0,-9.0,-3.0,-4.0,2.0,-1.0,-3.0,-2.0,1650847298005775.0
0.0,13.0,6.0,5.0,1.0,4.0,1.0,1.0,1650847298007704.0
-1.0,1.0,0.0,0.0,2.0,1.0,-2.0,2.0,1650847298007704.0
-2.0,-5.0,-6.0,-5.0,-2.0,-1.0,-1.0,0.0,1650847298019738.0
0.0,4.0,-1.0,-1.0,0.0,0.0,-1.0,-1.0,1650847298019738.0
0.0,-5.0,-2.0,-7.0,-4.0,-1.0,1.0,-2.0,1650847298028648.0
-1.0,-9.0,-7.0,-3.0,-3.0,-1.0,-1.0,-1.0,1650847298028648.0
3.0,15.0,3.0,0.0,2.0,1.0,1.0,-1.0,1650847298043649.0
0.0,-1.0,1.0,2.0,1.0,3.0,2.0,1.0,1650847298043649.0
-3.0,-5.0,-4.0,3.0,-1.0,-1.0,-2.0,-1.0,1650847298044617.0
1.0,-1.0,-2.0,-4.0,-4.0,2.0,0.0,0.0,1650847298044617.0
-2.0,2.0,0.0,3.0,5.0,0.0,1.0,-1.0,1650847298065615.0
-1.0,3.0,1.0,-4.0,-4.0,-4.0,-2.0,-2.0,1650847298065615.0
0.0,-15.0,-3.0,4.0,-1.0,-1.0,-2.0,1.0,1650847298067571.0
-2.0,15.0,3.0,-3.0,0.0,-1.0,-1.0,-1.0,1650847298067571.0
-1.0,3.0,-2.0,-11.0,-4.0,-3.0,-2.0,-1.0,1650847298080536.0
-1.0,-8.0,1.0,13.0,7.0,1.0,0.0,0.0,1650847298080536.0
-1.0,-3.0,-2.0,-2.0,-1.0,0.0,-1.0,-3.0,1650847298086559.0
0.0,0.0,1.0,3.0,4.0,-1.0,0.0,-1.0,1650847298086559.0
-1.0,-10.0,-4.0,-9.0,-9.0,-2.0,-1.0,0.0,1650847298103716.0
1.0,9.0,1.0,-4.0,1.0,-1.0,1.0,1.0,1650847298103716.0
-1.0,-4.0,2.0,2.0,-1.0,-2.0,0.0,-2.0,1650847298104713.0
0.0,-2.0,1.0,6.0,5.0,0.0,-2.0,-2.0,1650847298104713.0
0.0,1.0,3.0,-1.0,-4.0,0.0,0.0,-1.0,1650847298125842.0
1.0,-2.0,-3.0,-7.0,-2.0,0.0,-1.0,2.0,1650847298125842.0
-1.0,9.0,-1.0,-10.0,-1.0,-1.0,-1.0,-1.0,1650847298126799.0
-2.0,-15.0,-5.0,-8.0,-7.0,-3.0,-1.0,0.0,1650847298126799.0
0.0,6.0,0.0,21.0,8.0,1.0,-2.0,0.0,1650847298139698.0
-3.0,-7.0,3.0,10.0,-2.0,-3.0,-1.0,-1.0,1650847298139698.0
1.0,8.0,4.0,-8.0,4.0,1.0,1.0,0.0,1650847298146750.0
0.0,-6.0,-3.0,4.0,-1.0,-1.0,0.0,-1.0,1650847298146750.0
1.0,6.0,1.0,-17.0,-11.0,-1.0,-1.0,0.0,1650847298163553.0
-3.0,-17.0,-9.0,2.0,10.0,3.0,0.0,-1.0,1650847298163553.0
2.0,10.0,4.0,10.0,-2.0,-1.0,-2.0,1.0,1650847298164786.0
-4.0,-7.0,-6.0,-4.0,-9.0,-4.0,-2.0,-3.0,1650847298164786.0
3.0,-4.0,-1.0,-4.0,-2.0,1.0,1.0,-1.0,1650847298185789.0
1.0,11.0,2.0,-5.0,-5.0,-3.0,-3.0,-2.0,1650847298185789.0
-2.0,-10.0,-2.0,0.0,-5.0,-3.0,-2.0,-1.0,1650847298187716.0
2.0,10.0,5.0,1.0,2.0,0.0,0.0,-1.0,1650847298187716.0
0.0,-4.0,-4.0,-5.0,-1.0,-1.0,1.0,-1.0,1650847298199747.0
0.0,4.0,5.0,9.0,2.0,3.0,1.0,1.0,1650847298199747.0
-1.0,4.0,4.0,24.0,13.0,4.0,-1.0,-1.0,1650847298206732.0
-3.0,-14.0,-5.0,2.0,2.0,-3.0,-1.0,0.0,1650847298206732.0
-1.0,-8.0,-9.0,-14.0,-9.0,-2.0,-2.0,-2.0,1650847298222743.0
3.0,5.0,-2.0,-8.0,-6.0,0.0,1.0,-1.0,1650847298222743.0
-1.0,-2.0,-2.0,-5.0,-6.0,-1.0,-2.0,1.0,1650847298224740.0
0.0,7.0,9.0,6.0,9.0,3.0,0.0,0.0,1650847298224740.0
-3.0,-7.0,0.0,3.0,-2.0,-1.0,-2.0,-1.0,1650847298245750.0
1.0,1.0,0.0,-5.0,-2.0,0.0,0.0,0.0,1650847298245750.0
-1.0,0.0,-3.0,-3.0,1.0,0.0,1.0,0.0,1650847298247678.0
-1.0,-5.0,-4.0,-9.0,-7.0,-1.0,-1.0,-2.0,1650847298247678.0
-2.0,1.0,0.0,-2.0,0.0,-2.0,-1.0,0.0,1650847298259712.0
-2.0,-3.0,-2.0,2.0,-3.0,-1.0,-2.0,0.0,1650847298259712.0
1.0,-2.0,-2.0,-1.0,-1.0,-1.0,1.0,0.0,1650847298266693.0
0.0,4.0,0.0,-1.0,0.0,0.0,0.0,-1.0,1650847298266693.0
2.0,3.0,5.0,10.0,7.0,3.0,-1.0,0.0,1650847298282751.0
-2.0,-2.0,-1.0,-6.0,-2.0,-1.0,-1.0,-1.0,1650847298282751.0
-2.0,-6.0,-1.0,-1.0,-2.0,0.0,-3.0,-1.0,1650847298284759.0
1.0,1.0,-1.0,0.0,-3.0,0.0,1.0,1.0,1650847298284759.0
1.0,2.0,-3.0,0.0,3.0,-1.0,-1.0,0.0,1650847298305635.0
-1.0,-1.0,-2.0,-7.0,-5.0,-4.0,0.0,-2.0,1650847298305635.0
-2.0,-4.0,-1.0,0.0,-7.0,-3.0,-3.0,-2.0,1650847298307653.0
0.0,1.0,0.0,2.0,2.0,1.0,0.0,0.0,1650847298307653.0
2.0,0.0,1.0,4.0,0.0,0.0,0.0,-1.0,1650847298319737.0
-1.0,-1.0,-3.0,-1.0,-1.0,0.0,0.0,1.0,1650847298319737.0
3.0,0.0,-2.0,-5.0,-3.0,-1.0,2.0,1.0,1650847298328692.0
4.0,3.0,2.0,3.0,0.0,1.0,1.0,1.0,1650847298328692.0
-2.0,-3.0,-3.0,-1.0,1.0,0.0,-1.0,-2.0,1650847298343650.0
-4.0,-7.0,-2.0,-5.0,-3.0,-3.0,-3.0,-1.0,1650847298343650.0
-7.0,-1.0,0.0,4.0,0.0,-3.0,-2.0,-2.0,1650847298344649.0
-2.0,-3.0,0.0,-5.0,-2.0,-1.0,0.0,-1.0,1650847298344649.0
0.0,-4.0,-2.0,0.0,1.0,1.0,-1.0,0.0,1650847298364647.0
4.0,2.0,3.0,-1.0,-1.0,-1.0,2.0,1.0,1650847298364647.0
-2.0,-3.0,-2.0,-3.0,-3.0,-2.0,-2.0,-1.0,1650847298373624.0
-1.0,-1.0,-1.0,-3.0,2.0,1.0,-2.0,-2.0,1650847298373624.0
-3.0,0.0,3.0,10.0,3.0,1.0,0.0,-1.0,1650847298379667.0
1.0,8.0,4.0,5.0,2.0,2.0,0.0,2.0,1650847298379667.0
2.0,-10.0,-5.0,-5.0,-2.0,-1.0,1.0,0.0,1650847298388673.0
1.0,1.0,-2.0,-8.0,-4.0,-2.0,0.0,-1.0,1650847298388673.0
4.0,2.0,2.0,2.0,3.0,1.0,1.0,1.0,1650847298402785.0
-8.0,-6.0,-1.0,2.0,-2.0,-3.0,-4.0,-6.0,1650847298402785.0
-1.0,1.0,-2.0,-6.0,-1.0,1.0,0.0,-4.0,1650847298404711.0
1.0,2.0,1.0,0.0,-1.0,-1.0,6.0,5.0,1650847298404711.0
0.0,-1.0,-3.0,-5.0,-5.0,-5.0,-8.0,1.0,1650847298425807.0
4.0,2.0,-1.0,3.0,4.0,3.0,-1.0,0.0,1650847298425807.0
0.0,1.0,-1.0,-1.0,2.0,1.0,0.0,0.0,1650847298427744.0
-7.0,-4.0,-3.0,2.0,-2.0,2.0,0.0,-4.0,1650847298427744.0
0.0,3.0,1.0,-1.0,2.0,0.0,2.0,0.0,1650847298439819.0
0.0,4.0,3.0,3.0,1.0,-2.0,3.0,0.0,1650847298439819.0
0.0,-6.0,-6.0,-8.0,-4.0,-1.0,-1.0,0.0,1650847298448787.0
3.0,5.0,0.0,-1.0,1.0,0.0,-2.0,1.0,1650847298448787.0
-2.0,-4.0,0.0,1.0,-1.0,-2.0,0.0,-3.0,1650847298463008.0
-2.0,-2.0,-1.0,-1.0,-3.0,-1.0,0.0,-3.0,1650847298463008.0
4.0,7.0,2.0,2.0,2.0,2.0,1.0,2.0,1650847298465006.0
-1.0,-2.0,-2.0,1.0,1.0,0.0,-3.0,0.0,1650847298465006.0
-3.0,0.0,5.0,-3.0,-5.0,-2.0,0.0,-1.0,1650847298486010.0
6.0,-7.0,-4.0,-2.0,-2.0,3.0,1.0,4.0,1650847298486010.0
-3.0,10.0,4.0,4.0,3.0,-1.0,2.0,-3.0,1650847298486954.0
-2.0,-9.0,-3.0,0.0,0.0,-3.0,-3.0,-4.0,1650847298486954.0
2.0,4.0,0.0,-2.0,-2.0,-1.0,-7.0,-2.0,1650847298498916.0
-5.0,-9.0,-5.0,-2.0,-1.0,-1.0,0.0,-3.0,1650847298498916.0
1.0,-2.0,1.0,4.0,1.0,-1.0,-2.0,-1.0,1650847298507956.0
4.0,2.0,1.0,1.0,2.0,1.0,2.0,3.0,1650847298507956.0
0.0,-2.0,-3.0,-5.0,-1.0,-1.0,4.0,3.0,1650847298523689.0
0.0,3.0,1.0,1.0,2.0,0.0,-2.0,-1.0,1650847298523689.0
-1.0,-4.0,-3.0,-2.0,-4.0,-5.0,-2.0,-1.0,1650847298525691.0
-3.0,2.0,1.0,1.0,2.0,-3.0,-9.0,-4.0,1650847298525691.0
0.0,-6.0,-1.0,1.0,1.0,1.0,2.0,0.0,1650847298545693.0
5.0,7.0,0.0,-3.0,-4.0,-1.0,5.0,2.0,1650847298545693.0
-13.0,-4.0,1.0,5.0,3.0,2.0,8.0,11.0,1650847298547646.0
2.0,-4.0,-2.0,1.0,2.0,0.0,-4.0,-7.0,1650847298547646.0
-3.0,-1.0,-3.0,0.0,-1.0,-2.0,-18.0,-10.0,1650847298559654.0
1.0,11.0,1.0,-6.0,-3.0,0.0,8.0,5.0,1650847298559654.0
4.0,-4.0,-2.0,1.0,1.0,3.0,22.0,13.0,1650847298568564.0
2.0,7.0,1.0,-5.0,-8.0,-5.0,-8.0,3.0,1650847298568564.0
-3.0,-6.0,-2.0,1.0,3.0,0.0,-6.0,-9.0,1650847298583550.0
-5.0,-8.0,-2.0,0.0,-2.0,-4.0,-16.0,-12.0,1650847298583550.0
6.0,7.0,2.0,4.0,9.0,5.0,-4.0,-1.0,1650847298584521.0
-8.0,-6.0,-4.0,-3.0,-6.0,-6.0,3.0,-4.0,1650847298584521.0
5.0,4.0,-1.0,1.0,1.0,-1.0,-6.0,-4.0,1650847298605582.0
2.0,3.0,2.0,1.0,-1.0,-1.0,-7.0,-1.0,1650847298605582.0
3.0,-3.0,-2.0,-3.0,-1.0,3.0,17.0,10.0,1650847298607577.0
-4.0,-1.0,0.0,2.0,1.0,1.0,9.0,9.0,1650847298607577.0
-2.0,-1.0,-2.0,3.0,-2.0,-1.0,-2.0,1.0,1650847298619611.0
0.0,1.0,0.0,-4.0,-8.0,-6.0,10.0,-3.0,1650847298619611.0
-5.0,3.0,0.0,-3.0,1.0,-6.0,-33.0,-27.0,1650847298628066.0
5.0,4.0,2.0,2.0,3.0,6.0,11.0,1.0,1650847298628066.0
-4.0,-7.0,-3.0,-4.0,-4.0,3.0,19.0,12.0,1650847298642745.0
-2.0,-1.0,0.0,5.0,5.0,-2.0,-15.0,0.0,1650847298642745.0
1.0,0.0,-3.0,-6.0,-6.0,-5.0,-1.0,-4.0,1650847298644674.0
2.0,4.0,2.0,-3.0,-2.0,-2.0,-6.0,-4.0,1650847298644674.0
1.0,3.0,2.0,-1.0,0.0,1.0,0.0,1.0,1650847298665798.0
-1.0,-3.0,-1.0,-1.0,1.0,2.0,6.0,2.0,1650847298665798.0
1.0,0.0,1.0,0.0,-3.0,-2.0,-6.0,-1.0,1650847298667769.0
-1.0,-2.0,0.0,5.0,1.0,4.0,-1.0,1.0,1650847298667769.0
1.0,1.0,-3.0,-1.0,-3.0,-1.0,7.0,4.0,1650847298679805.0
-2.0,-8.0,-5.0,-3.0,-2.0,0.0,0.0,-3.0,1650847298679805.0
-3.0,-4.0,-1.0,-2.0,-1.0,1.0,-4.0,-3.0,1650847298688710.0
-7.0,-9.0,-1.0,1.0,-3.0,-3.0,2.0,2.0,1650847298688710.0
5.0,4.0,1.0,-1.0,2.0,-2.0,1.0,2.0,1650847298703457.0
-2.0,3.0,-2.0,-6.0,-1.0,1.0,5.0,-3.0,1650847298703457.0
3.0,-4.0,-1.0,6.0,0.0,1.0,-6.0,0.0,1650847298704387.0
3.0,3.0,-3.0,-4.0,-5.0,-4.0,-8.0,-3.0,1650847298704387.0
-3.0,-2.0,-1.0,-4.0,-3.0,-4.0,0.0,-2.0,1650847298725812.0
-9.0,-6.0,0.0,4.0,3.0,1.0,-5.0,-1.0,1650847298725812.0
0.0,-2.0,-1.0,-4.0,-4.0,-2.0,5.0,1.0,1650847298727742.0
1.0,1.0,0.0,1.0,3.0,1.0,-3.0,-2.0,1650847298727742.0
0.0,-3.0,2.0,0.0,1.0,-4.0,-2.0,1.0,1650847298739772.0
3.0,2.0,0.0,-1.0,1.0,3.0,3.0,1.0,1650847298739772.0
0.0,3.0,0.0,-3.0,-1.0,0.0,2.0,-3.0,1650847298748693.0
-2.0,-1.0,-1.0,-1.0,-1.0,1.0,0.0,-1.0,1650847298748693.0
-2.0,-4.0,-1.0,-1.0,-2.0,-3.0,-2.0,-2.0,1650847298762752.0
1.0,-2.0,-3.0,-1.0,-1.0,1.0,2.0,3.0,1650847298762752.0
-4.0,-8.0,-4.0,0.0,1.0,0.0,-5.0,-4.0,1650847298764749.0
3.0,17.0,4.0,-1.0,2.0,-1.0,-3.0,-1.0,1650847298764749.0
0.0,3.0,-3.0,-3.0,-4.0,1.0,5.0,6.0,1650847298785848.0
-2.0,-4.0,-2.0,1.0,2.0,1.0,-2.0,-6.0,1650847298785848.0
1.0,-2.0,-1.0,-1.0,-4.0,0.0,-1.0,1.0,1650847298787773.0
-3.0,-7.0,-3.0,-2.0,0.0,-2.0,-1.0,-1.0,1650847298787773.0
0.0,2.0,1.0,2.0,1.0,-3.0,-6.0,-2.0,1650847298807841.0
2.0,3.0,0.0,-2.0,-5.0,-4.0,-5.0,-1.0,1650847298807841.0
0.0,-2.0,2.0,-2.0,0.0,-1.0,2.0,-1.0,1650847298809796.0
3.0,-1.0,-5.0,-4.0,-2.0,1.0,3.0,0.0,1650847298809796.0
-4.0,-3.0,-1.0,1.0,3.0,3.0,1.0,-3.0,1650847298822801.0
-1.0,-5.0,3.0,2.0,0.0,-2.0,-2.0,0.0,1650847298822801.0
2.0,7.0,3.0,-2.0,-1.0,-1.0,0.0,2.0,1650847298829807.0
3.0,-1.0,1.0,1.0,-4.0,-1.0,-1.0,2.0,1650847298829807.0
0.0,-2.0,-1.0,-3.0,0.0,0.0,1.0,-2.0,1650847298845740.0
1.0,4.0,0.0,-2.0,-3.0,-1.0,2.0,1.0,1650847298845740.0
-2.0,-1.0,-2.0,1.0,-1.0,0.0,1.0,0.0,1650847298847713.0
-2.0,-3.0,-1.0,-1.0,0.0,0.0,1.0,-2.0,1650847298847713.0
1.0,0.0,1.0,-1.0,1.0,-1.0,-2.0,-3.0,1650847298868746.0
1.0,2.0,2.0,0.0,2.0,4.0,7.0,1.0,1650847298868746.0
-2.0,-6.0,-19.0,-4.0,-2.0,-2.0,2.0,4.0,1650847298869746.0
1.0,3.0,2.0,-2.0,-1.0,2.0,6.0,6.0,1650847298869746.0
-2.0,-2.0,-2.0,1.0,-1.0,-1.0,-7.0,-4.0,1650847298883048.0
1.0,0.0,3.0,-3.0,-4.0,-1.0,2.0,2.0,1650847298883048.0
0.0,-1.0,2.0,1.0,5.0,0.0,-1.0,0.0,1650847298885044.0
-3.0,-6.0,-2.0,1.0,-1.0,1.0,0.0,-4.0,1650847298885044.0
1.0,4.0,3.0,-1.0,-3.0,-1.0,5.0,2.0,1650847298906054.0
1.0,0.0,-4.0,1.0,4.0,-2.0,-3.0,1.0,1650847298906054.0
-1.0,4.0,0.0,0.0,-2.0,-4.0,-3.0,-1.0,1650847298906985.0
1.0,-2.0,0.0,-3.0,-3.0,-2.0,0.0,-1.0,1650847298906985.0
0.0,-3.0,3.0,3.0,2.0,4.0,1.0,-1.0,1650847298928605.0
-1.0,-3.0,-6.0,-4.0,1.0,1.0,-3.0,0.0,1650847298928605.0
3.0,4.0,10.0,0.0,-1.0,3.0,3.0,0.0,1650847298929244.0
-2.0,-5.0,-9.0,1.0,1.0,-8.0,-10.0,-2.0,1650847298929244.0
1.0,8.0,6.0,-3.0,-2.0,0.0,3.0,0.0,1650847298942278.0
-3.0,-15.0,-14.0,-5.0,-1.0,-2.0,-1.0,0.0,1650847298942278.0
-1.0,9.0,15.0,0.0,-4.0,0.0,4.0,0.0,1650847298949194.0
2.0,-4.0,-35.0,-1.0,4.0,3.0,-2.0,-2.0,1650847298949194.0
-2.0,-4.0,2.0,-3.0,-1.0,0.0,2.0,1.0,1650847298965754.0
-1.0,-4.0,-5.0,0.0,0.0,-3.0,-3.0,1.0,1650847298965754.0
1.0,1.0,-5.0,-8.0,-8.0,-2.0,1.0,1.0,1650847298966759.0
-3.0,-5.0,8.0,-3.0,-4.0,-3.0,-1.0,-2.0,1650847298966759.0
-1.0,0.0,-4.0,0.0,6.0,2.0,-2.0,-1.0,1650847298987818.0
3.0,9.0,6.0,4.0,-2.0,-2.0,1.0,1.0,1650847298987818.0
-4.0,-8.0,-16.0,3.0,2.0,3.0,-2.0,-1.0,1650847298989813.0
2.0,6.0,36.0,12.0,9.0,8.0,4.0,0.0,1650847298989813.0
-3.0,-8.0,-42.0,-8.0,-5.0,-7.0,-2.0,0.0,1650847299010825.0
4.0,12.0,16.0,0.0,-6.0,-5.0,-5.0,0.0,1650847299010825.0
-4.0,-6.0,13.0,6.0,2.0,-1.0,-3.0,-3.0,1650847299012751.0
1.0,0.0,-10.0,-6.0,-3.0,0.0,1.0,-1.0,1650847299012751.0
-3.0,-13.0,-16.0,-16.0,-8.0,0.0,6.0,1.0,1650847299025782.0
1.0,2.0,5.0,3.0,-1.0,-6.0,-4.0,0.0,1650847299025782.0
0.0,-1.0,1.0,7.0,14.0,5.0,0.0,1.0,1650847299027725.0
-1.0,1.0,8.0,-3.0,-6.0,-4.0,-3.0,-2.0,1650847299027725.0
1.0,1.0,3.0,3.0,-2.0,2.0,6.0,3.0,1650847299047872.0
-3.0,-10.0,-12.0,-8.0,-3.0,2.0,-1.0,0.0,1650847299047872.0
1.0,1.0,-14.0,-4.0,-2.0,-4.0,-4.0,-2.0,1650847299049802.0
-2.0,-4.0,27.0,11.0,1.0,3.0,3.0,1.0,1650847299049802.0
-1.0,-2.0,-23.0,-2.0,7.0,2.0,-3.0,-3.0,1650847299062833.0
3.0,5.0,-22.0,-8.0,-5.0,-1.0,5.0,2.0,1650847299062833.0
-2.0,5.0,27.0,5.0,-4.0,-6.0,-9.0,-5.0,1650847299069792.0
-3.0,-8.0,-36.0,-18.0,-6.0,-2.0,-3.0,-1.0,1650847299069792.0
2.0,4.0,10.0,23.0,-1.0,0.0,-3.0,0.0,1650847299085771.0
-2.0,-11.0,14.0,9.0,12.0,8.0,1.0,0.0,1650847299085771.0
2.0,0.0,-8.0,-7.0,-4.0,0.0,-1.0,-1.0,1650847299087700.0
-2.0,2.0,6.0,2.0,2.0,0.0,1.0,0.0,1650847299087700.0
0.0,4.0,15.0,-10.0,-12.0,-7.0,-7.0,-2.0,1650847299107864.0
-1.0,5.0,9.0,16.0,13.0,7.0,5.0,0.0,1650847299107864.0
3.0,-1.0,-14.0,-17.0,-12.0,-2.0,-1.0,1.0,1650847299109793.0
-4.0,-7.0,5.0,15.0,13.0,-1.0,-2.0,-2.0,1650847299109793.0
1.0,5.0,17.0,4.0,0.0,1.0,0.0,1.0,1650847299122825.0
-6.0,-9.0,-4.0,-4.0,-5.0,-4.0,0.0,-1.0,1650847299122825.0
-1.0,5.0,38.0,13.0,4.0,3.0,1.0,0.0,1650847299129667.0
-2.0,-11.0,-57.0,-27.0,-12.0,-8.0,-9.0,-3.0,1650847299129667.0
3.0,10.0,5.0,20.0,7.0,0.0,3.0,4.0,1650847299145799.0
0.0,-1.0,4.0,-3.0,0.0,-3.0,-4.0,-2.0,1650847299145799.0
-1.0,-5.0,8.0,0.0,1.0,3.0,6.0,-1.0,1650847299147742.0
4.0,10.0,13.0,0.0,-1.0,-1.0,4.0,1.0,1650847299147742.0
-1.0,4.0,-3.0,-6.0,1.0,-1.0,-4.0,-3.0,1650847299167877.0
-2.0,-7.0,-6.0,-3.0,-6.0,-3.0,0.0,1.0,1650847299167877.0
2.0,7.0,-4.0,-3.0,-1.0,-1.0,-2.0,1.0,1650847299169880.0
-1.0,-1.0,16.0,7.0,2.0,3.0,0.0,-2.0,1650847299169880.0
-1.0,-9.0,-1.0,-2.0,-1.0,-2.0,-5.0,-3.0,1650847299182825.0
2.0,6.0,0.0,-1.0,-2.0,1.0,-3.0,-1.0,1650847299182825.0
-1.0,-5.0,-2.0,3.0,2.0,-2.0,3.0,2.0,1650847299189831.0
1.0,-3.0,-17.0,-4.0,-1.0,0.0,2.0,2.0,1650847299189831.0
-4.0,-7.0,2.0,-5.0,-5.0,-3.0,-1.0,-4.0,1650847299205849.0
-4.0,-3.0,1.0,-3.0,-5.0,-3.0,-3.0,-1.0,1650847299205849.0
0.0,7.0,-10.0,7.0,5.0,-1.0,-5.0,-4.0,1650847299207776.0
-1.0,3.0,26.0,3.0,-3.0,0.0,2.0,2.0,1650847299207776.0
0.0,-1.0,15.0,1.0,3.0,6.0,3.0,2.0,1650847299228665.0
-2.0,6.0,19.0,1.0,-4.0,-6.0,-6.0,-5.0,1650847299228665.0
-4.0,-17.0,-58.0,-13.0,-4.0,-3.0,0.0,-2.0,1650847299229665.0
1.0,8.0,36.0,11.0,3.0,1.0,-1.0,-1.0,1650847299229665.0
1.0,2.0,-37.0,-16.0,-6.0,-2.0,1.0,0.0,1650847299242775.0
2.0,-8.0,-3.0,-2.0,-3.0,-4.0,-1.0,-1.0,1650847299242775.0
0.0,5.0,7.0,-2.0,-5.0,-2.0,-3.0,-3.0,1650847299249759.0
3.0,12.0,18.0,7.0,1.0,4.0,-1.0,-1.0,1650847299249759.0
1.0,-2.0,7.0,1.0,8.0,2.0,3.0,3.0,1650847299264938.0
2.0,-1.0,5.0,-7.0,-4.0,1.0,0.0,1.0,1650847299264938.0
2.0,1.0,-1.0,9.0,-1.0,-2.0,-3.0,0.0,1650847299272916.0
-2.0,2.0,-1.0,0.0,-3.0,2.0,-2.0,-2.0,1650847299272916.0
2.0,4.0,16.0,3.0,1.0,1.0,4.0,2.0,1650847299287876.0
-4.0,-4.0,-6.0,1.0,3.0,-2.0,-1.0,-5.0,1650847299287876.0
-3.0,-5.0,-22.0,-12.0,-1.0,0.0,1.0,-2.0,1650847299289806.0
-1.0,3.0,0.0,-6.0,-3.0,-3.0,-1.0,1.0,1650847299289806.0
-3.0,-7.0,-2.0,4.0,4.0,4.0,0.0,-2.0,1650847299301890.0
-1.0,-3.0,-14.0,-1.0,2.0,-4.0,-2.0,0.0,1650847299301890.0
0.0,8.0,22.0,1.0,-2.0,0.0,-1.0,1.0,1650847299310858.0
-3.0,-7.0,-12.0,-1.0,2.0,0.0,2.0,-1.0,1650847299310858.0
-3.0,-6.0,-9.0,-5.0,-2.0,-2.0,-3.0,-5.0,1650847299325885.0
1.0,2.0,11.0,3.0,-1.0,2.0,-1.0,-1.0,1650847299325885.0
-2.0,-4.0,-4.0,3.0,0.0,-3.0,-1.0,2.0,1650847299326816.0
-2.0,-6.0,-17.0,-3.0,-2.0,-3.0,-2.0,-1.0,1650847299326816.0
3.0,7.0,0.0,-7.0,-5.0,-2.0,-3.0,-1.0,1650847299355739.0
0.0,3.0,6.0,3.0,2.0,0.0,0.0,-1.0,1650847299355739.0
0.0,-6.0,-2.0,3.0,3.0,2.0,1.0,0.0,1650847299357741.0
2.0,0.0,-9.0,-7.0,-4.0,-4.0,0.0,0.0,1650847299357741.0
-2.0,-6.0,11.0,4.0,-3.0,-4.0,-4.0,-4.0,1650847299361722.0
2.0,-3.0,-18.0,1.0,5.0,5.0,5.0,2.0,1650847299361722.0
1.0,2.0,-3.0,-12.0,-8.0,-3.0,-3.0,0.0,1650847299370698.0
-2.0,-2.0,5.0,4.0,3.0,3.0,3.0,0.0,1650847299370698.0
-1.0,2.0,7.0,9.0,1.0,-1.0,-3.0,1.0,1650847299385859.0
1.0,3.0,2.0,-3.0,-5.0,-3.0,0.0,1.0,1650847299385859.0
-1.0,1.0,4.0,7.0,7.0,4.0,3.0,0.0,1650847299386791.0
-3.0,-3.0,-5.0,-8.0,-7.0,-5.0,-6.0,-6.0,1650847299386791.0
-2.0,-1.0,-6.0,-1.0,-1.0,-1.0,-4.0,-1.0,1650847299408603.0
-3.0,-10.0,0.0,-3.0,0.0,3.0,3.0,0.0,1650847299408603.0
0.0,10.0,14.0,-5.0,-8.0,-7.0,1.0,2.0,1650847299409927.0
1.0,3.0,-19.0,4.0,5.0,0.0,-5.0,0.0,1650847299409927.0
1.0,4.0,0.0,-6.0,-2.0,0.0,5.0,2.0,1650847299421867.0
-4.0,-11.0,-14.0,-2.0,3.0,3.0,-4.0,-2.0,1650847299421867.0
-2.0,-3.0,9.0,-1.0,-2.0,-1.0,1.0,0.0,1650847299430844.0
0.0,1.0,6.0,2.0,-1.0,-1.0,1.0,-1.0,1650847299430844.0
1.0,3.0,0.0,0.0,0.0,0.0,2.0,0.0,1650847299445870.0
2.0,11.0,11.0,2.0,-2.0,-1.0,4.0,-1.0,1650847299445870.0
0.0,1.0,17.0,8.0,2.0,3.0,-1.0,-2.0,1650847299446828.0
-1.0,-8.0,-27.0,-7.0,-3.0,-3.0,-4.0,0.0,1650847299446828.0
-1.0,-1.0,6.0,0.0,2.0,2.0,0.0,-1.0,1650847299467745.0
1.0,6.0,-2.0,2.0,4.0,2.0,3.0,2.0,1650847299467745.0
0.0,-7.0,-6.0,-1.0,-4.0,-1.0,0.0,1.0,1650847299469740.0
1.0,0.0,13.0,5.0,0.0,1.0,3.0,3.0,1650847299469740.0
-2.0,-3.0,1.0,-1.0,1.0,-3.0,-2.0,0.0,1650847299481821.0
1.0,3.0,-4.0,-8.0,-4.0,-4.0,-3.0,-1.0,1650847299481821.0
3.0,7.0,-4.0,-4.0,-1.0,-1.0,-5.0,-1.0,1650847299490769.0
-3.0,-5.0,-5.0,0.0,1.0,1.0,2.0,0.0,1650847299490769.0
-1.0,-3.0,-6.0,-4.0,1.0,3.0,4.0,1.0,1650847299505908.0
-1.0,-1.0,8.0,3.0,-1.0,-5.0,-9.0,-4.0,1650847299505908.0
-4.0,-8.0,-9.0,-5.0,-3.0,-1.0,-2.0,-3.0,1650847299506848.0
-1.0,-3.0,-4.0,-3.0,-5.0,-4.0,-4.0,-2.0,1650847299506848.0
-1.0,12.0,13.0,6.0,-3.0,-1.0,0.0,-2.0,1650847299528628.0
1.0,1.0,3.0,-1.0,2.0,0.0,3.0,1.0,1650847299528628.0
0.0,-7.0,-22.0,-7.0,-6.0,-3.0,-2.0,-1.0,1650847299529876.0
2.0,5.0,8.0,4.0,4.0,1.0,1.0,2.0,1650847299529876.0
-4.0,-13.0,16.0,7.0,8.0,1.0,-3.0,1.0,1650847299541910.0
1.0,5.0,-18.0,-8.0,-5.0,-1.0,2.0,2.0,1650847299541910.0
-1.0,-2.0,-1.0,-2.0,0.0,-8.0,-6.0,-1.0,1650847299550831.0
1.0,0.0,16.0,5.0,-3.0,2.0,1.0,-2.0,1650847299550831.0
-1.0,-1.0,0.0,-1.0,1.0,3.0,1.0,0.0,1650847299565849.0
0.0,-4.0,-23.0,-5.0,-3.0,3.0,0.0,0.0,1650847299565849.0
2.0,4.0,11.0,4.0,2.0,0.0,-1.0,-1.0,1650847299567787.0
-1.0,-2.0,-4.0,-3.0,0.0,-1.0,-1.0,2.0,1650847299567787.0
-1.0,-4.0,5.0,10.0,-1.0,1.0,-1.0,-2.0,1650847299588629.0
2.0,3.0,14.0,-4.0,-5.0,-4.0,-2.0,0.0,1650847299588629.0
-2.0,-2.0,-16.0,-3.0,0.0,1.0,-1.0,-4.0,1650847299589801.0
-2.0,-5.0,2.0,9.0,8.0,0.0,-2.0,-2.0,1650847299589801.0
1.0,0.0,-11.0,-1.0,0.0,-3.0,2.0,1.0,1650847299601835.0
0.0,8.0,26.0,7.0,2.0,0.0,0.0,1.0,1650847299601835.0
0.0,-7.0,-42.0,-15.0,-3.0,0.0,1.0,2.0,1650847299610744.0
-3.0,2.0,38.0,4.0,2.0,1.0,-2.0,-5.0,1650847299610744.0
-2.0,-13.0,-67.0,-23.0,-11.0,-8.0,-8.0,-3.0,1650847299625773.0
-2.0,-6.0,7.0,1.0,3.0,0.0,1.0,0.0,1650847299625773.0
1.0,8.0,30.0,12.0,5.0,2.0,2.0,0.0,1650847299627699.0
2.0,-1.0,5.0,3.0,-1.0,1.0,2.0,0.0,1650847299627699.0
1.0,1.0,4.0,-9.0,-5.0,1.0,0.0,1.0,1650847299648578.0
0.0,-5.0,-9.0,1.0,-1.0,-1.0,0.0,0.0,1650847299648578.0
0.0,2.0,22.0,6.0,-1.0,0.0,-1.0,-2.0,1650847299650234.0
-2.0,1.0,0.0,-1.0,6.0,-3.0,-4.0,-1.0,1650847299650234.0
-3.0,-9.0,-29.0,-17.0,-9.0,-7.0,-4.0,-5.0,1650847299662255.0
0.0,-2.0,-6.0,-4.0,-2.0,-1.0,2.0,0.0,1650847299662255.0
1.0,1.0,16.0,9.0,5.0,5.0,1.0,1.0,1650847299671180.0
-1.0,0.0,-1.0,-3.0,-5.0,1.0,6.0,2.0,1650847299671180.0
0.0,-11.0,4.0,-3.0,-7.0,-8.0,-3.0,-1.0,1650847299686204.0
5.0,16.0,-6.0,-9.0,-8.0,-3.0,-3.0,0.0,1650847299686204.0
-4.0,-6.0,0.0,-3.0,2.0,-1.0,0.0,-2.0,1650847299699813.0
-1.0,-6.0,-21.0,3.0,5.0,2.0,3.0,-1.0,1650847299699813.0
-2.0,0.0,13.0,7.0,0.0,1.0,1.0,0.0,1650847299707831.0
1.0,7.0,16.0,3.0,-4.0,-1.0,-2.0,-2.0,1650847299707831.0
-1.0,-5.0,-19.0,-3.0,-1.0,-3.0,-4.0,-1.0,1650847299709765.0
1.0,0.0,-18.0,-19.0,-5.0,2.0,1.0,0.0,1650847299709765.0
-1.0,-2.0,27.0,26.0,12.0,4.0,4.0,1.0,1650847299730852.0
3.0,9.0,22.0,16.0,8.0,2.0,-1.0,1.0,1650847299730852.0
-2.0,-8.0,-2.0,-9.0,-3.0,-3.0,-1.0,-2.0,1650847299731783.0
-2.0,-2.0,-20.0,-12.0,-7.0,-3.0,-3.0,-1.0,1650847299731783.0
1.0,13.0,32.0,7.0,-1.0,5.0,3.0,0.0,1650847299745842.0
-8.0,-15.0,-25.0,-15.0,-6.0,-10.0,-11.0,-6.0,1650847299745842.0
2.0,3.0,7.0,18.0,19.0,7.0,4.0,3.0,1650847299747768.0
0.0,-2.0,2.0,0.0,-6.0,-5.0,-3.0,-2.0,1650847299747768.0
2.0,5.0,0.0,0.0,-5.0,1.0,0.0,0.0,1650847299767759.0
0.0,-3.0,4.0,2.0,1.0,3.0,10.0,3.0,1650847299767759.0
-2.0,-4.0,-4.0,-9.0,-7.0,-4.0,-2.0,-2.0,1650847299769754.0
3.0,5.0,6.0,-2.0,-4.0,-4.0,-2.0,1.0,1650847299769754.0
-2.0,-3.0,-3.0,3.0,8.0,1.0,-2.0,-1.0,1650847299790725.0
-2.0,-3.0,-13.0,-7.0,-4.0,-2.0,1.0,2.0,1650847299790725.0
-2.0,-3.0,2.0,0.0,-1.0,2.0,-1.0,-3.0,1650847299792694.0
0.0,3.0,-6.0,-3.0,0.0,2.0,4.0,1.0,1650847299792694.0
-1.0,-1.0,-16.0,6.0,0.0,-6.0,-6.0,-2.0,1650847299805725.0
0.0,1.0,1.0,1.0,1.0,2.0,-1.0,-3.0,1650847299805725.0
0.0,1.0,5.0,-6.0,-11.0,-5.0,-2.0,1.0,1650847299807674.0
-2.0,-2.0,-9.0,7.0,4.0,-1.0,-4.0,-3.0,1650847299807674.0
2.0,4.0,6.0,-3.0,7.0,4.0,2.0,1.0,1650847299827719.0
-3.0,-5.0,0.0,2.0,1.0,1.0,0.0,-1.0,1650847299827719.0
1.0,2.0,-6.0,-1.0,2.0,-2.0,2.0,1.0,1650847299829716.0
-1.0,2.0,9.0,6.0,6.0,1.0,1.0,-1.0,1650847299829716.0
-3.0,-1.0,-2.0,-2.0,-6.0,-5.0,0.0,-1.0,1650847299850686.0
-1.0,-1.0,-2.0,2.0,3.0,1.0,0.0,1.0,1650847299850686.0
0.0,1.0,-2.0,-11.0,-11.0,-2.0,0.0,-1.0,1650847299852655.0
-1.0,0.0,-2.0,0.0,3.0,-1.0,0.0,2.0,1650847299852655.0
-1.0,-1.0,1.0,-2.0,-2.0,-3.0,-3.0,0.0,1650847299865739.0
1.0,-2.0,-6.0,3.0,1.0,3.0,0.0,2.0,1650847299865739.0
0.0,3.0,13.0,1.0,-1.0,-3.0,-1.0,1.0,1650847299867682.0
-1.0,-5.0,-20.0,-9.0,-1.0,0.0,0.0,-1.0,1650847299867682.0
-2.0,-3.0,0.0,-3.0,-2.0,-4.0,-4.0,-3.0,1650847299888645.0
0.0,-1.0,1.0,4.0,5.0,3.0,1.0,1.0,1650847299888645.0
1.0,2.0,6.0,-1.0,-1.0,1.0,2.0,2.0,1650847299889613.0
1.0,5.0,6.0,4.0,-2.0,-1.0,-1.0,-1.0,1650847299889613.0
1.0,1.0,-1.0,-5.0,-10.0,-3.0,-1.0,2.0,1650847299910684.0
0.0,5.0,4.0,1.0,2.0,2.0,-1.0,-1.0,1650847299910684.0
-4.0,-7.0,-8.0,-1.0,0.0,-2.0,-3.0,-4.0,1650847299912638.0
1.0,3.0,7.0,6.0,2.0,0.0,1.0,0.0,1650847299912638.0
0.0,-3.0,-7.0,-8.0,6.0,1.0,0.0,0.0,1650847299924757.0
-5.0,-5.0,-3.0,3.0,-13.0,-6.0,-2.0,-2.0,1650847299924757.0
1.0,1.0,-1.0,7.0,8.0,5.0,3.0,1.0,1650847299932315.0
-1.0,-1.0,5.0,-5.0,-4.0,0.0,1.0,-1.0,1650847299932315.0
3.0,7.0,10.0,9.0,4.0,2.0,-1.0,1.0,1650847299948474.0
-2.0,-7.0,-8.0,-10.0,-4.0,-3.0,-1.0,-1.0,1650847299948474.0
-1.0,-3.0,-6.0,-8.0,-5.0,-2.0,-3.0,0.0,1650847299949442.0
0.0,0.0,6.0,6.0,0.0,1.0,0.0,-1.0,1650847299949442.0
-1.0,-3.0,-4.0,-4.0,2.0,0.0,-1.0,-2.0,1650847299970456.0
4.0,13.0,10.0,17.0,8.0,2.0,5.0,1.0,1650847299970456.0
-6.0,-22.0,-19.0,-14.0,-11.0,-5.0,1.0,-1.0,1650847299972384.0
-4.0,-10.0,-13.0,-14.0,-4.0,-3.0,-9.0,-6.0,1650847299972384.0
-1.0,7.0,12.0,5.0,1.0,2.0,2.0,1.0,1650847299985381.0
-3.0,-4.0,-12.0,-10.0,-6.0,-5.0,-6.0,-2.0,1650847299985381.0
3.0,10.0,12.0,23.0,17.0,6.0,0.0,0.0,1650847299991369.0
0.0,-1.0,2.0,-5.0,-2.0,1.0,2.0,3.0,1650847299991369.0
2.0,1.0,-3.0,-11.0,-3.0,0.0,3.0,1.0,1650847300007792.0
0.0,-3.0,-7.0,0.0,5.0,0.0,-3.0,-1.0,1650847300007792.0
-4.0,-6.0,-4.0,-6.0,-9.0,-5.0,-13.0,-10.0,1650847300009787.0
-1.0,1.0,0.0,-8.0,-10.0,-6.0,-3.0,-2.0,1650847300009787.0
0.0,-2.0,-1.0,11.0,3.0,2.0,1.0,0.0,1650847300037948.0
1.0,3.0,7.0,1.0,9.0,1.0,5.0,1.0,1650847300037948.0
0.0,-8.0,-13.0,-3.0,-3.0,0.0,2.0,3.0,1650847300039876.0
-1.0,1.0,6.0,7.0,12.0,3.0,1.0,-1.0,1650847300039876.0
-1.0,-2.0,1.0,-5.0,-5.0,-2.0,0.0,1.0,1650847300044862.0
0.0,0.0,8.0,-1.0,-4.0,1.0,-1.0,-2.0,1650847300044862.0
-1.0,2.0,-22.0,-7.0,-4.0,-2.0,1.0,0.0,1650847300051844.0
2.0,6.0,18.0,15.0,9.0,3.0,3.0,1.0,1650847300051844.0
2.0,0.0,-2.0,6.0,-2.0,-3.0,0.0,4.0,1650847300067963.0
-4.0,-10.0,-2.0,-6.0,-3.0,-2.0,-2.0,-2.0,1650847300067963.0
-2.0,5.0,6.0,-4.0,-4.0,-1.0,-6.0,-4.0,1650847300069945.0
-2.0,-3.0,-4.0,-1.0,-5.0,0.0,1.0,0.0,1650847300069945.0
-1.0,1.0,-1.0,-3.0,0.0,1.0,1.0,-1.0,1650847300091040.0
-2.0,-3.0,-8.0,-6.0,-3.0,-1.0,0.0,-2.0,1650847300091040.0
4.0,6.0,7.0,5.0,3.0,2.0,7.0,4.0,1650847300092039.0
0.0,-2.0,-6.0,-5.0,-4.0,-4.0,-3.0,-1.0,1650847300092039.0
-2.0,-2.0,2.0,-2.0,0.0,0.0,-2.0,-4.0,1650847300104072.0
0.0,0.0,-1.0,1.0,1.0,-1.0,0.0,1.0,1650847300104072.0
-1.0,2.0,0.0,-1.0,1.0,0.0,0.0,-3.0,1650847300112981.0
-2.0,-3.0,-1.0,2.0,-2.0,-3.0,-1.0,-2.0,1650847300112981.0
-2.0,-3.0,-4.0,-5.0,-3.0,-2.0,-3.0,-4.0,1650847300128578.0
-2.0,-2.0,-3.0,-1.0,-2.0,-2.0,-1.0,-1.0,1650847300128578.0
1.0,5.0,4.0,1.0,1.0,2.0,1.0,1.0,1650847300130231.0
2.0,-1.0,-1.0,-1.0,-3.0,0.0,-1.0,2.0,1650847300130231.0
0.0,-3.0,-3.0,0.0,-3.0,0.0,-1.0,-1.0,1650847300151286.0
2.0,6.0,3.0,4.0,2.0,2.0,-1.0,-1.0,1650847300151286.0
-2.0,-5.0,2.0,-3.0,1.0,0.0,-1.0,0.0,1650847300152286.0
0.0,-5.0,-7.0,-5.0,-4.0,-1.0,1.0,-1.0,1650847300152286.0
-1.0,0.0,-4.0,-1.0,1.0,0.0,-1.0,-1.0,1650847300165311.0
1.0,1.0,-2.0,-5.0,-5.0,-1.0,-2.0,0.0,1650847300165311.0
1.0,0.0,12.0,6.0,0.0,-1.0,2.0,2.0,1650847300172282.0
-3.0,-9.0,-19.0,-11.0,-5.0,-2.0,-1.0,-1.0,1650847300172282.0
-1.0,2.0,4.0,0.0,0.0,-2.0,-1.0,-2.0,1650847300188405.0
1.0,-2.0,-1.0,0.0,-1.0,-2.0,0.0,-1.0,1650847300188405.0
3.0,4.0,-1.0,-3.0,0.0,-1.0,2.0,2.0,1650847300189337.0
3.0,4.0,4.0,4.0,1.0,1.0,0.0,2.0,1650847300189337.0
-3.0,-4.0,-1.0,-5.0,-7.0,-3.0,0.0,-3.0,1650847300211205.0
-3.0,-5.0,-2.0,-1.0,-2.0,0.0,0.0,-2.0,1650847300211205.0
0.0,-1.0,1.0,-1.0,0.0,2.0,1.0,0.0,1650847300212181.0
0.0,-1.0,5.0,2.0,0.0,1.0,-2.0,-1.0,1650847300212181.0
-1.0,0.0,-5.0,-4.0,1.0,-2.0,0.0,-1.0,1650847300224149.0
-1.0,0.0,1.0,-1.0,-4.0,0.0,0.0,1.0,1650847300224149.0
-4.0,-3.0,-2.0,0.0,1.0,0.0,-1.0,-2.0,1650847300233783.0
1.0,2.0,1.0,0.0,0.0,-1.0,0.0,-1.0,1650847300233783.0
1.0,0.0,0.0,-2.0,-2.0,-2.0,0.0,-1.0,1650847300247815.0
-1.0,-4.0,1.0,-1.0,-1.0,-2.0,-1.0,0.0,1650847300247815.0
1.0,0.0,-3.0,-1.0,-2.0,-2.0,-1.0,-1.0,1650847300249743.0
-2.0,-3.0,-4.0,2.0,4.0,1.0,0.0,0.0,1650847300249743.0
-1.0,2.0,0.0,2.0,3.0,1.0,2.0,0.0,1650847300270789.0
0.0,-1.0,-1.0,0.0,-1.0,0.0,-1.0,-3.0,1650847300270789.0
-1.0,-1.0,-2.0,-6.0,-4.0,0.0,0.0,0.0,1650847300272743.0
1.0,-1.0,6.0,1.0,-1.0,1.0,-2.0,0.0,1650847300272743.0
1.0,-2.0,-2.0,-3.0,0.0,0.0,-1.0,1.0,1650847300284779.0
1.0,-3.0,-3.0,2.0,-1.0,0.0,1.0,-1.0,1650847300284779.0
4.0,5.0,2.0,-1.0,3.0,0.0,0.0,1.0,1650847300293787.0
0.0,-5.0,-5.0,-8.0,-7.0,-3.0,-1.0,-2.0,1650847300293787.0
-1.0,-5.0,0.0,4.0,-3.0,-1.0,-2.0,-1.0,1650847300307819.0
-1.0,2.0,-1.0,-3.0,-4.0,0.0,0.0,-1.0,1650847300307819.0
-2.0,-1.0,-1.0,0.0,-1.0,0.0,0.0,-1.0,1650847300309756.0
2.0,5.0,5.0,2.0,4.0,0.0,-1.0,2.0,1650847300309756.0
-1.0,-1.0,5.0,2.0,-1.0,-3.0,-1.0,-1.0,1650847300330759.0
-2.0,-2.0,-4.0,-2.0,-2.0,-3.0,1.0,-1.0,1650847300330759.0
-1.0,-2.0,0.0,3.0,-2.0,-2.0,-1.0,1.0,1650847300332686.0
-1.0,-1.0,-2.0,-4.0,-2.0,1.0,0.0,-2.0,1650847300332686.0
0.0,1.0,-1.0,1.0,3.0,3.0,-1.0,0.0,1650847300344720.0
1.0,-2.0,1.0,-4.0,0.0,-1.0,-1.0,0.0,1650847300344720.0
0.0,1.0,0.0,1.0,-1.0,-2.0,-1.0,-2.0,1650847300353630.0
-1.0,1.0,-1.0,-1.0,-2.0,-2.0,0.0,1.0,1650847300353630.0
-1.0,2.0,-2.0,-2.0,0.0,2.0,1.0,1.0,1650847300367750.0
-1.0,1.0,-1.0,-4.0,-1.0,0.0,-1.0,-2.0,1650847300367750.0
0.0,3.0,2.0,11.0,3.0,0.0,-1.0,0.0,1650847300369705.0
-2.0,-4.0,-1.0,-5.0,-3.0,-1.0,0.0,0.0,1650847300369705.0
0.0,-1.0,-2.0,-2.0,1.0,1.0,1.0,-2.0,1650847300390900.0
0.0,2.0,0.0,-2.0,3.0,0.0,-1.0,1.0,1650847300390900.0
-2.0,-6.0,-3.0,-6.0,-5.0,-3.0,1.0,-3.0,1650847300391830.0
-2.0,-3.0,1.0,2.0,-4.0,-2.0,0.0,-3.0,1650847300391830.0
1.0,0.0,1.0,1.0,2.0,-2.0,0.0,0.0,1650847300404797.0
2.0,-3.0,-3.0,0.0,0.0,1.0,0.0,-1.0,1650847300404797.0
0.0,-3.0,0.0,-2.0,-1.0,0.0,-1.0,0.0,1650847300413774.0
-1.0,1.0,-1.0,2.0,-2.0,-3.0,-2.0,-3.0,1650847300413774.0
0.0,-1.0,1.0,-1.0,-3.0,0.0,0.0,0.0,1650847300427942.0
-3.0,-2.0,-1.0,1.0,-1.0,-1.0,-1.0,-1.0,1650847300427942.0
1.0,1.0,-2.0,-1.0,-1.0,-1.0,-1.0,1.0,1650847300429974.0
0.0,2.0,-2.0,-2.0,1.0,-1.0,-1.0,-1.0,1650847300429974.0
0.0,-1.0,-2.0,-2.0,-4.0,-1.0,-3.0,1.0,1650847300450370.0
-2.0,0.0,-1.0,1.0,2.0,-1.0,-1.0,-1.0,1650847300450370.0
-2.0,-2.0,4.0,1.0,0.0,0.0,0.0,-1.0,1650847300452298.0
0.0,2.0,-1.0,2.0,4.0,1.0,2.0,-1.0,1650847300452298.0
1.0,0.0,-1.0,-5.0,-3.0,0.0,-3.0,-1.0,1650847300464331.0
-1.0,3.0,2.0,3.0,-3.0,-1.0,0.0,1.0,1650847300464331.0
-1.0,-1.0,-2.0,-1.0,1.0,0.0,-1.0,-1.0,1650847300473255.0
2.0,4.0,2.0,0.0,1.0,2.0,-2.0,0.0,1650847300473255.0
-2.0,-2.0,-2.0,0.0,-2.0,-4.0,-1.0,0.0,1650847300488666.0
0.0,-4.0,-1.0,1.0,-2.0,0.0,-3.0,-2.0,1650847300488666.0
0.0,1.0,-2.0,2.0,-1.0,0.0,0.0,0.0,1650847300489665.0
0.0,-1.0,2.0,-1.0,-4.0,1.0,0.0,0.0,1650847300489665.0
-2.0,1.0,-2.0,0.0,-2.0,-2.0,2.0,-1.0,1650847300510864.0
-1.0,-2.0,1.0,1.0,5.0,1.0,3.0,1.0,1650847300510864.0
1.0,0.0,0.0,-3.0,0.0,-1.0,0.0,-1.0,1650847300512791.0
-3.0,-7.0,-2.0,1.0,-1.0,-1.0,-2.0,-1.0,1650847300512791.0
-1.0,-1.0,0.0,-1.0,1.0,-1.0,-2.0,-1.0,1650847300524793.0
-1.0,2.0,0.0,2.0,-1.0,-4.0,-3.0,0.0,1650847300524793.0
-3.0,-6.0,-1.0,-2.0,0.0,-1.0,-1.0,-2.0,1650847300532971.0
-2.0,-1.0,-3.0,-3.0,0.0,0.0,0.0,0.0,1650847300532971.0
-1.0,2.0,0.0,-2.0,-1.0,-2.0,-1.0,-1.0,1650847300548539.0
2.0,-1.0,2.0,-1.0,-3.0,-1.0,-1.0,0.0,1650847300548539.0
0.0,0.0,-5.0,1.0,0.0,0.0,1.0,0.0,1650847300549475.0
-1.0,3.0,2.0,3.0,1.0,4.0,3.0,2.0,1650847300549475.0
-1.0,-1.0,0.0,-1.0,0.0,1.0,0.0,-1.0,1650847300570646.0
-2.0,0.0,-4.0,-2.0,-2.0,-1.0,0.0,-1.0,1650847300570646.0
-1.0,2.0,4.0,0.0,3.0,-2.0,0.0,-1.0,1650847300572609.0
-1.0,1.0,1.0,-4.0,-4.0,-4.0,0.0,-1.0,1650847300572609.0
-2.0,-2.0,-1.0,2.0,2.0,2.0,-2.0,-1.0,1650847300584852.0
0.0,-2.0,-1.0,-4.0,-5.0,-2.0,-1.0,-1.0,1650847300584852.0
-1.0,-1.0,-4.0,-3.0,0.0,0.0,1.0,0.0,1650847300593785.0
-1.0,-1.0,0.0,5.0,2.0,-3.0,-3.0,-2.0,1650847300593785.0
1.0,-1.0,0.0,-1.0,-2.0,-1.0,0.0,-2.0,1650847300607795.0
-1.0,0.0,-1.0,-5.0,-5.0,-2.0,0.0,-1.0,1650847300607795.0
-2.0,0.0,-1.0,4.0,3.0,0.0,0.0,0.0,1650847300609724.0
-1.0,1.0,-1.0,-1.0,-2.0,-2.0,-2.0,0.0,1650847300609724.0
-2.0,-4.0,0.0,0.0,-3.0,-2.0,0.0,-1.0,1650847300630882.0
1.0,2.0,0.0,1.0,2.0,0.0,-1.0,1.0,1650847300630882.0
0.0,1.0,0.0,-5.0,-4.0,-3.0,-1.0,0.0,1650847300631813.0
2.0,-4.0,0.0,1.0,0.0,2.0,-1.0,-1.0,1650847300631813.0
3.0,3.0,-5.0,-1.0,1.0,2.0,0.0,0.0,1650847300644821.0
