EMG_s0,EMG_s1,EMG_s2,EMG_s3,EMG_s4,EMG_s5,EMG_s6,EMG_s7,timestamp
-1.0,1.0,2.0,-5.0,-1.0,2.0,1.0,-2.0,1650847783947520.0
1.0,0.0,0.0,21.0,2.0,-2.0,0.0,0.0,1650847783947520.0
1.0,-2.0,-3.0,-6.0,-3.0,0.0,-2.0,2.0,1650847783947520.0
-4.0,0.0,0.0,-1.0,-1.0,-1.0,-2.0,-2.0,1650847783947520.0
-1.0,-2.0,-2.0,-2.0,-4.0,-2.0,-3.0,-1.0,1650847783948517.0
0.0,-3.0,-2.0,-9.0,-1.0,0.0,-2.0,-2.0,1650847783948517.0
-2.0,1.0,4.0,1.0,-2.0,-1.0,0.0,-1.0,1650847783951536.0
0.0,0.0,-2.0,-1.0,-1.0,1.0,1.0,-1.0,1650847783951536.0
0.0,0.0,-2.0,-4.0,-2.0,0.0,0.0,1.0,1650847783959488.0
-1.0,2.0,0.0,-4.0,-2.0,1.0,-1.0,1.0,1650847783959488.0
-2.0,-2.0,-2.0,4.0,2.0,1.0,-1.0,-2.0,1650847783968465.0
-1.0,-1.0,-2.0,-4.0,-3.0,-3.0,-2.0,-2.0,1650847783968465.0
-1.0,0.0,0.0,-4.0,-4.0,-3.0,0.0,0.0,1650847783985517.0
-1.0,0.0,2.0,8.0,12.0,5.0,4.0,3.0,1650847783985517.0
0.0,1.0,-3.0,-9.0,-2.0,-1.0,2.0,1.0,1650847783988509.0
1.0,0.0,3.0,-2.0,0.0,0.0,0.0,1.0,1650847783988509.0
-1.0,3.0,-1.0,1.0,1.0,0.0,0.0,-2.0,1650847784000615.0
-1.0,2.0,-1.0,-13.0,-7.0,-2.0,0.0,-2.0,1650847784000615.0
2.0,2.0,9.0,18.0,5.0,2.0,2.0,-1.0,1650847784020600.0
0.0,-1.0,-1.0,-2.0,5.0,0.0,2.0,1.0,1650847784020600.0
-2.0,-5.0,-2.0,2.0,-1.0,-2.0,-1.0,0.0,1650847784021523.0
0.0,0.0,-2.0,-12.0,-1.0,-2.0,-2.0,0.0,1650847784021523.0
0.0,0.0,2.0,16.0,0.0,-1.0,0.0,1.0,1650847784033557.0
-1.0,1.0,5.0,4.0,1.0,1.0,0.0,-1.0,1650847784033557.0
0.0,0.0,3.0,9.0,8.0,4.0,0.0,1.0,1650847784075864.0
0.0,1.0,-1.0,-6.0,-2.0,0.0,0.0,-2.0,1650847784075864.0
3.0,0.0,1.0,0.0,-2.0,-1.0,-3.0,0.0,1650847784075864.0
-1.0,-1.0,0.0,-1.0,-3.0,0.0,-1.0,0.0,1650847784075864.0
-1.0,0.0,-2.0,-4.0,-3.0,0.0,0.0,-3.0,1650847784079863.0
-2.0,-2.0,0.0,-1.0,-3.0,-3.0,-1.0,-1.0,1650847784079863.0
-2.0,0.0,0.0,3.0,0.0,-1.0,0.0,-2.0,1650847784080855.0
-1.0,-2.0,-1.0,-7.0,-1.0,-3.0,0.0,0.0,1650847784080855.0
1.0,2.0,4.0,7.0,-2.0,0.0,-1.0,1.0,1650847784085825.0
3.0,-1.0,0.0,7.0,3.0,0.0,0.0,1.0,1650847784085825.0
-1.0,0.0,1.0,-4.0,-2.0,-1.0,0.0,-1.0,1650847784093831.0
0.0,0.0,0.0,2.0,1.0,1.0,2.0,-2.0,1650847784093831.0
-1.0,-2.0,-4.0,-4.0,-1.0,-3.0,-1.0,-1.0,1650847784108944.0
0.0,0.0,1.0,4.0,1.0,-2.0,-1.0,-1.0,1650847784108944.0
-1.0,0.0,-5.0,-15.0,-3.0,-1.0,0.0,1.0,1650847784116944.0
0.0,-4.0,5.0,20.0,9.0,1.0,-1.0,-1.0,1650847784116944.0
-2.0,-4.0,-2.0,-3.0,-2.0,-1.0,-1.0,0.0,1650847784123773.0
-2.0,2.0,-1.0,-5.0,-2.0,0.0,-1.0,0.0,1650847784123773.0
0.0,-1.0,3.0,6.0,2.0,-1.0,0.0,-1.0,1650847784147741.0
0.0,-1.0,-6.0,-7.0,-3.0,-2.0,-1.0,0.0,1650847784147741.0
0.0,0.0,-5.0,-6.0,-2.0,-1.0,0.0,0.0,1650847784149733.0
0.0,0.0,0.0,3.0,2.0,1.0,1.0,-1.0,1650847784149733.0
1.0,-2.0,-4.0,-2.0,-5.0,-1.0,-3.0,1.0,1650847784160816.0
-1.0,1.0,1.0,-5.0,-3.0,0.0,-2.0,0.0,1650847784160816.0
-1.0,-1.0,1.0,7.0,2.0,1.0,0.0,-1.0,1650847784169904.0
0.0,1.0,-2.0,-3.0,0.0,-1.0,-1.0,1.0,1650847784169904.0
0.0,-1.0,-1.0,1.0,2.0,0.0,1.0,-1.0,1650847784184918.0
0.0,0.0,-2.0,-6.0,-3.0,-2.0,-3.0,-1.0,1650847784184918.0
-1.0,-2.0,0.0,-3.0,-3.0,-2.0,1.0,-3.0,1650847784186872.0
-4.0,-2.0,0.0,-3.0,-1.0,-1.0,-3.0,-1.0,1650847784186872.0
-1.0,-2.0,-1.0,-2.0,-1.0,0.0,0.0,0.0,1650847784207789.0
-1.0,2.0,0.0,7.0,-1.0,-2.0,0.0,0.0,1650847784207789.0
0.0,0.0,-2.0,-5.0,-4.0,-4.0,0.0,-1.0,1650847784208802.0
1.0,0.0,-2.0,-5.0,-5.0,-1.0,0.0,0.0,1650847784208802.0
-2.0,1.0,2.0,5.0,6.0,2.0,-2.0,0.0,1650847784229799.0
1.0,0.0,3.0,5.0,5.0,2.0,-1.0,-1.0,1650847784229799.0
-1.0,0.0,1.0,-2.0,-2.0,-1.0,-1.0,1.0,1650847784231727.0
1.0,-1.0,-3.0,-1.0,-3.0,0.0,1.0,-2.0,1650847784231727.0
-1.0,-1.0,-2.0,-4.0,-1.0,-1.0,-1.0,-2.0,1650847784244760.0
-3.0,-3.0,-3.0,-2.0,-4.0,-2.0,0.0,-1.0,1650847784244760.0
1.0,2.0,0.0,-1.0,1.0,0.0,-1.0,-2.0,1650847784246714.0
-1.0,-3.0,1.0,-1.0,0.0,0.0,-2.0,0.0,1650847784246714.0
0.0,0.0,-1.0,3.0,2.0,0.0,1.0,0.0,1650847784274882.0
-1.0,-1.0,-1.0,4.0,2.0,0.0,0.0,0.0,1650847784274882.0
0.0,-2.0,-1.0,0.0,0.0,-1.0,0.0,0.0,1650847784276838.0
-1.0,0.0,-2.0,-1.0,0.0,-2.0,-1.0,0.0,1650847784276838.0
-1.0,0.0,-1.0,-3.0,0.0,-1.0,0.0,-1.0,1650847784289843.0
1.0,-1.0,1.0,3.0,1.0,0.0,0.0,1.0,1650847784289843.0
-1.0,-2.0,-5.0,-6.0,-2.0,-2.0,-3.0,-1.0,1650847784291797.0
-1.0,-1.0,4.0,4.0,5.0,0.0,0.0,-1.0,1650847784291797.0
0.0,-1.0,-2.0,-6.0,-4.0,-3.0,0.0,0.0,1650847784304803.0
-1.0,-1.0,-3.0,0.0,2.0,0.0,2.0,1.0,1650847784304803.0
1.0,1.0,-2.0,-5.0,-2.0,1.0,-1.0,0.0,1650847784306758.0
-1.0,-2.0,0.0,3.0,-2.0,0.0,-2.0,-2.0,1650847784306758.0
-3.0,-1.0,-8.0,-10.0,-5.0,-2.0,-1.0,1.0,1650847784327427.0
-1.0,-2.0,-3.0,-8.0,-3.0,0.0,-1.0,-1.0,1650847784327427.0
1.0,-2.0,3.0,15.0,10.0,3.0,2.0,0.0,1650847784329442.0
-2.0,-1.0,-2.0,-10.0,-3.0,-2.0,-1.0,-2.0,1650847784329442.0
-2.0,-1.0,2.0,10.0,0.0,-2.0,-1.0,0.0,1650847784341548.0
0.0,3.0,2.0,-2.0,-3.0,0.0,-2.0,0.0,1650847784341548.0
-2.0,0.0,-1.0,-2.0,-4.0,0.0,1.0,1.0,1650847784350484.0
0.0,-2.0,-5.0,-5.0,-1.0,-1.0,0.0,0.0,1650847784350484.0
2.0,0.0,4.0,7.0,1.0,-1.0,1.0,0.0,1650847784365778.0
-1.0,0.0,-4.0,-8.0,-3.0,-1.0,0.0,-1.0,1650847784365778.0
-1.0,-2.0,5.0,7.0,6.0,-1.0,0.0,-1.0,1650847784366768.0
1.0,0.0,2.0,5.0,3.0,2.0,2.0,1.0,1650847784366768.0
-1.0,0.0,-4.0,-10.0,-4.0,-2.0,-1.0,-1.0,1650847784387835.0
-1.0,-2.0,0.0,-9.0,-5.0,-1.0,-2.0,-2.0,1650847784387835.0
1.0,-2.0,-1.0,0.0,-3.0,-1.0,-1.0,1.0,1650847784388840.0
-1.0,-1.0,-4.0,-4.0,0.0,-1.0,2.0,-1.0,1650847784388840.0
1.0,-1.0,1.0,9.0,1.0,0.0,-1.0,-1.0,1650847784400871.0
-2.0,-1.0,3.0,3.0,5.0,0.0,-1.0,-1.0,1650847784400871.0
-2.0,2.0,-2.0,-8.0,-5.0,0.0,-1.0,0.0,1650847784409911.0
-1.0,0.0,2.0,7.0,-1.0,-2.0,0.0,0.0,1650847784409911.0
-1.0,-2.0,-2.0,-5.0,-2.0,-2.0,0.0,0.0,1650847784425058.0
-3.0,-1.0,-3.0,-1.0,-4.0,-3.0,-1.0,0.0,1650847784425058.0
-1.0,1.0,1.0,0.0,-1.0,-1.0,2.0,-2.0,1650847784426014.0
2.0,1.0,7.0,5.0,5.0,2.0,0.0,1.0,1650847784426014.0
1.0,0.0,2.0,0.0,2.0,2.0,0.0,-1.0,1650847784446932.0
0.0,-2.0,-5.0,1.0,0.0,-1.0,1.0,0.0,1650847784446932.0
0.0,-4.0,-4.0,0.0,0.0,-3.0,-1.0,-1.0,1650847784448935.0
0.0,2.0,-3.0,-1.0,-1.0,-1.0,-1.0,0.0,1650847784448935.0
0.0,-2.0,0.0,-2.0,-1.0,-1.0,-2.0,-1.0,1650847784460963.0
1.0,1.0,6.0,11.0,-1.0,0.0,0.0,0.0,1650847784460963.0
0.0,-2.0,1.0,-4.0,1.0,0.0,-2.0,-1.0,1650847784469991.0
-1.0,-3.0,-4.0,2.0,-1.0,-1.0,-2.0,-1.0,1650847784469991.0
1.0,0.0,-4.0,0.0,4.0,2.0,-2.0,1.0,1650847784485006.0
0.0,0.0,0.0,-6.0,0.0,0.0,0.0,-1.0,1650847784485006.0
1.0,3.0,18.0,6.0,-2.0,-2.0,-1.0,1.0,1650847784486935.0
-1.0,0.0,-16.0,-5.0,-1.0,-1.0,-1.0,0.0,1650847784486935.0
0.0,0.0,2.0,1.0,-1.0,0.0,1.0,0.0,1650847784507339.0
-2.0,-7.0,-3.0,-1.0,0.0,-1.0,0.0,-1.0,1650847784507339.0
-1.0,0.0,-10.0,-1.0,-1.0,0.0,-1.0,-2.0,1650847784509364.0
0.0,4.0,24.0,5.0,3.0,0.0,0.0,0.0,1650847784509364.0
-3.0,-2.0,-3.0,-1.0,-1.0,-1.0,0.0,0.0,1650847784530423.0
0.0,-1.0,-3.0,-3.0,-1.0,-1.0,0.0,0.0,1650847784530423.0
-1.0,-1.0,0.0,2.0,-1.0,1.0,-1.0,0.0,1650847784531429.0
0.0,-1.0,-6.0,-6.0,-3.0,0.0,0.0,-2.0,1650847784531429.0
-1.0,-2.0,6.0,7.0,1.0,0.0,1.0,-2.0,1650847784545360.0
1.0,1.0,2.0,0.0,1.0,1.0,0.0,-1.0,1650847784545360.0
-1.0,-2.0,-8.0,-9.0,-2.0,-1.0,0.0,-1.0,1650847784546378.0
0.0,-2.0,2.0,0.0,-3.0,-1.0,-1.0,-2.0,1650847784546378.0
0.0,2.0,0.0,1.0,0.0,0.0,-1.0,-2.0,1650847784567858.0
0.0,1.0,1.0,5.0,2.0,0.0,-2.0,-2.0,1650847784567858.0
-3.0,-3.0,-9.0,-8.0,-6.0,-2.0,-1.0,0.0,1650847784568858.0
0.0,-2.0,-7.0,-5.0,-3.0,0.0,-3.0,1.0,1650847784568858.0
-1.0,-3.0,-10.0,1.0,2.0,0.0,0.0,-1.0,1650847784589926.0
0.0,4.0,31.0,6.0,-1.0,-3.0,-1.0,0.0,1650847784589926.0
1.0,-1.0,-6.0,1.0,1.0,-2.0,-1.0,-1.0,1650847784591919.0
0.0,3.0,8.0,3.0,1.0,1.0,2.0,1.0,1650847784591919.0
0.0,-2.0,-14.0,-3.0,1.0,1.0,-2.0,1.0,1650847784604885.0
-3.0,-4.0,-16.0,-8.0,-5.0,-3.0,-2.0,-2.0,1650847784604885.0
0.0,2.0,6.0,-1.0,-1.0,-1.0,0.0,0.0,1650847784606879.0
-2.0,0.0,5.0,0.0,-2.0,-1.0,-1.0,-1.0,1650847784606879.0
2.0,0.0,1.0,-5.0,0.0,1.0,0.0,-1.0,1650847784627850.0
1.0,2.0,-3.0,1.0,0.0,1.0,0.0,0.0,1650847784627850.0
-1.0,0.0,3.0,1.0,0.0,0.0,0.0,-1.0,1650847784628821.0
-4.0,-5.0,-3.0,0.0,0.0,-4.0,-2.0,-1.0,1650847784628821.0
1.0,1.0,3.0,-2.0,-3.0,-2.0,1.0,0.0,1650847784649790.0
-1.0,-1.0,-1.0,3.0,1.0,0.0,-4.0,-1.0,1650847784649790.0
0.0,-2.0,-9.0,-10.0,-3.0,-1.0,1.0,0.0,1650847784651783.0
2.0,1.0,-5.0,-1.0,0.0,0.0,-1.0,0.0,1650847784651783.0
-1.0,3.0,11.0,6.0,0.0,-1.0,-1.0,-1.0,1650847784664749.0
0.0,-5.0,-5.0,-2.0,1.0,1.0,1.0,1.0,1650847784664749.0
1.0,1.0,-2.0,2.0,2.0,2.0,-1.0,0.0,1650847784670732.0
0.0,-1.0,-2.0,-3.0,-4.0,-1.0,0.0,1.0,1650847784670732.0
-2.0,-2.0,0.0,-7.0,-6.0,-4.0,-1.0,-1.0,1650847784687753.0
0.0,3.0,1.0,5.0,1.0,1.0,-2.0,-1.0,1650847784687753.0
-3.0,-1.0,4.0,5.0,2.0,0.0,0.0,1.0,1650847784688687.0
-2.0,-3.0,-4.0,3.0,0.0,0.0,0.0,-1.0,1650847784688687.0
1.0,-2.0,-2.0,-4.0,-3.0,-1.0,-2.0,-3.0,1650847784709730.0
1.0,0.0,-8.0,-7.0,0.0,-1.0,2.0,1.0,1650847784709730.0
-1.0,-3.0,-3.0,0.0,-1.0,1.0,-1.0,-2.0,1650847784711689.0
-2.0,-1.0,5.0,2.0,1.0,2.0,1.0,-1.0,1650847784711689.0
-1.0,-1.0,-7.0,1.0,1.0,0.0,-1.0,0.0,1650847784724697.0
-1.0,-2.0,-5.0,-3.0,-3.0,-3.0,0.0,-1.0,1650847784724697.0
0.0,-1.0,-3.0,-1.0,-1.0,1.0,-2.0,0.0,1650847784730682.0
-1.0,-1.0,-4.0,2.0,0.0,0.0,2.0,-1.0,1650847784730682.0
0.0,3.0,4.0,-3.0,0.0,0.0,0.0,0.0,1650847784747752.0
0.0,1.0,2.0,-1.0,1.0,1.0,1.0,0.0,1650847784747752.0
-1.0,2.0,3.0,1.0,1.0,0.0,0.0,1.0,1650847784748689.0
2.0,0.0,0.0,3.0,1.0,-1.0,-1.0,1.0,1650847784748689.0
-1.0,-2.0,0.0,6.0,0.0,1.0,-2.0,0.0,1650847784770298.0
1.0,2.0,-11.0,-12.0,-4.0,-1.0,0.0,-1.0,1650847784770298.0
0.0,1.0,4.0,-5.0,-2.0,-2.0,0.0,-1.0,1650847784771296.0
-2.0,-2.0,-3.0,-4.0,-1.0,0.0,-3.0,0.0,1650847784771296.0
0.0,2.0,5.0,2.0,1.0,-1.0,-2.0,1.0,1650847784784316.0
-2.0,-4.0,-8.0,1.0,-1.0,0.0,-2.0,-1.0,1650847784784316.0
1.0,2.0,3.0,1.0,-1.0,-2.0,-1.0,-1.0,1650847784791243.0
0.0,-2.0,-5.0,-3.0,0.0,1.0,0.0,-1.0,1650847784791243.0
-2.0,-4.0,1.0,-1.0,-1.0,-1.0,0.0,-1.0,1650847784807317.0
0.0,1.0,0.0,-1.0,1.0,1.0,-1.0,-1.0,1650847784807317.0
-2.0,-4.0,-8.0,-7.0,-2.0,-2.0,0.0,0.0,1650847784809278.0
0.0,1.0,7.0,3.0,0.0,-1.0,0.0,0.0,1650847784809278.0
-1.0,-3.0,-4.0,-1.0,-1.0,-1.0,1.0,-2.0,1650847784829499.0
1.0,4.0,3.0,-1.0,2.0,1.0,0.0,0.0,1650847784829499.0
-1.0,-2.0,-6.0,4.0,0.0,1.0,-2.0,-1.0,1650847784831438.0
-2.0,1.0,8.0,-1.0,0.0,0.0,-1.0,0.0,1650847784831438.0
-1.0,-1.0,-6.0,1.0,0.0,-2.0,-2.0,1.0,1650847784843423.0
-1.0,-1.0,1.0,-1.0,-3.0,-3.0,-1.0,-3.0,1650847784843423.0
-1.0,-1.0,0.0,1.0,1.0,0.0,1.0,-1.0,1650847784851441.0
0.0,0.0,-5.0,-3.0,0.0,-1.0,1.0,1.0,1650847784851441.0
-1.0,2.0,3.0,2.0,6.0,2.0,0.0,0.0,1650847784866334.0
-2.0,-3.0,1.0,-2.0,-2.0,-1.0,0.0,2.0,1650847784866334.0
-2.0,-3.0,0.0,1.0,-1.0,1.0,0.0,-2.0,1650847784867341.0
1.0,-2.0,0.0,-3.0,-4.0,-1.0,-1.0,-2.0,1650847784867341.0
-1.0,0.0,-5.0,-9.0,0.0,1.0,-1.0,0.0,1650847784889461.0
-1.0,-2.0,5.0,5.0,0.0,0.0,1.0,0.0,1650847784889461.0
0.0,-1.0,-1.0,1.0,1.0,-2.0,0.0,-1.0,1650847784890389.0
-2.0,1.0,-3.0,-7.0,-2.0,-2.0,-1.0,-1.0,1650847784890389.0
-1.0,-3.0,4.0,7.0,0.0,-1.0,-1.0,-2.0,1650847784903543.0
-2.0,-3.0,-5.0,-1.0,-1.0,-1.0,-1.0,-1.0,1650847784903543.0
-2.0,1.0,3.0,1.0,0.0,0.0,0.0,1.0,1650847784911473.0
-2.0,0.0,2.0,-7.0,-3.0,-3.0,-1.0,-3.0,1650847784911473.0
2.0,2.0,-5.0,3.0,1.0,-1.0,0.0,0.0,1650847784926809.0
-2.0,-6.0,2.0,1.0,1.0,0.0,-2.0,0.0,1650847784926809.0
1.0,1.0,0.0,-7.0,-2.0,-1.0,-2.0,-2.0,1650847784927750.0
1.0,-1.0,-10.0,-6.0,-4.0,-2.0,0.0,0.0,1650847784927750.0
0.0,0.0,9.0,3.0,1.0,0.0,0.0,0.0,1650847784948749.0
-2.0,-1.0,-1.0,-1.0,-2.0,0.0,0.0,-2.0,1650847784948749.0
0.0,2.0,0.0,3.0,-2.0,-1.0,-1.0,0.0,1650847784949681.0
0.0,2.0,0.0,3.0,2.0,2.0,-1.0,-1.0,1650847784949681.0
-2.0,-2.0,-2.0,-5.0,-6.0,-1.0,-2.0,-2.0,1650847784963656.0
-2.0,2.0,0.0,1.0,2.0,0.0,0.0,-1.0,1650847784963656.0
0.0,-1.0,3.0,1.0,2.0,2.0,0.0,2.0,1650847784970693.0
-1.0,2.0,1.0,4.0,2.0,1.0,0.0,-1.0,1650847784970693.0
0.0,-2.0,-3.0,-3.0,-3.0,-1.0,0.0,0.0,1650847784986769.0
2.0,0.0,-2.0,-1.0,0.0,-1.0,-1.0,0.0,1650847784986769.0
-1.0,0.0,5.0,0.0,0.0,-2.0,-1.0,-1.0,1650847784987699.0
-2.0,-2.0,-3.0,3.0,3.0,0.0,1.0,0.0,1650847784987699.0
-1.0,-1.0,-1.0,-3.0,-2.0,-1.0,0.0,2.0,1650847785009649.0
0.0,1.0,3.0,-1.0,-3.0,-2.0,-1.0,-1.0,1650847785009649.0
1.0,2.0,-1.0,-4.0,2.0,1.0,1.0,1.0,1650847785009649.0
0.0,-4.0,-11.0,3.0,0.0,0.0,-1.0,-3.0,1650847785009649.0
1.0,0.0,4.0,-2.0,-2.0,-3.0,0.0,-2.0,1650847785023670.0
0.0,2.0,3.0,2.0,-1.0,-2.0,-1.0,0.0,1650847785023670.0
-2.0,1.0,-8.0,0.0,-1.0,1.0,1.0,0.0,1650847785030698.0
-1.0,-3.0,2.0,0.0,-2.0,-1.0,-1.0,-1.0,1650847785030698.0
-2.0,-1.0,-2.0,-2.0,-2.0,-1.0,-1.0,1.0,1650847785053844.0
0.0,3.0,-1.0,1.0,4.0,0.0,0.0,0.0,1650847785053844.0
0.0,-1.0,2.0,3.0,1.0,0.0,-1.0,-1.0,1650847785054844.0
-2.0,-2.0,-5.0,-7.0,-5.0,-3.0,-1.0,1.0,1650847785054844.0
-1.0,1.0,1.0,2.0,-1.0,0.0,1.0,-2.0,1650847785069593.0
0.0,-1.0,-2.0,-3.0,0.0,0.0,0.0,0.0,1650847785069593.0
-2.0,-2.0,6.0,6.0,2.0,-1.0,-1.0,1.0,1650847785069766.0
0.0,-2.0,-6.0,-11.0,-5.0,0.0,-1.0,1.0,1650847785069766.0
-1.0,-2.0,1.0,2.0,-1.0,0.0,1.0,0.0,1650847785091776.0
0.0,-1.0,-4.0,1.0,-3.0,-1.0,-1.0,-3.0,1650847785091776.0
1.0,-1.0,0.0,3.0,1.0,0.0,0.0,-1.0,1650847785092707.0
-2.0,2.0,3.0,4.0,1.0,0.0,0.0,1.0,1650847785092707.0
0.0,-1.0,0.0,-2.0,-2.0,-1.0,-1.0,-1.0,1650847785114032.0
1.0,0.0,-3.0,0.0,0.0,1.0,-1.0,0.0,1650847785114032.0
-2.0,-3.0,-2.0,-3.0,-1.0,-1.0,-1.0,-2.0,1650847785114962.0
0.0,1.0,0.0,-2.0,1.0,-1.0,-1.0,1.0,1650847785114962.0
0.0,1.0,-5.0,-4.0,-1.0,-1.0,0.0,0.0,1650847785128991.0
-2.0,0.0,5.0,6.0,3.0,1.0,2.0,-1.0,1650847785128991.0
0.0,2.0,4.0,4.0,1.0,-1.0,-2.0,-2.0,1650847785129923.0
-2.0,1.0,-1.0,-3.0,0.0,0.0,-2.0,-2.0,1650847785129923.0
-2.0,-2.0,-7.0,-3.0,1.0,0.0,-4.0,0.0,1650847785152125.0
-2.0,-4.0,2.0,4.0,-1.0,-3.0,0.0,-1.0,1650847785152125.0
0.0,-1.0,4.0,2.0,4.0,-1.0,0.0,-1.0,1650847785152125.0
1.0,3.0,0.0,6.0,-1.0,0.0,0.0,0.0,1650847785152125.0
0.0,1.0,5.0,1.0,0.0,-1.0,0.0,-1.0,1650847785174268.0
-2.0,-2.0,-4.0,-4.0,-2.0,1.0,-1.0,0.0,1650847785174268.0
-3.0,-4.0,-10.0,-7.0,-4.0,0.0,0.0,-1.0,1650847785175199.0
-1.0,-1.0,5.0,0.0,-2.0,0.0,-1.0,-2.0,1650847785175199.0
-1.0,1.0,-2.0,-2.0,-2.0,-2.0,1.0,1.0,1650847785189228.0
-1.0,-1.0,-3.0,-4.0,-3.0,-1.0,1.0,-1.0,1650847785189228.0
0.0,-2.0,-2.0,0.0,0.0,0.0,0.0,0.0,1650847785190159.0
3.0,0.0,-1.0,0.0,0.0,1.0,-2.0,-2.0,1650847785190159.0
-2.0,-3.0,-1.0,0.0,0.0,1.0,-1.0,-1.0,1650847785212148.0
-1.0,-2.0,1.0,3.0,2.0,-1.0,-2.0,1.0,1650847785212148.0
1.0,-1.0,-2.0,-3.0,-4.0,-1.0,0.0,-3.0,1650847785212148.0
1.0,-2.0,-3.0,2.0,0.0,-1.0,2.0,1.0,1650847785212148.0
-2.0,-4.0,-6.0,-5.0,0.0,0.0,-2.0,-1.0,1650847785234041.0
1.0,2.0,3.0,1.0,-1.0,0.0,1.0,-1.0,1650847785234041.0
0.0,0.0,0.0,0.0,-1.0,-2.0,0.0,0.0,1650847785235040.0
-1.0,0.0,0.0,2.0,2.0,1.0,0.0,-2.0,1650847785235040.0
-1.0,1.0,0.0,-1.0,-1.0,1.0,1.0,-1.0,1650847785249067.0
-2.0,1.0,3.0,-3.0,-3.0,0.0,-1.0,-1.0,1650847785249067.0
-2.0,-1.0,-7.0,-3.0,-3.0,-1.0,-2.0,-3.0,1650847785249999.0
0.0,1.0,5.0,0.0,2.0,-2.0,2.0,1.0,1650847785249999.0
1.0,0.0,3.0,1.0,1.0,2.0,-2.0,1.0,1650847785272010.0
-2.0,-3.0,1.0,7.0,3.0,1.0,0.0,-1.0,1650847785272010.0
1.0,0.0,-2.0,0.0,0.0,-2.0,-2.0,0.0,1650847785272937.0
-1.0,0.0,-1.0,0.0,0.0,-2.0,-1.0,0.0,1650847785272937.0
-2.0,0.0,0.0,-3.0,-3.0,-2.0,2.0,1.0,1650847785293844.0
0.0,1.0,-3.0,-3.0,-3.0,-1.0,-2.0,0.0,1650847785293844.0
-1.0,-1.0,1.0,-1.0,-1.0,0.0,0.0,2.0,1650847785294844.0
-1.0,-3.0,-2.0,1.0,0.0,1.0,0.0,0.0,1650847785294844.0
0.0,-3.0,0.0,3.0,2.0,0.0,-1.0,-1.0,1650847785309618.0
0.0,1.0,-3.0,-5.0,-4.0,-1.0,-1.0,2.0,1650847785309618.0
-2.0,0.0,-2.0,-3.0,-2.0,-2.0,0.0,0.0,1650847785309862.0
-1.0,-2.0,0.0,5.0,3.0,2.0,0.0,-1.0,1650847785309862.0
1.0,1.0,-4.0,-5.0,-2.0,-1.0,0.0,-2.0,1650847785332233.0
0.0,1.0,2.0,0.0,4.0,-2.0,1.0,-1.0,1650847785332233.0
-1.0,-1.0,-3.0,-6.0,-3.0,-1.0,-1.0,-2.0,1650847785332233.0
-3.0,-1.0,1.0,1.0,0.0,-1.0,-2.0,-2.0,1650847785332233.0
1.0,0.0,1.0,6.0,4.0,0.0,0.0,0.0,1650847785354548.0
0.0,-3.0,-6.0,-4.0,-2.0,-1.0,1.0,1.0,1650847785354548.0
0.0,0.0,1.0,1.0,0.0,0.0,0.0,1.0,1650847785354548.0
-1.0,0.0,-1.0,-6.0,-3.0,-1.0,-2.0,-1.0,1650847785354548.0
-2.0,0.0,-1.0,-1.0,-2.0,-1.0,0.0,-1.0,1650847785369508.0
0.0,1.0,0.0,-6.0,-5.0,-1.0,-2.0,-2.0,1650847785369508.0
2.0,0.0,0.0,3.0,6.0,0.0,1.0,-1.0,1650847785369508.0
-1.0,0.0,0.0,-2.0,-2.0,0.0,-2.0,1.0,1650847785369508.0
-1.0,-1.0,-4.0,-6.0,-2.0,-2.0,-2.0,-2.0,1650847785391650.0
-2.0,1.0,1.0,-2.0,-2.0,-1.0,0.0,0.0,1650847785391650.0
-2.0,-1.0,-1.0,1.0,-1.0,-2.0,-2.0,0.0,1650847785392581.0
0.0,-1.0,-2.0,-2.0,-4.0,-3.0,0.0,0.0,1650847785392581.0
-1.0,1.0,2.0,1.0,0.0,0.0,-1.0,2.0,1650847785414637.0
-1.0,2.0,4.0,4.0,4.0,2.0,-1.0,0.0,1650847785414637.0
-1.0,-1.0,-2.0,1.0,0.0,1.0,0.0,1.0,1650847785414637.0
0.0,2.0,-2.0,-3.0,-1.0,-2.0,-1.0,0.0,1650847785414637.0
2.0,-3.0,-4.0,1.0,-1.0,0.0,-1.0,-1.0,1650847785429694.0
-1.0,-3.0,-2.0,-6.0,-4.0,-2.0,0.0,-1.0,1650847785429694.0
0.0,0.0,3.0,2.0,1.0,0.0,-2.0,0.0,1650847785429694.0
-2.0,1.0,1.0,2.0,0.0,1.0,0.0,-1.0,1650847785429694.0
0.0,-2.0,-1.0,1.0,0.0,1.0,-1.0,0.0,1650847785451876.0
-1.0,0.0,-2.0,0.0,2.0,0.0,-1.0,-3.0,1650847785451876.0
-2.0,-3.0,-2.0,-4.0,-2.0,0.0,0.0,0.0,1650847785452838.0
1.0,-3.0,-3.0,3.0,-2.0,-1.0,0.0,-1.0,1650847785452838.0
0.0,0.0,-3.0,-9.0,-3.0,-3.0,-2.0,0.0,1650847785473851.0
-1.0,0.0,1.0,-3.0,-2.0,-2.0,-1.0,0.0,1650847785473851.0
0.0,-2.0,-2.0,-5.0,-2.0,-1.0,-2.0,-1.0,1650847785474782.0
-2.0,-1.0,1.0,-3.0,0.0,-2.0,0.0,-3.0,1650847785474782.0
0.0,0.0,3.0,6.0,0.0,2.0,0.0,0.0,1650847785488843.0
0.0,-2.0,-1.0,12.0,12.0,3.0,0.0,1.0,1650847785488843.0
-2.0,1.0,2.0,3.0,0.0,1.0,-1.0,-1.0,1650847785496937.0
-1.0,-3.0,0.0,0.0,0.0,1.0,1.0,-1.0,1650847785496937.0
-1.0,0.0,-8.0,-12.0,-7.0,-4.0,1.0,-3.0,1650847785512048.0
1.0,-1.0,0.0,-5.0,-9.0,-1.0,0.0,1.0,1650847785512048.0
1.0,0.0,0.0,0.0,0.0,-3.0,-1.0,-1.0,1650847785512048.0
1.0,0.0,-3.0,1.0,-1.0,0.0,-2.0,1.0,1650847785512048.0
-1.0,-1.0,7.0,7.0,5.0,0.0,0.0,-1.0,1650847785534752.0
-1.0,-3.0,-9.0,-2.0,-1.0,-1.0,-1.0,-1.0,1650847785534752.0
0.0,0.0,0.0,1.0,1.0,0.0,1.0,0.0,1650847785534752.0
0.0,-3.0,-12.0,-12.0,-6.0,-1.0,-1.0,2.0,1650847785534752.0
-1.0,-1.0,-1.0,5.0,5.0,1.0,-1.0,-1.0,1650847785557851.0
-1.0,1.0,-1.0,-4.0,-2.0,-2.0,-1.0,-1.0,1650847785557851.0
1.0,1.0,6.0,5.0,1.0,1.0,0.0,-1.0,1650847785557851.0
-1.0,-1.0,-7.0,-10.0,-1.0,-1.0,-2.0,-1.0,1650847785557851.0
-1.0,0.0,2.0,0.0,-2.0,0.0,0.0,-1.0,1650847785571882.0
0.0,1.0,0.0,3.0,1.0,0.0,1.0,1.0,1650847785571882.0
-1.0,0.0,1.0,4.0,5.0,0.0,0.0,0.0,1650847785572813.0
1.0,1.0,6.0,4.0,0.0,-1.0,0.0,0.0,1650847785572813.0
0.0,0.0,0.0,-3.0,-2.0,1.0,-1.0,0.0,1650847785593844.0
-1.0,-1.0,-1.0,3.0,1.0,0.0,-1.0,-1.0,1650847785593844.0
-2.0,-1.0,-5.0,-16.0,-11.0,-3.0,0.0,-2.0,1650847785594844.0
-1.0,0.0,-1.0,-1.0,1.0,-1.0,0.0,1.0,1650847785594844.0
0.0,0.0,6.0,3.0,-1.0,-2.0,1.0,-1.0,1650847785608970.0
-1.0,-4.0,-2.0,-1.0,-2.0,-2.0,0.0,0.0,1650847785608970.0
0.0,0.0,-1.0,0.0,-1.0,0.0,-3.0,1.0,1650847785623890.0
-2.0,1.0,1.0,4.0,0.0,-1.0,-1.0,-1.0,1650847785623890.0
0.0,-2.0,3.0,4.0,0.0,-1.0,0.0,-1.0,1650847785631868.0
0.0,-3.0,-3.0,-10.0,-1.0,-2.0,-2.0,-1.0,1650847785631868.0
-1.0,-3.0,-5.0,-3.0,-2.0,0.0,-1.0,-1.0,1650847785632825.0
1.0,0.0,2.0,0.0,2.0,0.0,-1.0,-1.0,1650847785632825.0
0.0,-1.0,1.0,4.0,4.0,2.0,0.0,2.0,1650847785653809.0
1.0,0.0,-1.0,-2.0,-3.0,1.0,0.0,-1.0,1650847785653809.0
-2.0,-2.0,-5.0,-9.0,-4.0,0.0,0.0,-2.0,1650847785654740.0
-1.0,-1.0,2.0,11.0,2.0,0.0,-1.0,0.0,1650847785654740.0
-1.0,-2.0,0.0,-1.0,1.0,-1.0,-1.0,-2.0,1650847785668769.0
2.0,1.0,-2.0,1.0,4.0,2.0,0.0,-1.0,1650847785668769.0
-2.0,0.0,0.0,-1.0,-4.0,-2.0,-2.0,0.0,1650847785676747.0
-1.0,-1.0,2.0,7.0,7.0,4.0,0.0,-1.0,1650847785676747.0
-1.0,-1.0,-5.0,1.0,1.0,-1.0,0.0,0.0,1650847785691823.0
0.0,1.0,-2.0,-13.0,-7.0,-3.0,0.0,0.0,1650847785691823.0
0.0,0.0,3.0,4.0,4.0,1.0,0.0,-1.0,1650847785692783.0
0.0,-1.0,-3.0,-6.0,-4.0,1.0,-3.0,0.0,1650847785692783.0
-1.0,-4.0,-9.0,4.0,2.0,-1.0,-4.0,-2.0,1650847785714695.0
0.0,-2.0,3.0,-2.0,-1.0,0.0,-1.0,0.0,1650847785714695.0
1.0,-1.0,-1.0,3.0,1.0,-1.0,1.0,-1.0,1650847785714695.0
1.0,0.0,0.0,-3.0,-5.0,-4.0,-1.0,-2.0,1650847785714695.0
-1.0,2.0,1.0,-1.0,4.0,1.0,2.0,1.0,1650847785728725.0
-2.0,-2.0,-1.0,2.0,-1.0,0.0,-1.0,-3.0,1650847785728725.0
-1.0,0.0,1.0,1.0,-3.0,-2.0,-1.0,0.0,1650847785736703.0
-1.0,-2.0,0.0,1.0,-1.0,-2.0,2.0,-2.0,1650847785736703.0
-1.0,-1.0,-6.0,-10.0,-8.0,-1.0,0.0,-1.0,1650847785751596.0
-2.0,-1.0,0.0,2.0,1.0,0.0,0.0,0.0,1650847785751596.0
0.0,1.0,4.0,11.0,0.0,0.0,-2.0,-2.0,1650847785752594.0
1.0,-1.0,0.0,-4.0,-2.0,1.0,-2.0,-1.0,1650847785752594.0
1.0,2.0,1.0,0.0,-2.0,-2.0,0.0,-1.0,1650847785774702.0
-2.0,-1.0,-4.0,-3.0,1.0,-1.0,-1.0,-1.0,1650847785774702.0
-2.0,-1.0,-10.0,-14.0,-5.0,-1.0,0.0,0.0,1650847785774702.0
-1.0,0.0,2.0,7.0,5.0,1.0,0.0,0.0,1650847785774702.0
-1.0,2.0,1.0,-2.0,-1.0,-2.0,0.0,0.0,1650847785788730.0
0.0,-1.0,2.0,5.0,-2.0,-1.0,-3.0,-1.0,1650847785788730.0
1.0,-1.0,1.0,-3.0,-1.0,0.0,0.0,-1.0,1650847785796670.0
0.0,3.0,-4.0,-10.0,-7.0,-2.0,0.0,-2.0,1650847785796670.0
0.0,1.0,8.0,8.0,5.0,1.0,1.0,1.0,1650847785811984.0
-1.0,0.0,-3.0,-8.0,-5.0,-2.0,1.0,1.0,1650847785811984.0
1.0,2.0,-1.0,12.0,3.0,0.0,0.0,2.0,1650847785812925.0
-3.0,-4.0,-3.0,-7.0,-3.0,-1.0,-1.0,-2.0,1650847785812925.0
1.0,0.0,-3.0,-5.0,-5.0,0.0,0.0,-1.0,1650847785833924.0
1.0,0.0,2.0,6.0,2.0,-1.0,0.0,0.0,1650847785833924.0
-1.0,0.0,4.0,0.0,0.0,0.0,0.0,0.0,1650847785834864.0
-1.0,-2.0,-2.0,-5.0,-1.0,-1.0,0.0,0.0,1650847785834864.0
-1.0,-2.0,-2.0,4.0,-1.0,-1.0,-4.0,-1.0,1650847785848946.0
3.0,2.0,-1.0,-10.0,-1.0,2.0,-1.0,2.0,1650847785848946.0
-1.0,-1.0,0.0,2.0,2.0,1.0,0.0,0.0,1650847785856753.0
-1.0,2.0,3.0,3.0,0.0,-3.0,1.0,0.0,1650847785856753.0
-1.0,-1.0,1.0,1.0,2.0,2.0,1.0,0.0,1650847785871781.0
0.0,0.0,-2.0,0.0,-2.0,-1.0,0.0,-1.0,1650847785871781.0
1.0,-1.0,1.0,-1.0,0.0,-2.0,-1.0,0.0,1650847785872712.0
-2.0,0.0,-5.0,-6.0,-4.0,-1.0,0.0,0.0,1650847785872712.0
-1.0,-1.0,1.0,4.0,3.0,0.0,-1.0,-2.0,1650847785894652.0
-1.0,-1.0,-2.0,3.0,-4.0,-2.0,0.0,-2.0,1650847785894652.0
0.0,1.0,-1.0,-2.0,3.0,1.0,-1.0,1.0,1650847785894652.0
-2.0,0.0,0.0,-1.0,0.0,0.0,0.0,0.0,1650847785894652.0
-1.0,-1.0,-2.0,0.0,-2.0,0.0,0.0,0.0,1650847785917795.0
-2.0,1.0,0.0,6.0,0.0,-1.0,-1.0,-2.0,1650847785917795.0
0.0,0.0,4.0,5.0,3.0,-2.0,-2.0,-2.0,1650847785917795.0
-1.0,-4.0,4.0,5.0,-1.0,0.0,-2.0,-2.0,1650847785917795.0
0.0,0.0,-7.0,-15.0,-9.0,-1.0,-2.0,0.0,1650847785931826.0
-1.0,1.0,5.0,4.0,2.0,1.0,0.0,0.0,1650847785931826.0
-2.0,-1.0,-8.0,-8.0,-2.0,0.0,0.0,0.0,1650847785939735.0
0.0,1.0,4.0,4.0,1.0,0.0,-1.0,0.0,1650847785939735.0
2.0,-2.0,-1.0,3.0,4.0,-1.0,-1.0,-1.0,1650847785954697.0
0.0,0.0,2.0,-1.0,-1.0,-1.0,-1.0,-2.0,1650847785954697.0
0.0,-1.0,4.0,2.0,-2.0,-1.0,-1.0,-2.0,1650847785954697.0
1.0,0.0,-6.0,2.0,2.0,0.0,0.0,0.0,1650847785954697.0
0.0,1.0,2.0,-4.0,-4.0,-2.0,0.0,0.0,1650847785977816.0
1.0,-1.0,0.0,4.0,1.0,-2.0,1.0,0.0,1650847785977816.0
-1.0,0.0,-1.0,-3.0,-2.0,0.0,0.0,0.0,1650847785977816.0
0.0,0.0,0.0,-5.0,-2.0,1.0,-2.0,-1.0,1650847785977816.0
-3.0,-2.0,-5.0,-3.0,-2.0,-1.0,0.0,0.0,1650847785991788.0
-1.0,0.0,5.0,-1.0,0.0,1.0,0.0,1.0,1650847785991788.0
-1.0,-2.0,-2.0,1.0,1.0,1.0,1.0,-1.0,1650847785992779.0
0.0,-1.0,2.0,2.0,0.0,-1.0,-1.0,0.0,1650847785992779.0
0.0,-1.0,-4.0,-9.0,-5.0,-2.0,-1.0,-2.0,1650847786013722.0
0.0,-1.0,-1.0,13.0,3.0,0.0,-1.0,0.0,1650847786013722.0
-2.0,-2.0,-1.0,-2.0,-5.0,-1.0,0.0,-1.0,1650847786014721.0
0.0,-2.0,-1.0,-1.0,6.0,1.0,1.0,1.0,1650847786014721.0
1.0,0.0,5.0,1.0,0.0,-1.0,-1.0,0.0,1650847786037659.0
0.0,-3.0,-3.0,-4.0,-1.0,-1.0,0.0,-1.0,1650847786037659.0
1.0,1.0,2.0,1.0,0.0,-1.0,-1.0,-1.0,1650847786037659.0
-1.0,0.0,-1.0,5.0,-1.0,-2.0,-1.0,0.0,1650847786037659.0
-1.0,1.0,-3.0,-11.0,-6.0,-2.0,-1.0,0.0,1650847786051622.0
-1.0,-1.0,1.0,4.0,7.0,1.0,0.0,0.0,1650847786051622.0
-1.0,-1.0,-1.0,-2.0,-2.0,-2.0,-1.0,-2.0,1650847786052619.0
1.0,0.0,0.0,-1.0,0.0,-2.0,-1.0,-1.0,1650847786052619.0
0.0,-3.0,1.0,4.0,1.0,0.0,1.0,-1.0,1650847786074753.0
0.0,-3.0,-3.0,-7.0,-5.0,-2.0,-2.0,-2.0,1650847786074753.0
-2.0,-1.0,-2.0,-4.0,-1.0,0.0,-1.0,-1.0,1650847786074753.0
-1.0,0.0,4.0,5.0,4.0,1.0,0.0,0.0,1650847786074753.0
0.0,2.0,-3.0,-1.0,-3.0,0.0,-2.0,1.0,1650847786097757.0
0.0,1.0,-1.0,-4.0,1.0,1.0,-1.0,1.0,1650847786097757.0
0.0,-1.0,-2.0,0.0,-2.0,0.0,-2.0,-1.0,1650847786097757.0
0.0,0.0,-1.0,-2.0,-3.0,0.0,-2.0,-2.0,1650847786097757.0
-1.0,-1.0,-1.0,-6.0,-3.0,-1.0,0.0,0.0,1650847786112153.0
0.0,-2.0,-3.0,-3.0,-2.0,0.0,-1.0,-1.0,1650847786112153.0
1.0,2.0,5.0,15.0,5.0,1.0,0.0,1.0,1650847786112153.0
-2.0,-3.0,-7.0,-10.0,-5.0,-2.0,-1.0,0.0,1650847786112153.0
-1.0,-2.0,1.0,2.0,2.0,-1.0,1.0,-2.0,1650847786134162.0
-3.0,-2.0,-3.0,-11.0,-6.0,-2.0,0.0,-1.0,1650847786134162.0
0.0,0.0,4.0,3.0,5.0,1.0,1.0,-2.0,1650847786135093.0
1.0,-1.0,-2.0,-2.0,-2.0,0.0,-1.0,-1.0,1650847786135093.0
0.0,0.0,-2.0,7.0,2.0,1.0,-1.0,0.0,1650847786157153.0
-1.0,1.0,0.0,-2.0,-5.0,-3.0,0.0,-2.0,1650847786157153.0
0.0,-2.0,-4.0,0.0,3.0,-1.0,1.0,0.0,1650847786158153.0
-1.0,1.0,3.0,-5.0,1.0,0.0,1.0,0.0,1650847786158153.0
-2.0,-2.0,0.0,2.0,1.0,2.0,0.0,-1.0,1650847786172116.0
1.0,-1.0,0.0,4.0,1.0,-2.0,0.0,-2.0,1650847786172116.0
-1.0,-1.0,-5.0,-9.0,-4.0,-2.0,-1.0,0.0,1650847786172116.0
-1.0,-1.0,2.0,1.0,-3.0,-1.0,-1.0,0.0,1650847786172116.0
1.0,1.0,-1.0,-3.0,0.0,-1.0,-2.0,0.0,1650847786194124.0
0.0,0.0,2.0,-1.0,-2.0,1.0,-1.0,-1.0,1650847786194124.0
0.0,-2.0,-5.0,3.0,5.0,2.0,0.0,-1.0,1650847786195054.0
-3.0,0.0,-1.0,1.0,0.0,1.0,1.0,0.0,1650847786195054.0
-1.0,0.0,2.0,-3.0,-2.0,-3.0,-2.0,-1.0,1650847786217852.0
0.0,-1.0,-2.0,-6.0,-2.0,-2.0,0.0,0.0,1650847786217852.0
0.0,2.0,3.0,9.0,0.0,0.0,0.0,-1.0,1650847786217852.0
0.0,-2.0,-3.0,-3.0,-2.0,-1.0,0.0,1.0,1650847786217852.0
1.0,0.0,2.0,12.0,3.0,1.0,0.0,-3.0,1650847786231884.0
0.0,1.0,-3.0,-1.0,5.0,1.0,-1.0,1.0,1650847786231884.0
-2.0,-4.0,-3.0,-11.0,-7.0,-2.0,-1.0,-1.0,1650847786232864.0
0.0,2.0,4.0,3.0,1.0,-2.0,-1.0,-1.0,1650847786232864.0
-1.0,-2.0,-1.0,-6.0,-3.0,-1.0,0.0,0.0,1650847786254017.0
-1.0,-2.0,-4.0,-2.0,0.0,0.0,-1.0,0.0,1650847786254017.0
0.0,-1.0,-6.0,-9.0,-6.0,-3.0,0.0,-1.0,1650847786254948.0
0.0,-1.0,2.0,6.0,3.0,-1.0,-2.0,1.0,1650847786254948.0
-1.0,0.0,2.0,-2.0,0.0,1.0,2.0,0.0,1650847786277126.0
-1.0,0.0,0.0,1.0,-2.0,-1.0,-1.0,-1.0,1650847786277126.0
-1.0,-2.0,-1.0,-3.0,1.0,0.0,1.0,-1.0,1650847786278094.0
0.0,0.0,3.0,0.0,-4.0,-1.0,-1.0,-1.0,1650847786278094.0
-1.0,0.0,1.0,5.0,2.0,-1.0,-1.0,-1.0,1650847786292091.0
-1.0,-2.0,5.0,2.0,1.0,0.0,-1.0,-1.0,1650847786292091.0
-1.0,0.0,-4.0,-7.0,-6.0,-1.0,-2.0,0.0,1650847786292091.0
0.0,-1.0,-4.0,-6.0,1.0,1.0,0.0,-1.0,1650847786292091.0
-1.0,0.0,-5.0,-4.0,-4.0,-2.0,-2.0,0.0,1650847786314096.0
-1.0,1.0,3.0,4.0,1.0,0.0,1.0,0.0,1650847786314096.0
0.0,-4.0,2.0,2.0,0.0,-1.0,0.0,1.0,1650847786315088.0
0.0,-3.0,-2.0,0.0,0.0,-2.0,0.0,-2.0,1650847786315088.0
-1.0,-1.0,1.0,1.0,0.0,-2.0,0.0,0.0,1650847786337416.0
-1.0,0.0,-3.0,-3.0,-1.0,-2.0,0.0,-1.0,1650847786337416.0
-1.0,3.0,-1.0,-2.0,-1.0,-1.0,-1.0,0.0,1650847786338348.0
-1.0,-1.0,-2.0,-4.0,-3.0,-2.0,0.0,-3.0,1650847786338348.0
-2.0,-1.0,1.0,-2.0,0.0,-1.0,1.0,2.0,1650847786351817.0
-2.0,-2.0,4.0,10.0,2.0,1.0,0.0,2.0,1650847786351817.0
-1.0,-1.0,-1.0,-3.0,1.0,0.0,-1.0,1.0,1650847786352812.0
0.0,-1.0,-2.0,-11.0,-9.0,-3.0,-2.0,0.0,1650847786352812.0
1.0,1.0,2.0,9.0,8.0,4.0,1.0,0.0,1650847786373841.0
0.0,1.0,5.0,-1.0,-3.0,-1.0,-1.0,0.0,1650847786373841.0
0.0,1.0,-8.0,-6.0,-4.0,1.0,-2.0,1.0,1650847786374854.0
-2.0,-2.0,-5.0,-2.0,2.0,0.0,1.0,1.0,1650847786374854.0
-3.0,-3.0,-4.0,-5.0,-7.0,-1.0,-1.0,-2.0,1650847786397917.0
0.0,0.0,1.0,2.0,2.0,0.0,0.0,-2.0,1650847786397917.0
2.0,0.0,10.0,1.0,1.0,2.0,1.0,-1.0,1650847786397917.0
0.0,0.0,0.0,1.0,-2.0,-1.0,-1.0,0.0,1650847786397917.0
-1.0,-3.0,-7.0,-5.0,-2.0,-2.0,-1.0,-1.0,1650847786411930.0
0.0,-1.0,2.0,7.0,5.0,0.0,0.0,1.0,1650847786411930.0
-1.0,-1.0,-4.0,-6.0,-4.0,-2.0,0.0,0.0,1650847786412895.0
1.0,0.0,3.0,1.0,-5.0,-2.0,-1.0,0.0,1650847786412895.0
-1.0,0.0,-3.0,-3.0,-1.0,-1.0,1.0,0.0,1650847786433972.0
0.0,1.0,-2.0,-8.0,-6.0,-3.0,-2.0,-4.0,1650847786433972.0
0.0,1.0,0.0,-5.0,1.0,-2.0,1.0,-2.0,1650847786434902.0
0.0,-1.0,-1.0,9.0,1.0,-1.0,-2.0,1.0,1650847786434902.0
1.0,1.0,4.0,-1.0,-1.0,0.0,-1.0,-1.0,1650847786457051.0
-1.0,-2.0,-4.0,-3.0,-2.0,-2.0,-1.0,-1.0,1650847786457051.0
-1.0,2.0,2.0,0.0,-3.0,-1.0,-1.0,-1.0,1650847786458016.0
-1.0,-1.0,-6.0,-5.0,2.0,0.0,1.0,-2.0,1650847786458016.0
-1.0,-1.0,2.0,2.0,3.0,-2.0,-1.0,0.0,1650847786472145.0
-1.0,0.0,0.0,0.0,-2.0,-1.0,-2.0,-1.0,1650847786472145.0
0.0,0.0,0.0,-2.0,-4.0,-1.0,-1.0,1.0,1650847786472145.0
0.0,-1.0,1.0,1.0,2.0,1.0,1.0,-2.0,1650847786472145.0
2.0,1.0,2.0,9.0,7.0,1.0,-2.0,1.0,1650847786493854.0
-1.0,-3.0,-8.0,-11.0,-9.0,-2.0,-1.0,-1.0,1650847786493854.0
-1.0,-1.0,-3.0,3.0,1.0,1.0,-1.0,-2.0,1650847786494790.0
-1.0,1.0,2.0,9.0,2.0,1.0,0.0,-1.0,1650847786494790.0
1.0,-1.0,0.0,-5.0,-6.0,-3.0,0.0,-2.0,1650847786517790.0
1.0,-1.0,-3.0,1.0,3.0,0.0,0.0,1.0,1650847786517790.0
1.0,-1.0,1.0,-3.0,-3.0,-2.0,-1.0,-2.0,1650847786517790.0
0.0,0.0,-2.0,1.0,1.0,0.0,-1.0,-2.0,1650847786517790.0
-2.0,0.0,-1.0,0.0,-1.0,1.0,0.0,-1.0,1650847786531753.0
-2.0,1.0,-1.0,-7.0,-4.0,1.0,0.0,1.0,1650847786531753.0
-3.0,-5.0,-3.0,7.0,0.0,-1.0,2.0,-1.0,1650847786532684.0
1.0,0.0,4.0,3.0,1.0,0.0,1.0,0.0,1650847786532684.0
-1.0,2.0,-1.0,-4.0,0.0,-1.0,1.0,-1.0,1650847786554254.0
1.0,0.0,-4.0,-8.0,-4.0,-2.0,0.0,-2.0,1650847786554254.0
-1.0,-1.0,0.0,3.0,4.0,0.0,0.0,-1.0,1650847786555185.0
0.0,1.0,2.0,1.0,1.0,0.0,-1.0,0.0,1650847786555185.0
-1.0,-2.0,0.0,-5.0,-5.0,0.0,-1.0,-1.0,1650847786577193.0
1.0,0.0,0.0,1.0,1.0,-2.0,-2.0,1.0,1650847786577193.0
0.0,2.0,-1.0,2.0,1.0,0.0,-2.0,-1.0,1650847786578124.0
0.0,1.0,1.0,-8.0,-5.0,-3.0,-1.0,1.0,1650847786578124.0
1.0,-1.0,-2.0,0.0,0.0,0.0,0.0,-2.0,1650847786590877.0
1.0,-2.0,0.0,7.0,5.0,2.0,1.0,-1.0,1650847786590877.0
-1.0,0.0,-1.0,3.0,-1.0,-1.0,0.0,0.0,1650847786598977.0
-1.0,-1.0,-2.0,-3.0,1.0,-1.0,-1.0,-2.0,1650847786598977.0
0.0,0.0,0.0,-4.0,-2.0,-2.0,0.0,-1.0,1650847786613842.0
-1.0,-3.0,0.0,-3.0,-2.0,-1.0,1.0,0.0,1650847786613842.0
-1.0,-2.0,-1.0,4.0,-1.0,0.0,-1.0,0.0,1650847786614842.0
-2.0,-1.0,1.0,-5.0,0.0,1.0,1.0,0.0,1650847786614842.0
0.0,-2.0,-2.0,6.0,3.0,-1.0,-1.0,0.0,1650847786644850.0
1.0,1.0,1.0,1.0,-1.0,0.0,0.0,1.0,1650847786644850.0
-2.0,1.0,-5.0,-11.0,-5.0,-1.0,0.0,-2.0,1650847786645779.0
1.0,-2.0,6.0,17.0,3.0,1.0,0.0,1.0,1650847786645779.0
-1.0,-2.0,-4.0,-5.0,-2.0,-1.0,-1.0,-1.0,1650847786650766.0
-2.0,-2.0,-8.0,-12.0,-3.0,0.0,1.0,-2.0,1650847786650766.0
1.0,-2.0,0.0,0.0,0.0,-1.0,-1.0,0.0,1650847786675765.0
1.0,-1.0,-1.0,-5.0,-5.0,-1.0,0.0,0.0,1650847786675765.0
-1.0,1.0,4.0,7.0,3.0,-1.0,-2.0,-3.0,1650847786676697.0
0.0,0.0,1.0,2.0,-2.0,-1.0,-2.0,-1.0,1650847786676697.0
1.0,-2.0,-1.0,-4.0,0.0,-1.0,-2.0,-1.0,1650847786677695.0
-2.0,0.0,-2.0,-1.0,0.0,1.0,-1.0,-1.0,1650847786677695.0
-1.0,0.0,-3.0,-4.0,-3.0,-2.0,0.0,1.0,1650847786697758.0
-1.0,0.0,-1.0,-3.0,0.0,-2.0,0.0,-1.0,1650847786697758.0
0.0,-1.0,-1.0,1.0,3.0,0.0,0.0,-2.0,1650847786697758.0
-2.0,1.0,-1.0,-4.0,-1.0,1.0,-1.0,-1.0,1650847786697758.0
0.0,1.0,1.0,1.0,-1.0,2.0,0.0,0.0,1650847786710905.0
-2.0,-1.0,-1.0,0.0,2.0,0.0,-2.0,0.0,1650847786710905.0
1.0,1.0,2.0,-2.0,-3.0,-1.0,-1.0,1.0,1650847786718883.0
0.0,0.0,-4.0,6.0,6.0,1.0,-1.0,1.0,1650847786718883.0
0.0,0.0,6.0,4.0,2.0,1.0,0.0,1.0,1650847786733844.0
1.0,0.0,0.0,-2.0,-1.0,0.0,0.0,-3.0,1650847786733844.0
-1.0,-1.0,-3.0,-1.0,-1.0,-1.0,0.0,0.0,1650847786734774.0
-1.0,0.0,-3.0,-7.0,-4.0,-2.0,-1.0,0.0,1650847786734774.0
-3.0,-2.0,0.0,3.0,-1.0,1.0,1.0,0.0,1650847786756869.0
-1.0,-1.0,0.0,5.0,2.0,-1.0,0.0,-1.0,1650847786756869.0
0.0,-1.0,3.0,-3.0,-3.0,-2.0,-1.0,-1.0,1650847786757824.0
0.0,-1.0,-5.0,-6.0,-5.0,-2.0,-2.0,-1.0,1650847786757824.0
-1.0,0.0,3.0,13.0,8.0,2.0,0.0,-1.0,1650847786770830.0
-2.0,-1.0,1.0,0.0,-3.0,-3.0,-3.0,-1.0,1650847786770830.0
0.0,-1.0,-1.0,-2.0,-1.0,-1.0,-1.0,-1.0,1650847786779752.0
1.0,-1.0,0.0,-2.0,-1.0,-1.0,0.0,-1.0,1650847786779752.0
-1.0,-2.0,-5.0,-5.0,-4.0,-2.0,-3.0,-1.0,1650847786793889.0
0.0,0.0,-1.0,-4.0,-2.0,1.0,-1.0,0.0,1650847786793889.0
-2.0,-1.0,-1.0,-4.0,-4.0,-1.0,-2.0,-1.0,1650847786794819.0
-1.0,0.0,3.0,10.0,4.0,0.0,2.0,-2.0,1650847786794819.0
0.0,0.0,-5.0,-10.0,-3.0,-2.0,-1.0,1.0,1650847786816827.0
0.0,-1.0,-1.0,-1.0,1.0,-1.0,1.0,1.0,1650847786816827.0
0.0,-1.0,5.0,6.0,0.0,1.0,1.0,1.0,1650847786817759.0
-1.0,-4.0,-4.0,-10.0,-4.0,0.0,-1.0,0.0,1650847786817759.0
-1.0,0.0,-4.0,1.0,-3.0,0.0,1.0,0.0,1650847786830792.0
-1.0,0.0,-1.0,-1.0,-2.0,-1.0,-1.0,1.0,1650847786830792.0
-1.0,-1.0,0.0,1.0,2.0,-1.0,0.0,0.0,1650847786839719.0
1.0,-1.0,4.0,8.0,6.0,0.0,0.0,-1.0,1650847786839719.0
-1.0,-3.0,-4.0,-10.0,-3.0,-1.0,-2.0,-1.0,1650847786853801.0
1.0,1.0,1.0,4.0,2.0,0.0,-1.0,0.0,1650847786853801.0
-1.0,0.0,-5.0,-4.0,-4.0,-2.0,-1.0,0.0,1650847786854812.0
-2.0,0.0,0.0,5.0,4.0,-1.0,-1.0,-1.0,1650847786854812.0
2.0,1.0,3.0,4.0,3.0,-3.0,-1.0,-3.0,1650847786876898.0
1.0,1.0,2.0,5.0,0.0,0.0,2.0,0.0,1650847786876898.0
-1.0,-1.0,-3.0,-3.0,1.0,1.0,0.0,-1.0,1650847786877855.0
-2.0,0.0,-1.0,0.0,-5.0,-2.0,0.0,1.0,1650847786877855.0
-1.0,0.0,-3.0,-1.0,1.0,0.0,0.0,-1.0,1650847786899950.0
-3.0,0.0,0.0,-5.0,0.0,-1.0,-1.0,-2.0,1650847786899950.0
2.0,1.0,2.0,11.0,4.0,2.0,-2.0,-1.0,1650847786900880.0
-1.0,-1.0,-1.0,-4.0,-2.0,-1.0,-1.0,0.0,1650847786900880.0
1.0,-1.0,-1.0,-4.0,-5.0,-2.0,0.0,0.0,1650847786914307.0
-1.0,0.0,1.0,5.0,0.0,0.0,1.0,-1.0,1650847786914307.0
-1.0,0.0,0.0,-3.0,-1.0,2.0,0.0,-2.0,1650847786915267.0
1.0,0.0,-2.0,-2.0,-3.0,-2.0,-1.0,-1.0,1650847786915267.0
-2.0,-1.0,0.0,-6.0,-6.0,-2.0,-2.0,0.0,1650847786936847.0
-3.0,-1.0,-1.0,6.0,3.0,2.0,-1.0,1.0,1650847786936847.0
0.0,2.0,7.0,9.0,2.0,2.0,2.0,2.0,1650847786937861.0
0.0,-1.0,-4.0,-9.0,-5.0,0.0,-1.0,-2.0,1650847786937861.0
-1.0,0.0,1.0,-1.0,-1.0,-1.0,0.0,-2.0,1650847786960095.0
-1.0,-1.0,-3.0,-8.0,-6.0,-3.0,-2.0,-1.0,1650847786960095.0
-1.0,1.0,-8.0,-1.0,6.0,-1.0,0.0,0.0,1650847786961027.0
-2.0,-3.0,0.0,2.0,-2.0,-1.0,-1.0,-3.0,1650847786961027.0
1.0,2.0,1.0,-4.0,-1.0,-1.0,-1.0,0.0,1650847786982164.0
-1.0,-1.0,-2.0,-8.0,-5.0,0.0,-1.0,-1.0,1650847786982164.0
0.0,0.0,2.0,9.0,2.0,0.0,1.0,0.0,1650847786983095.0
1.0,1.0,-2.0,-7.0,-5.0,-1.0,1.0,0.0,1650847786983095.0
0.0,-1.0,-4.0,-4.0,-1.0,-1.0,-1.0,-2.0,1650847786997118.0
0.0,-1.0,1.0,1.0,0.0,0.0,-2.0,-2.0,1650847786997118.0
-1.0,-2.0,-3.0,-7.0,-2.0,-3.0,-1.0,-1.0,1650847786997118.0
2.0,2.0,8.0,4.0,4.0,0.0,0.0,0.0,1650847786997118.0
1.0,-2.0,-7.0,-7.0,-3.0,-2.0,0.0,1.0,1650847787019743.0
-1.0,-1.0,-1.0,-2.0,-1.0,-1.0,0.0,0.0,1650847787019743.0
1.0,-1.0,-3.0,-3.0,-3.0,-2.0,-3.0,-2.0,1650847787020749.0
-1.0,0.0,0.0,3.0,2.0,1.0,0.0,2.0,1650847787020749.0
-1.0,-2.0,0.0,1.0,-1.0,-2.0,0.0,0.0,1650847787034709.0
-1.0,1.0,-1.0,6.0,4.0,1.0,1.0,1.0,1650847787034709.0
-1.0,-3.0,-2.0,-6.0,-5.0,-2.0,0.0,-2.0,1650847787034709.0
-1.0,0.0,-1.0,1.0,5.0,2.0,-1.0,0.0,1650847787034709.0
2.0,1.0,1.0,-1.0,-4.0,0.0,-1.0,0.0,1650847787056830.0
-1.0,-1.0,-5.0,-1.0,0.0,0.0,0.0,-1.0,1650847787056830.0
-1.0,-2.0,1.0,-3.0,-4.0,-1.0,-1.0,0.0,1650847787057762.0
-1.0,1.0,-1.0,5.0,3.0,-2.0,0.0,-1.0,1650847787057762.0
-2.0,-3.0,-1.0,-6.0,-1.0,0.0,1.0,-2.0,1650847787080346.0
1.0,0.0,0.0,3.0,-1.0,-1.0,-2.0,0.0,1650847787080346.0
0.0,1.0,1.0,-2.0,-3.0,0.0,-2.0,1.0,1650847787080346.0
-2.0,-3.0,-4.0,-4.0,-6.0,-1.0,-1.0,-2.0,1650847787080346.0
-2.0,0.0,-3.0,-4.0,0.0,0.0,-1.0,-3.0,1650847787094331.0
1.0,-2.0,-1.0,1.0,-1.0,0.0,1.0,1.0,1650847787094331.0
0.0,2.0,2.0,5.0,3.0,0.0,2.0,-1.0,1650847787095262.0
1.0,1.0,-6.0,-18.0,-3.0,-2.0,-2.0,0.0,1650847787095262.0
-1.0,-2.0,-1.0,5.0,-2.0,-1.0,1.0,-2.0,1650847787116387.0
0.0,1.0,4.0,4.0,6.0,2.0,1.0,-1.0,1650847787116387.0
1.0,-1.0,-3.0,-3.0,-1.0,1.0,-1.0,0.0,1650847787117358.0
1.0,-2.0,1.0,4.0,-2.0,-2.0,-3.0,2.0,1650847787117358.0
0.0,1.0,2.0,0.0,-1.0,-2.0,0.0,0.0,1650847787139834.0
0.0,-1.0,0.0,4.0,6.0,0.0,0.0,-1.0,1650847787139834.0
-4.0,-3.0,-3.0,-3.0,-1.0,-1.0,-1.0,0.0,1650847787140833.0
-3.0,0.0,1.0,6.0,3.0,2.0,2.0,-1.0,1650847787140833.0
0.0,1.0,4.0,7.0,2.0,2.0,-2.0,-1.0,1650847787153799.0
-1.0,-2.0,-2.0,-6.0,-6.0,-3.0,-2.0,-1.0,1650847787153799.0
1.0,1.0,-2.0,-3.0,2.0,-1.0,1.0,-2.0,1650847787154809.0
1.0,0.0,-3.0,0.0,-1.0,-1.0,0.0,-1.0,1650847787154809.0
-2.0,-1.0,0.0,-1.0,0.0,0.0,0.0,-1.0,1650847787176889.0
2.0,2.0,2.0,7.0,4.0,0.0,0.0,-1.0,1650847787176889.0
0.0,-2.0,-1.0,2.0,3.0,-2.0,-2.0,-1.0,1650847787177907.0
-1.0,-5.0,-2.0,-3.0,-3.0,-1.0,0.0,0.0,1650847787177907.0
2.0,5.0,-1.0,-3.0,0.0,0.0,1.0,2.0,1650847787199828.0
-1.0,-2.0,1.0,-3.0,-8.0,0.0,-2.0,-2.0,1650847787199828.0
0.0,0.0,-3.0,0.0,-3.0,0.0,0.0,-1.0,1650847787200485.0
2.0,-1.0,1.0,-1.0,0.0,-1.0,-1.0,0.0,1650847787200485.0
-1.0,-3.0,-3.0,3.0,2.0,-1.0,-1.0,0.0,1650847787213840.0
-1.0,-1.0,-3.0,-3.0,-2.0,-1.0,-1.0,-2.0,1650847787213840.0
-1.0,1.0,3.0,-2.0,-5.0,1.0,0.0,0.0,1650847787214840.0
-3.0,0.0,-3.0,2.0,0.0,1.0,-1.0,0.0,1650847787214840.0
0.0,0.0,2.0,1.0,2.0,1.0,-2.0,0.0,1650847787236854.0
-1.0,-2.0,-4.0,-7.0,-4.0,-1.0,0.0,0.0,1650847787236854.0
-2.0,-4.0,-2.0,-5.0,-1.0,-2.0,0.0,2.0,1650847787237808.0
1.0,1.0,4.0,8.0,-1.0,-2.0,1.0,0.0,1650847787237808.0
-1.0,1.0,3.0,12.0,8.0,3.0,1.0,0.0,1650847787259932.0
0.0,-1.0,-7.0,-7.0,-1.0,-2.0,-2.0,0.0,1650847787259932.0
-1.0,2.0,0.0,-4.0,-1.0,-1.0,-2.0,-1.0,1650847787260860.0
-2.0,1.0,3.0,3.0,0.0,1.0,0.0,0.0,1650847787260860.0
-1.0,-5.0,-4.0,-15.0,-11.0,-5.0,-1.0,-1.0,1650847787273891.0
1.0,0.0,6.0,21.0,8.0,2.0,0.0,0.0,1650847787273891.0
0.0,2.0,1.0,-6.0,1.0,1.0,-1.0,-1.0,1650847787274825.0
-1.0,-13.0,-8.0,-6.0,-4.0,-1.0,0.0,-2.0,1650847787274825.0
-2.0,1.0,-4.0,-3.0,-3.0,-3.0,0.0,0.0,1650847787296829.0
-1.0,1.0,-3.0,-7.0,-6.0,-1.0,-1.0,-1.0,1650847787296829.0
3.0,-1.0,6.0,13.0,4.0,0.0,0.0,0.0,1650847787297761.0
0.0,4.0,4.0,-2.0,-2.0,-2.0,-1.0,0.0,1650847787297761.0
0.0,-1.0,-2.0,0.0,-2.0,0.0,-3.0,-1.0,1650847787319801.0
-3.0,0.0,-3.0,-8.0,-2.0,-1.0,0.0,1.0,1650847787319801.0
-4.0,-10.0,-2.0,-4.0,-4.0,-2.0,0.0,-1.0,1650847787320801.0
3.0,24.0,1.0,-9.0,-8.0,-3.0,-1.0,0.0,1650847787320801.0
-5.0,-33.0,-7.0,13.0,13.0,3.0,-1.0,-2.0,1650847787333832.0
7.0,13.0,7.0,-6.0,-2.0,-1.0,-1.0,1.0,1650847787333832.0
-13.0,-59.0,-13.0,-8.0,-11.0,-3.0,-1.0,-3.0,1650847787341810.0
20.0,110.0,31.0,13.0,10.0,5.0,-1.0,1.0,1650847787341810.0
-6.0,-59.0,-4.0,12.0,12.0,0.0,-6.0,-2.0,1650847787357204.0
-6.0,-16.0,-11.0,-6.0,-6.0,-3.0,5.0,2.0,1650847787357204.0
21.0,9.0,0.0,-10.0,0.0,6.0,9.0,13.0,1650847787357204.0
-10.0,-56.0,-13.0,-11.0,-5.0,-4.0,-3.0,-10.0,1650847787357204.0
-24.0,59.0,11.0,-1.0,-5.0,-5.0,0.0,-4.0,1650847787380246.0
1.0,-6.0,3.0,-1.0,-1.0,-2.0,-7.0,-5.0,1650847787380246.0
-2.0,25.0,7.0,4.0,1.0,-6.0,-27.0,-15.0,1650847787380246.0
1.0,-25.0,-9.0,3.0,2.0,6.0,11.0,6.0,1650847787380246.0
20.0,37.0,19.0,1.0,1.0,4.0,36.0,18.0,1650847787394223.0
-12.0,-52.0,-27.0,-13.0,-2.0,3.0,3.0,1.0,1650847787394223.0
2.0,22.0,16.0,25.0,10.0,6.0,0.0,8.0,1650847787395194.0
-12.0,-14.0,-15.0,-13.0,-17.0,-20.0,-14.0,-17.0,1650847787395194.0
4.0,-19.0,2.0,-2.0,-10.0,-5.0,-32.0,-15.0,1650847787417214.0
4.0,23.0,-2.0,-14.0,-1.0,4.0,26.0,9.0,1650847787417214.0
0.0,13.0,5.0,31.0,14.0,9.0,11.0,0.0,1650847787417214.0
1.0,-7.0,5.0,0.0,0.0,3.0,-12.0,3.0,1650847787417214.0
1.0,-5.0,-10.0,-13.0,-6.0,1.0,-1.0,1.0,1650847787440246.0
2.0,17.0,12.0,16.0,5.0,-4.0,-14.0,-6.0,1650847787440246.0
-2.0,-3.0,-4.0,-13.0,-4.0,0.0,5.0,2.0,1650847787440246.0
5.0,9.0,18.0,32.0,19.0,9.0,9.0,6.0,1650847787440246.0
-9.0,-26.0,-22.0,-10.0,-7.0,-3.0,0.0,-2.0,1650847787454141.0
6.0,10.0,9.0,1.0,-3.0,-1.0,-9.0,3.0,1650847787454141.0
-3.0,11.0,0.0,-11.0,-10.0,-3.0,1.0,-9.0,1650847787455167.0
-2.0,-4.0,-4.0,-6.0,0.0,1.0,10.0,8.0,1650847787455167.0
2.0,10.0,-2.0,-16.0,0.0,-5.0,-38.0,-17.0,1650847787477186.0
-13.0,-14.0,-2.0,9.0,3.0,-3.0,-9.0,-1.0,1650847787477186.0
16.0,14.0,10.0,15.0,7.0,12.0,77.0,40.0,1650847787477186.0
-25.0,-30.0,-11.0,-3.0,-7.0,-5.0,-12.0,-14.0,1650847787477186.0
-6.0,-16.0,-21.0,-15.0,-8.0,-9.0,-17.0,-5.0,1650847787500380.0
3.0,32.0,23.0,26.0,20.0,12.0,-21.0,-26.0,1650847787500380.0
8.0,22.0,-5.0,-16.0,-9.0,-8.0,-15.0,-2.0,1650847787500380.0
9.0,-11.0,1.0,2.0,4.0,10.0,41.0,34.0,1650847787500380.0
4.0,6.0,9.0,14.0,4.0,7.0,0.0,-5.0,1650847787513245.0
-10.0,-45.0,-21.0,-14.0,-12.0,-10.0,-8.0,-2.0,1650847787513245.0
1.0,26.0,-10.0,-32.0,-18.0,-11.0,-19.0,-13.0,1650847787522220.0
5.0,-3.0,22.0,19.0,12.0,8.0,6.0,6.0,1650847787522220.0
1.0,6.0,11.0,23.0,20.0,8.0,6.0,8.0,1650847787537217.0
2.0,-19.0,-10.0,-14.0,-13.0,-3.0,14.0,9.0,1650847787537217.0
-20.0,-14.0,1.0,2.0,5.0,-11.0,-47.0,-32.0,1650847787537217.0
6.0,3.0,14.0,4.0,0.0,3.0,-10.0,-7.0,1650847787537217.0
6.0,46.0,2.0,-13.0,-15.0,-9.0,20.0,5.0,1650847787559892.0
-6.0,-24.0,13.0,23.0,18.0,11.0,-10.0,-10.0,1650847787559892.0
24.0,39.0,1.0,1.0,5.0,4.0,23.0,33.0,1650847787560891.0
-20.0,-34.0,-32.0,-26.0,-18.0,-12.0,-11.0,-8.0,1650847787560891.0
1.0,-9.0,13.0,30.0,18.0,9.0,3.0,0.0,1650847787573923.0
-4.0,1.0,-16.0,-20.0,-7.0,-4.0,-4.0,-8.0,1650847787573923.0
-8.0,-23.0,-8.0,6.0,-10.0,-9.0,-6.0,1.0,1650847787581898.0
6.0,-16.0,5.0,16.0,23.0,21.0,14.0,5.0,1650847787581898.0
8.0,56.0,-1.0,-21.0,-23.0,-15.0,-17.0,-1.0,1650847787596861.0
7.0,9.0,24.0,40.0,18.0,5.0,-9.0,1.0,1650847787596861.0
-11.0,-29.0,-10.0,6.0,24.0,17.0,17.0,-5.0,1650847787597819.0
-1.0,2.0,-7.0,-5.0,-8.0,-5.0,7.0,2.0,1650847787597819.0
3.0,-27.0,3.0,-7.0,-7.0,-7.0,-17.0,-7.0,1650847787619800.0
13.0,26.0,5.0,-6.0,-6.0,7.0,28.0,6.0,1650847787619800.0
2.0,11.0,-3.0,-8.0,-1.0,-2.0,-27.0,-13.0,1650847787620731.0
-19.0,-24.0,-1.0,16.0,2.0,-10.0,-23.0,-20.0,1650847787620731.0
-2.0,4.0,-11.0,-34.0,-18.0,-3.0,8.0,6.0,1650847787633763.0
-9.0,53.0,1.0,11.0,14.0,8.0,10.0,-6.0,1650847787633763.0
-16.0,-69.0,-22.0,0.0,2.0,4.0,-11.0,-4.0,1650847787641742.0
6.0,36.0,2.0,-13.0,-10.0,0.0,38.0,32.0,1650847787641742.0
-13.0,-65.0,-18.0,-8.0,-4.0,-1.0,-19.0,-28.0,1650847787656701.0
9.0,28.0,1.0,-22.0,-4.0,0.0,46.0,41.0,1650847787656701.0
-1.0,0.0,-4.0,0.0,4.0,-4.0,-26.0,-20.0,1650847787657632.0
3.0,14.0,-4.0,5.0,-9.0,-10.0,-17.0,-9.0,1650847787657632.0
5.0,-14.0,6.0,9.0,12.0,12.0,32.0,21.0,1650847787680571.0
13.0,33.0,0.0,-26.0,-17.0,-13.0,-8.0,2.0,1650847787680571.0
-20.0,-43.0,-7.0,10.0,0.0,3.0,14.0,2.0,1650847787681568.0
-6.0,6.0,2.0,-3.0,-9.0,-9.0,-29.0,-15.0,1650847787681568.0
-6.0,-15.0,-12.0,8.0,3.0,-6.0,-8.0,-10.0,1650847787693535.0
2.0,-2.0,-8.0,3.0,-6.0,-4.0,-6.0,1.0,1650847787693535.0
11.0,9.0,-3.0,-30.0,-15.0,-6.0,-4.0,2.0,1650847787702227.0
16.0,60.0,18.0,4.0,7.0,7.0,13.0,0.0,1650847787702227.0
-18.0,-38.0,-18.0,-5.0,-5.0,2.0,22.0,8.0,1650847787717190.0
-8.0,-25.0,3.0,3.0,0.0,-2.0,-23.0,-13.0,1650847787717190.0
2.0,4.0,3.0,1.0,0.0,-1.0,9.0,3.0,1650847787717190.0
-7.0,10.0,-7.0,-14.0,-8.0,-7.0,-15.0,-16.0,1650847787717190.0
21.0,29.0,26.0,26.0,29.0,18.0,34.0,24.0,1650847787740281.0
-6.0,4.0,-5.0,-23.0,-12.0,-2.0,1.0,-8.0,1650847787740281.0
-1.0,-62.0,-10.0,-6.0,-10.0,-11.0,-4.0,0.0,1650847787740281.0
4.0,-9.0,-4.0,20.0,14.0,10.0,-17.0,-22.0,1650847787740281.0
9.0,68.0,18.0,-16.0,-15.0,-8.0,6.0,10.0,1650847787753179.0
-2.0,-30.0,4.0,9.0,1.0,2.0,-19.0,-3.0,1650847787753179.0
9.0,18.0,12.0,3.0,17.0,-1.0,1.0,-3.0,1650847787762183.0
-16.0,-39.0,-18.0,-27.0,-16.0,3.0,35.0,29.0,1650847787762183.0
14.0,20.0,19.0,14.0,7.0,4.0,-19.0,-2.0,1650847787776272.0
-1.0,32.0,13.0,-3.0,1.0,2.0,16.0,-6.0,1650847787776272.0
0.0,-6.0,-8.0,-13.0,-11.0,9.0,-3.0,-4.0,1650847787777202.0
8.0,-29.0,-3.0,9.0,13.0,-9.0,-9.0,15.0,1650847787777202.0
-11.0,-6.0,-10.0,-13.0,-10.0,-9.0,-1.0,-14.0,1650847787799837.0
-9.0,-37.0,-17.0,-24.0,-16.0,-13.0,-16.0,-6.0,1650847787799837.0
17.0,44.0,21.0,31.0,9.0,13.0,32.0,20.0,1650847787800837.0
0.0,-30.0,-13.0,-10.0,-11.0,-10.0,-11.0,-9.0,1650847787800837.0
-5.0,10.0,16.0,30.0,3.0,1.0,2.0,3.0,1650847787822814.0
2.0,-12.0,-10.0,-6.0,-1.0,-10.0,-27.0,-14.0,1650847787822814.0
0.0,-5.0,-8.0,-19.0,-26.0,-9.0,16.0,9.0,1650847787822814.0
-21.0,3.0,22.0,5.0,13.0,9.0,-17.0,-11.0,1650847787822814.0
4.0,-6.0,7.0,28.0,11.0,4.0,11.0,9.0,1650847787837197.0
6.0,7.0,0.0,-3.0,-8.0,-3.0,-3.0,15.0,1650847787837197.0
-10.0,5.0,-7.0,-18.0,-15.0,-12.0,-7.0,-26.0,1650847787837197.0
13.0,18.0,-5.0,-14.0,-10.0,-2.0,-10.0,3.0,1650847787837197.0
-13.0,-18.0,-13.0,-23.0,0.0,-4.0,-6.0,-9.0,1650847787860356.0
-2.0,12.0,9.0,42.0,23.0,14.0,17.0,17.0,1650847787860356.0
-7.0,10.0,2.0,-4.0,-2.0,-7.0,-46.0,-31.0,1650847787860356.0
10.0,-23.0,-11.0,2.0,-2.0,4.0,41.0,6.0,1650847787860356.0
-2.0,-9.0,-2.0,0.0,3.0,2.0,-5.0,-3.0,1650847787882820.0
14.0,4.0,-4.0,-19.0,-8.0,-8.0,-4.0,4.0,1650847787882820.0
-6.0,26.0,10.0,35.0,21.0,6.0,-4.0,6.0,1650847787882820.0
5.0,22.0,2.0,-10.0,-3.0,-2.0,-15.0,-3.0,1650847787882820.0
-2.0,-17.0,-16.0,-25.0,-12.0,-3.0,-16.0,-20.0,1650847787896742.0
-30.0,-24.0,-2.0,-3.0,-7.0,0.0,21.0,0.0,1650847787896742.0
6.0,-11.0,-1.0,-17.0,-1.0,1.0,-3.0,6.0,1650847787897739.0
22.0,70.0,27.0,38.0,21.0,12.0,16.0,7.0,1650847787897739.0
7.0,23.0,7.0,3.0,-7.0,-4.0,4.0,9.0,1650847787920032.0
-3.0,4.0,-5.0,-7.0,-12.0,-9.0,-6.0,-5.0,1650847787920032.0
-4.0,-45.0,-9.0,-3.0,10.0,-1.0,2.0,8.0,1650847787921029.0
-6.0,11.0,-9.0,-20.0,0.0,1.0,-9.0,-13.0,1650847787921029.0
1.0,21.0,24.0,25.0,-4.0,-7.0,-10.0,7.0,1650847787942944.0
-11.0,-27.0,-16.0,-8.0,3.0,0.0,-4.0,-7.0,1650847787942944.0
0.0,14.0,10.0,37.0,1.0,2.0,13.0,11.0,1650847787942944.0
6.0,-22.0,-5.0,-22.0,-14.0,-2.0,10.0,8.0,1650847787942944.0
7.0,42.0,4.0,23.0,22.0,5.0,-5.0,2.0,1650847787956973.0
6.0,-3.0,-4.0,-16.0,-11.0,-1.0,10.0,6.0,1650847787956973.0
-2.0,-28.0,-8.0,6.0,4.0,-2.0,-15.0,-3.0,1650847787957904.0
-6.0,18.0,-1.0,-14.0,-6.0,-2.0,3.0,10.0,1650847787957904.0
18.0,-2.0,-4.0,-10.0,-17.0,-4.0,17.0,4.0,1650847787980345.0
7.0,-21.0,-6.0,7.0,13.0,3.0,-9.0,3.0,1650847787980345.0
2.0,75.0,18.0,-16.0,-11.0,-3.0,6.0,5.0,1650847787980345.0
-11.0,-68.0,-14.0,17.0,9.0,9.0,-12.0,-22.0,1650847787980345.0
9.0,29.0,-3.0,-14.0,-7.0,-12.0,-1.0,2.0,1650847788002305.0
8.0,-8.0,-1.0,14.0,13.0,8.0,1.0,-5.0,1650847788002305.0
-3.0,0.0,11.0,9.0,-4.0,-5.0,-1.0,7.0,1650847788003235.0
-12.0,-15.0,-9.0,-13.0,-1.0,4.0,4.0,-11.0,1650847788003235.0
-16.0,-20.0,-7.0,5.0,4.0,6.0,-8.0,-6.0,1650847788016227.0
15.0,13.0,4.0,1.0,-7.0,-1.0,20.0,24.0,1650847788016227.0
-8.0,6.0,6.0,0.0,-1.0,-5.0,-12.0,-19.0,1650847788017197.0
1.0,20.0,-4.0,-11.0,3.0,-4.0,-21.0,-4.0,1650847788017197.0
1.0,-49.0,-29.0,-40.0,-14.0,-2.0,20.0,-4.0,1650847788040343.0
-11.0,18.0,30.0,49.0,18.0,-1.0,-8.0,4.0,1650847788040343.0
2.0,-5.0,15.0,43.0,10.0,4.0,2.0,0.0,1650847788040343.0
5.0,26.0,-5.0,-11.0,-3.0,-3.0,-11.0,5.0,1650847788040343.0
-6.0,-20.0,-3.0,-7.0,-6.0,-5.0,-22.0,-14.0,1650847788062900.0
9.0,1.0,-3.0,-26.0,-8.0,2.0,19.0,-8.0,1650847788062900.0
4.0,-9.0,-14.0,-28.0,-6.0,5.0,-5.0,6.0,1650847788062900.0
-2.0,27.0,24.0,19.0,2.0,-6.0,-3.0,-2.0,1650847788062900.0
-7.0,-33.0,-23.0,-4.0,0.0,3.0,2.0,0.0,1650847788076940.0
-2.0,19.0,-8.0,-28.0,-16.0,-5.0,-8.0,-6.0,1650847788076940.0
-2.0,-23.0,3.0,39.0,22.0,8.0,-9.0,-11.0,1650847788076940.0
4.0,12.0,4.0,-9.0,-10.0,-5.0,7.0,4.0,1650847788076940.0
-10.0,-20.0,1.0,16.0,17.0,20.0,6.0,-12.0,1650847788100392.0
-3.0,-8.0,-7.0,-15.0,-7.0,-6.0,-22.0,-9.0,1650847788100392.0
-13.0,-15.0,-17.0,-27.0,-14.0,-9.0,-2.0,-4.0,1650847788100392.0
4.0,-18.0,-10.0,1.0,-5.0,-2.0,12.0,13.0,1650847788100392.0
-21.0,12.0,10.0,4.0,0.0,-1.0,1.0,-2.0,1650847788122770.0
8.0,-3.0,8.0,16.0,17.0,7.0,2.0,2.0,1650847788122770.0
-6.0,-11.0,-15.0,-22.0,-11.0,-8.0,-12.0,-8.0,1650847788122770.0
2.0,17.0,3.0,-2.0,-1.0,-2.0,2.0,4.0,1650847788122770.0
-4.0,-3.0,1.0,0.0,-6.0,-6.0,-12.0,-6.0,1650847788136849.0
12.0,23.0,12.0,23.0,6.0,9.0,31.0,22.0,1650847788136849.0
5.0,3.0,4.0,-8.0,7.0,7.0,19.0,21.0,1650847788137835.0
-5.0,-8.0,-7.0,-20.0,-12.0,-8.0,-22.0,-20.0,1650847788137835.0
6.0,-43.0,-7.0,10.0,5.0,-2.0,-6.0,11.0,1650847788159824.0
-23.0,-21.0,-12.0,8.0,4.0,-1.0,-7.0,-11.0,1650847788159824.0
9.0,9.0,4.0,-13.0,3.0,6.0,24.0,11.0,1650847788160824.0
6.0,-6.0,2.0,24.0,-1.0,4.0,31.0,27.0,1650847788160824.0
-7.0,-18.0,-7.0,-43.0,-29.0,-15.0,-8.0,4.0,1650847788182792.0
-13.0,-31.0,10.0,67.0,23.0,2.0,-25.0,-26.0,1650847788182792.0
5.0,43.0,1.0,-12.0,-4.0,-3.0,10.0,5.0,1650847788182792.0
1.0,-23.0,-10.0,-11.0,-12.0,-7.0,-24.0,-29.0,1650847788182792.0
9.0,5.0,-5.0,-28.0,4.0,7.0,31.0,26.0,1650847788196840.0
-22.0,-10.0,15.0,43.0,7.0,0.0,-5.0,-16.0,1650847788196840.0
-3.0,-25.0,-7.0,0.0,-11.0,-12.0,-16.0,-2.0,1650847788197804.0
0.0,9.0,1.0,6.0,5.0,1.0,-5.0,-5.0,1650847788197804.0
-4.0,6.0,-1.0,-6.0,-5.0,1.0,10.0,6.0,1650847788220343.0
6.0,-4.0,-12.0,-43.0,-14.0,-4.0,3.0,7.0,1650847788220343.0
5.0,10.0,11.0,32.0,12.0,8.0,-5.0,-8.0,1650847788220343.0
1.0,-8.0,1.0,12.0,8.0,-2.0,13.0,17.0,1650847788220343.0
-6.0,-22.0,-1.0,1.0,-7.0,-4.0,-16.0,-24.0,1650847788242261.0
8.0,18.0,-5.0,-29.0,-16.0,-4.0,16.0,23.0,1650847788242261.0
-21.0,-73.0,-18.0,1.0,17.0,5.0,-10.0,-29.0,1650847788243193.0
3.0,-7.0,-10.0,-8.0,-7.0,-1.0,8.0,8.0,1650847788243193.0
10.0,60.0,19.0,11.0,7.0,2.0,-5.0,5.0,1650847788257217.0
-3.0,1.0,-21.0,-41.0,-20.0,-4.0,-7.0,-5.0,1650847788257217.0
-1.0,-1.0,16.0,18.0,2.0,-2.0,-1.0,2.0,1650847788257217.0
-7.0,40.0,16.0,38.0,20.0,-1.0,-23.0,-10.0,1650847788257217.0
13.0,-15.0,-8.0,-2.0,-6.0,0.0,15.0,8.0,1650847788280207.0
-18.0,-3.0,-7.0,-27.0,-16.0,-15.0,-22.0,-16.0,1650847788280207.0
-2.0,20.0,2.0,-8.0,-15.0,-2.0,12.0,7.0,1650847788280207.0
-16.0,-55.0,-20.0,0.0,8.0,-4.0,-22.0,-14.0,1650847788280207.0
13.0,54.0,18.0,14.0,1.0,0.0,4.0,4.0,1650847788302841.0
17.0,15.0,-7.0,-14.0,-4.0,13.0,24.0,14.0,1650847788302841.0
-5.0,-1.0,-2.0,4.0,0.0,-2.0,7.0,12.0,1650847788302841.0
5.0,-5.0,3.0,-21.0,-12.0,-8.0,-18.0,-17.0,1650847788302841.0
-5.0,5.0,-12.0,7.0,11.0,5.0,-3.0,9.0,1650847788316842.0
2.0,9.0,3.0,5.0,-6.0,-7.0,-22.0,-15.0,1650847788316842.0
2.0,12.0,1.0,8.0,14.0,7.0,24.0,12.0,1650847788317774.0
6.0,-29.0,-3.0,12.0,-4.0,4.0,13.0,13.0,1650847788317774.0
-5.0,5.0,-4.0,-22.0,-1.0,1.0,-7.0,-4.0,1650847788339729.0
3.0,-8.0,13.0,18.0,7.0,1.0,13.0,-3.0,1650847788339729.0
10.0,26.0,12.0,17.0,11.0,4.0,-18.0,-5.0,1650847788340713.0
-9.0,13.0,-3.0,-18.0,-14.0,-2.0,-4.0,-11.0,1650847788340713.0
-1.0,7.0,4.0,3.0,4.0,7.0,0.0,2.0,1650847788362776.0
4.0,5.0,-3.0,2.0,-1.0,-2.0,3.0,1.0,1650847788362776.0
-3.0,13.0,-4.0,-12.0,-14.0,-5.0,-8.0,-1.0,1650847788362776.0
2.0,-20.0,-2.0,-23.0,-1.0,-1.0,8.0,6.0,1650847788362776.0
2.0,13.0,12.0,8.0,0.0,-5.0,3.0,-9.0,1650847788376792.0
2.0,-4.0,2.0,2.0,17.0,3.0,-22.0,-6.0,1650847788376792.0
5.0,21.0,-10.0,-16.0,-4.0,1.0,24.0,10.0,1650847788377728.0
14.0,12.0,14.0,14.0,7.0,8.0,9.0,0.0,1650847788377728.0
-7.0,-8.0,-6.0,-17.0,-8.0,-6.0,-5.0,-4.0,1650847788400772.0
8.0,-19.0,1.0,14.0,-2.0,-2.0,-16.0,-3.0,1650847788400772.0
-19.0,10.0,-18.0,-27.0,-7.0,2.0,3.0,11.0,1650847788400772.0
-19.0,-27.0,-2.0,-15.0,-17.0,-13.0,-19.0,-21.0,1650847788400772.0
6.0,20.0,12.0,42.0,23.0,15.0,25.0,14.0,1650847788422780.0
2.0,-18.0,-5.0,-7.0,-8.0,-5.0,0.0,3.0,1650847788422780.0
6.0,-11.0,-1.0,-27.0,-15.0,-4.0,4.0,-5.0,1650847788422780.0
6.0,30.0,10.0,11.0,8.0,-1.0,-7.0,11.0,1650847788422780.0
-10.0,-34.0,-10.0,-5.0,1.0,-1.0,-7.0,-6.0,1650847788435799.0
6.0,17.0,9.0,13.0,4.0,1.0,-1.0,5.0,1650847788435799.0
5.0,-20.0,-3.0,-31.0,-13.0,-2.0,-6.0,-10.0,1650847788444764.0
-12.0,-16.0,-1.0,28.0,15.0,6.0,22.0,19.0,1650847788444764.0
0.0,-13.0,-11.0,-14.0,-9.0,-8.0,-12.0,-6.0,1650847788459739.0
-3.0,6.0,3.0,9.0,12.0,4.0,10.0,1.0,1650847788459739.0
1.0,11.0,-4.0,-14.0,-14.0,-6.0,-30.0,-19.0,1650847788460672.0
9.0,-4.0,22.0,56.0,31.0,13.0,33.0,17.0,1650847788460672.0
-3.0,-9.0,-6.0,-15.0,-3.0,-1.0,-17.0,-14.0,1650847788482792.0
0.0,-31.0,-13.0,7.0,11.0,7.0,12.0,10.0,1650847788482792.0
6.0,-6.0,-2.0,3.0,-2.0,-4.0,-3.0,16.0,1650847788482792.0
-2.0,13.0,-11.0,-40.0,-28.0,-14.0,-23.0,-32.0,1650847788482792.0
-21.0,20.0,21.0,31.0,10.0,10.0,12.0,6.0,1650847788495696.0
0.0,-21.0,-7.0,-6.0,10.0,6.0,33.0,21.0,1650847788495696.0
0.0,25.0,7.0,11.0,1.0,-4.0,-11.0,-16.0,1650847788504692.0
4.0,-8.0,-9.0,-31.0,-16.0,-7.0,-11.0,8.0,1650847788504692.0
5.0,-3.0,-2.0,-12.0,-8.0,3.0,22.0,6.0,1650847788519824.0
-2.0,19.0,3.0,-7.0,-17.0,-19.0,-28.0,-10.0,1650847788519824.0
-13.0,-12.0,-20.0,-15.0,-9.0,-8.0,-1.0,-18.0,1650847788520824.0
-4.0,15.0,11.0,36.0,21.0,6.0,-12.0,1.0,1650847788520824.0
0.0,-22.0,-10.0,-8.0,-17.0,-9.0,-7.0,6.0,1650847788542109.0
-6.0,7.0,-3.0,-17.0,12.0,5.0,12.0,-8.0,1650847788542109.0
17.0,10.0,14.0,35.0,6.0,2.0,-12.0,11.0,1650847788543052.0
-9.0,-14.0,-12.0,-9.0,-13.0,-10.0,-17.0,-7.0,1650847788543052.0
4.0,-4.0,-4.0,-21.0,2.0,-2.0,22.0,6.0,1650847788556033.0
0.0,18.0,20.0,38.0,23.0,10.0,-6.0,-6.0,1650847788556033.0
7.0,-1.0,1.0,11.0,-4.0,-1.0,-2.0,4.0,1650847788563985.0
8.0,19.0,3.0,10.0,19.0,12.0,2.0,15.0,1650847788563985.0
-7.0,-6.0,-4.0,-6.0,-18.0,-14.0,-13.0,-15.0,1650847788580007.0
1.0,17.0,6.0,-1.0,-5.0,-5.0,-16.0,-20.0,1650847788580007.0
2.0,22.0,0.0,-14.0,1.0,0.0,16.0,12.0,1650847788580939.0
-12.0,-48.0,-15.0,-19.0,-16.0,-1.0,5.0,-12.0,1650847788580939.0
10.0,48.0,8.0,2.0,11.0,0.0,-8.0,7.0,1650847788602096.0
3.0,24.0,-1.0,-6.0,-7.0,1.0,8.0,9.0,1650847788602096.0
-9.0,-45.0,-10.0,4.0,0.0,-3.0,-13.0,-17.0,1650847788603040.0
1.0,24.0,-9.0,-30.0,-19.0,-3.0,31.0,12.0,1650847788603040.0
-2.0,-16.0,-4.0,1.0,-4.0,-3.0,-26.0,-8.0,1650847788615996.0
-2.0,8.0,10.0,19.0,2.0,7.0,10.0,1.0,1650847788615996.0
2.0,16.0,3.0,-8.0,6.0,2.0,15.0,3.0,1650847788624762.0
-1.0,-27.0,-8.0,2.0,-3.0,-4.0,-20.0,-5.0,1650847788624762.0
1.0,-17.0,3.0,19.0,12.0,7.0,7.0,5.0,1650847788639726.0
1.0,-2.0,-10.0,-17.0,-13.0,-5.0,15.0,6.0,1650847788639726.0
-3.0,-4.0,-1.0,0.0,2.0,4.0,-6.0,-7.0,1650847788640723.0
5.0,12.0,7.0,9.0,5.0,1.0,-1.0,1.0,1650847788640723.0
-1.0,-3.0,4.0,11.0,7.0,2.0,-13.0,-14.0,1650847788662815.0
0.0,-14.0,-8.0,-16.0,-12.0,-5.0,-7.0,2.0,1650847788662815.0
-2.0,-2.0,3.0,-3.0,0.0,0.0,12.0,4.0,1650847788662815.0
-5.0,2.0,1.0,15.0,5.0,1.0,1.0,-5.0,1650847788662815.0
-2.0,-14.0,-5.0,4.0,-2.0,-7.0,-10.0,-5.0,1650847788675848.0
-1.0,-1.0,-4.0,-16.0,-5.0,-1.0,-3.0,3.0,1650847788675848.0
-2.0,-5.0,1.0,10.0,5.0,2.0,6.0,1.0,1650847788684761.0
-1.0,9.0,3.0,2.0,3.0,-4.0,-2.0,-1.0,1650847788684761.0
1.0,6.0,1.0,-5.0,-6.0,-3.0,2.0,2.0,1650847788699784.0
0.0,-10.0,-3.0,4.0,1.0,3.0,2.0,-3.0,1650847788699784.0
-3.0,-5.0,2.0,3.0,1.0,-1.0,-8.0,-7.0,1650847788700714.0
0.0,-3.0,-2.0,-7.0,-4.0,-9.0,-7.0,-4.0,1650847788700714.0
2.0,9.0,0.0,3.0,5.0,4.0,4.0,5.0,1650847788722813.0
-1.0,-2.0,-3.0,-8.0,-6.0,-6.0,-3.0,-4.0,1650847788722813.0
2.0,-5.0,3.0,10.0,8.0,18.0,11.0,7.0,1650847788722813.0
2.0,10.0,-1.0,-10.0,-2.0,3.0,6.0,3.0,1650847788722813.0
0.0,-4.0,0.0,2.0,1.0,-3.0,0.0,-2.0,1650847788735841.0
-3.0,-3.0,-1.0,2.0,-2.0,-10.0,-16.0,-8.0,1650847788735841.0
2.0,-1.0,2.0,-1.0,-2.0,-4.0,3.0,7.0,1650847788744762.0
-1.0,2.0,-1.0,-5.0,-2.0,-3.0,1.0,-1.0,1650847788744762.0
0.0,-2.0,2.0,4.0,4.0,-2.0,-3.0,2.0,1650847788759776.0
-5.0,-9.0,-4.0,-4.0,-1.0,1.0,-3.0,-9.0,1650847788759776.0
-2.0,2.0,1.0,-1.0,-4.0,-7.0,-3.0,-4.0,1650847788760707.0
2.0,7.0,4.0,-1.0,2.0,3.0,3.0,2.0,1650847788760707.0
1.0,-7.0,-6.0,-1.0,-1.0,-1.0,0.0,-4.0,1650847788782852.0
4.0,30.0,10.0,1.0,2.0,5.0,5.0,3.0,1650847788782852.0
-3.0,-30.0,-16.0,5.0,3.0,0.0,-4.0,-1.0,1650847788782852.0
0.0,-5.0,8.0,-9.0,-5.0,1.0,4.0,3.0,1650847788782852.0
8.0,30.0,14.0,8.0,3.0,-1.0,1.0,4.0,1650847788804877.0
-3.0,-16.0,-3.0,-5.0,-4.0,7.0,0.0,1.0,1650847788804877.0
-7.0,-16.0,-22.0,-10.0,-6.0,-6.0,-5.0,-3.0,1650847788805809.0
-1.0,14.0,39.0,16.0,7.0,7.0,2.0,-2.0,1650847788805809.0
5.0,8.0,-8.0,-7.0,-1.0,-2.0,1.0,2.0,1650847788827819.0
2.0,-3.0,6.0,2.0,-8.0,-8.0,-9.0,4.0,1650847788827819.0
0.0,11.0,13.0,15.0,4.0,2.0,1.0,-9.0,1650847788828747.0
0.0,-7.0,-26.0,-22.0,-4.0,-3.0,1.0,4.0,1650847788828747.0
-12.0,-8.0,18.0,-2.0,0.0,1.0,-2.0,-10.0,1650847788842778.0
1.0,-5.0,-36.0,-16.0,-1.0,-1.0,-1.0,4.0,1650847788842778.0
-2.0,4.0,12.0,9.0,3.0,0.0,-1.0,5.0,1650847788843714.0
8.0,1.0,-4.0,4.0,1.0,0.0,2.0,2.0,1650847788843714.0
2.0,5.0,16.0,10.0,1.0,2.0,1.0,6.0,1650847788864816.0
-2.0,-9.0,-2.0,-5.0,-5.0,-4.0,-1.0,-7.0,1650847788864816.0
-3.0,8.0,-1.0,-5.0,-1.0,-3.0,0.0,0.0,1650847788866745.0
2.0,-17.0,-11.0,9.0,6.0,3.0,2.0,-3.0,1650847788866745.0
-7.0,-27.0,-33.0,-19.0,-10.0,-5.0,-3.0,-2.0,1650847788878713.0
-3.0,21.0,7.0,2.0,0.0,-1.0,-1.0,-2.0,1650847788878713.0
3.0,13.0,6.0,2.0,0.0,0.0,0.0,-1.0,1650847788887688.0
-7.0,-12.0,-13.0,-10.0,-6.0,-4.0,-3.0,-1.0,1650847788887688.0
5.0,4.0,3.0,-3.0,-1.0,0.0,1.0,0.0,1650847788901717.0
-3.0,-6.0,-16.0,3.0,4.0,1.0,1.0,2.0,1650847788901717.0
4.0,6.0,-3.0,-5.0,-2.0,-2.0,0.0,-2.0,1650847788908699.0
-6.0,-10.0,-5.0,-9.0,-5.0,-4.0,-2.0,-4.0,1650847788908699.0
-2.0,-14.0,4.0,9.0,4.0,1.0,-2.0,0.0,1650847788924880.0
-1.0,9.0,3.0,2.0,0.0,-2.0,-1.0,-4.0,1650847788924880.0
2.0,-2.0,1.0,-7.0,-2.0,-1.0,0.0,1.0,1650847788926809.0
-1.0,14.0,3.0,5.0,2.0,1.0,-1.0,-2.0,1650847788926809.0
-3.0,-34.0,-8.0,-2.0,0.0,1.0,3.0,-1.0,1650847788938843.0
0.0,-9.0,7.0,7.0,2.0,0.0,-1.0,-1.0,1650847788938843.0
0.0,-6.0,-10.0,-6.0,-5.0,-2.0,-2.0,-3.0,1650847788947753.0
2.0,7.0,-6.0,-11.0,-8.0,-3.0,0.0,2.0,1650847788947753.0
-1.0,8.0,8.0,9.0,3.0,-1.0,-1.0,-3.0,1650847788962026.0
1.0,3.0,2.0,0.0,-1.0,-1.0,-1.0,0.0,1650847788962026.0
-3.0,-12.0,0.0,-5.0,-7.0,-4.0,-1.0,-1.0,1650847788963965.0
2.0,10.0,9.0,19.0,20.0,5.0,1.0,-3.0,1650847788963965.0
2.0,7.0,-5.0,-6.0,-6.0,-2.0,0.0,-1.0,1650847788984899.0
-2.0,6.0,18.0,11.0,5.0,-2.0,-1.0,0.0,1650847788984899.0
-1.0,-11.0,-6.0,-6.0,-2.0,-1.0,1.0,2.0,1650847788986894.0
0.0,2.0,0.0,-4.0,-5.0,-2.0,0.0,-1.0,1650847788986894.0
-2.0,-1.0,-8.0,-1.0,-3.0,-1.0,-1.0,-4.0,1650847788998995.0
0.0,1.0,-6.0,-9.0,-2.0,1.0,0.0,2.0,1650847788998995.0
-1.0,7.0,4.0,-1.0,0.0,-1.0,-1.0,-1.0,1650847789014954.0
1.0,3.0,-3.0,5.0,0.0,0.0,0.0,-1.0,1650847789014954.0
-1.0,-6.0,-9.0,-5.0,2.0,2.0,-1.0,2.0,1650847789021968.0
0.0,0.0,1.0,-1.0,-3.0,-1.0,-2.0,-4.0,1650847789021968.0
-3.0,-3.0,5.0,9.0,4.0,1.0,0.0,-1.0,1650847789029914.0
-2.0,-1.0,-3.0,-4.0,-5.0,-1.0,-1.0,2.0,1650847789029914.0
-1.0,-8.0,-10.0,-10.0,-3.0,0.0,1.0,2.0,1650847789045042.0
-1.0,-10.0,2.0,3.0,1.0,-4.0,1.0,-1.0,1650847789045042.0
2.0,23.0,13.0,6.0,3.0,1.0,-1.0,-1.0,1650847789045973.0
-2.0,3.0,2.0,2.0,-1.0,-2.0,-2.0,-3.0,1650847789045973.0
0.0,-1.0,-9.0,-7.0,-8.0,-2.0,-2.0,-1.0,1650847789058974.0
0.0,-5.0,8.0,6.0,8.0,4.0,3.0,1.0,1650847789058974.0
-2.0,-11.0,-15.0,3.0,6.0,0.0,0.0,0.0,1650847789067916.0
1.0,1.0,-6.0,-4.0,-3.0,1.0,0.0,0.0,1650847789067916.0
2.0,15.0,16.0,6.0,-1.0,0.0,-1.0,0.0,1650847789082814.0
-2.0,-11.0,3.0,-4.0,-4.0,-1.0,-1.0,-1.0,1650847789082814.0
0.0,2.0,6.0,0.0,-1.0,0.0,0.0,-2.0,1650847789083781.0
0.0,2.0,-9.0,-9.0,-1.0,-1.0,-1.0,2.0,1650847789083781.0
-1.0,-5.0,2.0,7.0,3.0,0.0,0.0,0.0,1650847789104954.0
1.0,17.0,-4.0,-6.0,-4.0,0.0,-2.0,-1.0,1650847789104954.0
0.0,-7.0,3.0,3.0,1.0,0.0,0.0,0.0,1650847789106883.0
0.0,-3.0,0.0,-3.0,-4.0,-1.0,-1.0,-1.0,1650847789106883.0
-3.0,-1.0,-2.0,0.0,1.0,1.0,0.0,0.0,1650847789119612.0
0.0,-4.0,1.0,-4.0,-4.0,-3.0,0.0,-3.0,1650847789119612.0
1.0,0.0,-5.0,-2.0,-4.0,-2.0,-2.0,1.0,1650847789125863.0
0.0,-5.0,6.0,4.0,1.0,0.0,0.0,-1.0,1650847789125863.0
-3.0,4.0,-4.0,0.0,0.0,-2.0,0.0,-1.0,1650847789142837.0
0.0,-5.0,-3.0,-1.0,1.0,0.0,0.0,2.0,1650847789142837.0
0.0,1.0,-2.0,-1.0,1.0,0.0,-1.0,-1.0,1650847789143777.0
-1.0,0.0,0.0,-1.0,-1.0,-1.0,1.0,-1.0,1650847789143777.0
2.0,-1.0,-2.0,-1.0,1.0,-1.0,2.0,0.0,1650847789164790.0
0.0,-2.0,-4.0,-3.0,-3.0,0.0,-2.0,1.0,1650847789164790.0
1.0,9.0,2.0,-5.0,-1.0,1.0,-1.0,0.0,1650847789166749.0
-2.0,-5.0,0.0,1.0,0.0,-1.0,-1.0,1.0,1650847789166749.0
1.0,7.0,1.0,0.0,0.0,0.0,-1.0,0.0,1650847789178754.0
-1.0,-11.0,-5.0,-2.0,2.0,0.0,-1.0,0.0,1650847789178754.0
-2.0,-2.0,2.0,1.0,-1.0,-1.0,-1.0,0.0,1650847789187668.0
-1.0,5.0,3.0,0.0,0.0,1.0,-2.0,0.0,1650847789187668.0
-3.0,-2.0,0.0,8.0,0.0,0.0,-1.0,0.0,1650847789202792.0
-3.0,-11.0,-1.0,2.0,-2.0,-1.0,0.0,0.0,1650847789202792.0
3.0,18.0,2.0,-3.0,3.0,-1.0,-1.0,-1.0,1650847789203794.0
-4.0,-11.0,-4.0,-1.0,-3.0,-2.0,-1.0,-2.0,1650847789203794.0
0.0,2.0,3.0,0.0,-4.0,-1.0,-1.0,-1.0,1650847789224764.0
-1.0,-2.0,-7.0,-7.0,-1.0,-1.0,-1.0,0.0,1650847789224764.0
-2.0,-4.0,-1.0,3.0,1.0,-1.0,-1.0,0.0,1650847789226756.0
1.0,4.0,1.0,-1.0,-1.0,-1.0,0.0,0.0,1650847789226756.0
-3.0,-1.0,0.0,-1.0,-1.0,0.0,-2.0,-1.0,1650847789238847.0
-1.0,-20.0,-9.0,0.0,-1.0,0.0,-2.0,-1.0,1650847789238847.0
-5.0,-6.0,-3.0,-4.0,-2.0,-2.0,-1.0,0.0,1650847789247793.0
4.0,11.0,5.0,1.0,-2.0,-2.0,1.0,-1.0,1650847789247793.0
-2.0,1.0,-1.0,-3.0,-1.0,-1.0,-1.0,-1.0,1650847789262918.0
0.0,-2.0,-4.0,-6.0,-3.0,-3.0,-1.0,-1.0,1650847789262918.0
1.0,-6.0,1.0,3.0,6.0,1.0,1.0,-2.0,1650847789263919.0
-4.0,-11.0,-5.0,-5.0,-5.0,-2.0,-1.0,-3.0,1650847789263919.0
4.0,20.0,4.0,2.0,1.0,0.0,0.0,0.0,1650847789284929.0
-1.0,8.0,7.0,6.0,2.0,1.0,0.0,1.0,1650847789284929.0
-1.0,-7.0,-3.0,-4.0,-5.0,-1.0,-2.0,-1.0,1650847789286857.0
-2.0,-7.0,-4.0,-2.0,-1.0,0.0,1.0,1.0,1650847789286857.0
1.0,-3.0,-3.0,-1.0,2.0,-1.0,1.0,-1.0,1650847789298937.0
-2.0,5.0,0.0,-2.0,-2.0,-3.0,-1.0,-2.0,1650847789298937.0
-2.0,-2.0,1.0,2.0,-4.0,0.0,-2.0,0.0,1650847789307682.0
0.0,-1.0,3.0,2.0,3.0,1.0,1.0,1.0,1650847789307682.0
-2.0,-3.0,-2.0,-1.0,-2.0,-2.0,-2.0,-2.0,1650847789322842.0
-3.0,-1.0,-5.0,-8.0,-2.0,-2.0,-1.0,-1.0,1650847789322842.0
-1.0,-8.0,2.0,14.0,6.0,-1.0,0.0,-2.0,1650847789323793.0
3.0,27.0,4.0,4.0,6.0,1.0,0.0,1.0,1650847789323793.0
-4.0,-42.0,-13.0,-2.0,-1.0,0.0,-1.0,-1.0,1650847789344797.0
1.0,6.0,2.0,2.0,-2.0,0.0,-2.0,1.0,1650847789344797.0
3.0,18.0,3.0,-7.0,-3.0,-2.0,-1.0,-2.0,1650847789346731.0
-5.0,-40.0,-10.0,3.0,-1.0,0.0,0.0,-1.0,1650847789346731.0
4.0,27.0,4.0,-2.0,-2.0,-2.0,1.0,0.0,1650847789358711.0
-1.0,-2.0,0.0,-2.0,-2.0,-1.0,0.0,-2.0,1650847789358711.0
-1.0,-9.0,-5.0,-3.0,0.0,1.0,-1.0,-1.0,1650847789367675.0
3.0,7.0,2.0,3.0,2.0,1.0,-1.0,1.0,1650847789367675.0
-5.0,-9.0,-1.0,-4.0,-2.0,-3.0,0.0,-2.0,1650847789382794.0
0.0,-3.0,-1.0,1.0,-2.0,0.0,0.0,0.0,1650847789382794.0
-1.0,-1.0,-1.0,-1.0,1.0,2.0,0.0,-1.0,1650847789383726.0
3.0,14.0,1.0,-10.0,-3.0,0.0,1.0,1.0,1650847789383726.0
3.0,-3.0,6.0,12.0,4.0,1.0,0.0,1.0,1650847789404842.0
-1.0,8.0,12.0,5.0,-1.0,-1.0,-3.0,-2.0,1650847789404842.0
-2.0,-7.0,-4.0,-4.0,-5.0,-2.0,-1.0,0.0,1650847789406797.0
-1.0,-5.0,-8.0,-9.0,-6.0,-1.0,0.0,0.0,1650847789406797.0
0.0,3.0,-3.0,-5.0,-3.0,1.0,0.0,0.0,1650847789418889.0
0.0,1.0,-1.0,-3.0,-2.0,0.0,0.0,1.0,1650847789418889.0
0.0,-1.0,2.0,1.0,0.0,0.0,-1.0,0.0,1650847789427869.0
0.0,-5.0,-4.0,-6.0,-5.0,-3.0,-1.0,-3.0,1650847789427869.0
3.0,6.0,0.0,-4.0,-2.0,0.0,0.0,0.0,1650847789442871.0
0.0,3.0,0.0,3.0,2.0,-1.0,0.0,-1.0,1650847789442871.0
1.0,-7.0,-4.0,-5.0,-6.0,-2.0,-2.0,1.0,1650847789443825.0
-1.0,2.0,2.0,0.0,0.0,-1.0,0.0,0.0,1650847789443825.0
2.0,7.0,3.0,7.0,4.0,1.0,1.0,-1.0,1650847789464836.0
-1.0,-5.0,0.0,6.0,2.0,1.0,-1.0,-1.0,1650847789464836.0
2.0,13.0,0.0,-2.0,-1.0,-1.0,0.0,1.0,1650847789466791.0
-1.0,-10.0,-5.0,-3.0,-4.0,-2.0,-1.0,0.0,1650847789466791.0
0.0,-4.0,0.0,0.0,-1.0,-1.0,-2.0,2.0,1650847789478798.0
-1.0,0.0,-3.0,0.0,1.0,0.0,-1.0,1.0,1650847789478798.0
-3.0,2.0,-1.0,-1.0,-4.0,-2.0,0.0,0.0,1650847789487222.0
-1.0,0.0,4.0,7.0,6.0,2.0,-2.0,-2.0,1650847789487222.0
-2.0,-7.0,-6.0,-7.0,-2.0,1.0,0.0,-1.0,1650847789510378.0
2.0,7.0,-3.0,0.0,1.0,0.0,1.0,0.0,1650847789510378.0
0.0,-3.0,8.0,-1.0,-4.0,-2.0,0.0,0.0,1650847789511357.0
0.0,6.0,-1.0,0.0,2.0,-1.0,-2.0,2.0,1650847789511357.0
-1.0,-3.0,-2.0,-1.0,0.0,1.0,0.0,0.0,1650847789525310.0
1.0,-2.0,-2.0,3.0,1.0,0.0,-1.0,-1.0,1650847789525310.0
2.0,-10.0,-1.0,0.0,1.0,2.0,-1.0,-1.0,1650847789526310.0
-1.0,29.0,5.0,-1.0,-4.0,-2.0,0.0,-1.0,1650847789526310.0
-1.0,-7.0,-2.0,0.0,0.0,0.0,0.0,0.0,1650847789538936.0
-3.0,-7.0,-4.0,-6.0,-1.0,-3.0,2.0,-1.0,1650847789538936.0
1.0,0.0,2.0,5.0,0.0,-1.0,-1.0,0.0,1650847789547651.0
0.0,1.0,-1.0,-5.0,-2.0,1.0,1.0,0.0,1650847789547651.0
-3.0,-3.0,-7.0,-7.0,-6.0,-3.0,-3.0,-3.0,1650847789562675.0
1.0,6.0,1.0,-1.0,-1.0,0.0,-1.0,-1.0,1650847789562675.0
0.0,3.0,2.0,1.0,0.0,0.0,0.0,-2.0,1650847789563615.0
-2.0,-19.0,-7.0,-2.0,0.0,-2.0,1.0,-2.0,1650847789563615.0
0.0,3.0,0.0,-3.0,-5.0,-2.0,0.0,1.0,1650847789584906.0
0.0,-3.0,-1.0,0.0,3.0,2.0,-1.0,0.0,1650847789584906.0
-4.0,0.0,-4.0,-2.0,0.0,0.0,-1.0,0.0,1650847789586835.0
-1.0,-4.0,4.0,2.0,-2.0,-1.0,-1.0,1.0,1650847789586835.0
1.0,4.0,1.0,3.0,3.0,0.0,0.0,-1.0,1650847789598938.0
0.0,-14.0,-5.0,-1.0,0.0,0.0,-1.0,0.0,1650847789598938.0
-5.0,-16.0,-8.0,-8.0,-7.0,-2.0,-2.0,-2.0,1650847789607699.0
4.0,19.0,7.0,11.0,8.0,2.0,-1.0,1.0,1650847789607699.0
-2.0,-5.0,0.0,-2.0,-2.0,0.0,0.0,-2.0,1650847789622795.0
-1.0,11.0,4.0,-1.0,-3.0,0.0,1.0,-1.0,1650847789622795.0
-2.0,-5.0,-2.0,2.0,3.0,0.0,0.0,0.0,1650847789623794.0
0.0,-5.0,-3.0,-4.0,-4.0,-2.0,0.0,-2.0,1650847789623794.0
0.0,7.0,6.0,2.0,1.0,-3.0,0.0,-1.0,1650847789644806.0
0.0,-1.0,0.0,-3.0,-3.0,-3.0,0.0,-2.0,1650847789644806.0
-1.0,7.0,2.0,0.0,-2.0,-1.0,-2.0,-1.0,1650847789646761.0
-1.0,-8.0,-3.0,-2.0,-2.0,0.0,0.0,-4.0,1650847789646761.0
0.0,0.0,3.0,6.0,6.0,3.0,1.0,1.0,1650847789658701.0
0.0,-3.0,-4.0,-7.0,-4.0,-3.0,-1.0,0.0,1650847789658701.0
2.0,3.0,-2.0,2.0,1.0,-1.0,0.0,0.0,1650847789668018.0
2.0,7.0,2.0,2.0,0.0,-2.0,-1.0,1.0,1650847789668018.0
-1.0,-15.0,-3.0,-5.0,-5.0,-1.0,-2.0,-1.0,1650847789682840.0
1.0,5.0,4.0,7.0,1.0,1.0,0.0,0.0,1650847789682840.0
0.0,5.0,-3.0,4.0,3.0,1.0,-1.0,1.0,1650847789683774.0
-3.0,-10.0,-3.0,-3.0,-1.0,-2.0,-1.0,-2.0,1650847789683774.0
-2.0,4.0,0.0,-4.0,-2.0,-3.0,0.0,0.0,1650847789704788.0
-3.0,-5.0,-4.0,-8.0,-3.0,0.0,0.0,1.0,1650847789704788.0
1.0,6.0,5.0,-9.0,-6.0,-1.0,-2.0,0.0,1650847789706743.0
0.0,-3.0,-1.0,14.0,7.0,1.0,-2.0,-1.0,1650847789706743.0
0.0,1.0,1.0,-2.0,0.0,2.0,-1.0,0.0,1650847789727727.0
-1.0,-3.0,-5.0,-4.0,-3.0,-3.0,-1.0,-2.0,1650847789727727.0
-1.0,11.0,4.0,-1.0,1.0,-2.0,0.0,-1.0,1650847789728658.0
-1.0,-24.0,-3.0,-4.0,-5.0,-2.0,-3.0,0.0,1650847789728658.0
1.0,3.0,-1.0,-2.0,0.0,0.0,-2.0,-1.0,1650847789742729.0
0.0,-1.0,-3.0,-1.0,-1.0,-1.0,0.0,0.0,1650847789742729.0
-1.0,0.0,0.0,0.0,2.0,1.0,1.0,0.0,1650847789743732.0
-1.0,3.0,3.0,-2.0,-2.0,-1.0,1.0,1.0,1650847789743732.0
-1.0,-2.0,1.0,1.0,-1.0,-2.0,1.0,-2.0,1650847789764852.0
1.0,2.0,1.0,2.0,2.0,2.0,-1.0,-1.0,1650847789764852.0
0.0,-2.0,-4.0,-6.0,-6.0,-1.0,0.0,-1.0,1650847789766808.0
-1.0,-1.0,-1.0,-1.0,0.0,0.0,0.0,0.0,1650847789766808.0
1.0,-3.0,2.0,-1.0,-1.0,-2.0,-2.0,-1.0,1650847789787866.0
-2.0,2.0,-2.0,-3.0,0.0,0.0,0.0,0.0,1650847789787866.0
-2.0,-5.0,3.0,13.0,1.0,-2.0,1.0,0.0,1650847789788845.0
2.0,6.0,2.0,-3.0,1.0,0.0,0.0,-1.0,1650847789788845.0
-4.0,-14.0,-9.0,-8.0,-3.0,-1.0,0.0,-1.0,1650847789802813.0
0.0,2.0,1.0,0.0,-1.0,0.0,-1.0,0.0,1650847789802813.0
0.0,-1.0,-2.0,-2.0,0.0,0.0,-1.0,-2.0,1650847789803774.0
-1.0,-1.0,-3.0,-2.0,0.0,1.0,-1.0,0.0,1650847789803774.0
-1.0,-6.0,-1.0,4.0,1.0,0.0,-1.0,0.0,1650847789824992.0
5.0,22.0,4.0,-3.0,-3.0,-2.0,0.0,1.0,1650847789824992.0
1.0,-6.0,-5.0,-2.0,-1.0,0.0,1.0,0.0,1650847789826919.0
-1.0,1.0,0.0,-1.0,-3.0,-1.0,-1.0,0.0,1650847789826919.0
0.0,3.0,-1.0,-1.0,-1.0,-1.0,-2.0,0.0,1650847789846870.0
-2.0,-8.0,1.0,8.0,4.0,1.0,0.0,0.0,1650847789846870.0
0.0,2.0,-2.0,-7.0,0.0,1.0,-1.0,-2.0,1650847789848860.0
-1.0,1.0,-4.0,-2.0,-2.0,-3.0,-1.0,-1.0,1650847789848860.0
1.0,4.0,10.0,10.0,5.0,1.0,0.0,1.0,1650847789862832.0
-4.0,-7.0,-4.0,-4.0,-4.0,-1.0,2.0,1.0,1650847789862832.0
1.0,4.0,1.0,2.0,-1.0,-1.0,-1.0,0.0,1650847789863819.0
-1.0,-7.0,-3.0,-5.0,-1.0,-1.0,1.0,-2.0,1650847789863819.0
2.0,17.0,0.0,-2.0,-1.0,-1.0,1.0,1.0,1650847789884762.0
-1.0,-24.0,-7.0,2.0,1.0,-1.0,-2.0,-2.0,1650847789884762.0
0.0,-2.0,2.0,0.0,1.0,0.0,0.0,1.0,1650847789886717.0
-3.0,-5.0,-3.0,0.0,-2.0,-3.0,0.0,0.0,1650847789886717.0
-2.0,2.0,-3.0,-1.0,-1.0,0.0,-1.0,-2.0,1650847789907812.0
2.0,4.0,5.0,0.0,0.0,1.0,0.0,-1.0,1650847789907812.0
-1.0,10.0,-4.0,0.0,0.0,-1.0,1.0,1.0,1650847789908812.0
0.0,0.0,0.0,2.0,-1.0,0.0,0.0,-2.0,1650847789908812.0
-1.0,-3.0,-3.0,-4.0,-1.0,-1.0,0.0,-1.0,1650847789922175.0
-5.0,-2.0,-1.0,3.0,2.0,-1.0,0.0,-2.0,1650847789922175.0
-1.0,-10.0,-2.0,0.0,1.0,1.0,0.0,-1.0,1650847789928941.0
0.0,7.0,4.0,1.0,-3.0,0.0,1.0,1.0,1650847789928941.0
1.0,-2.0,-2.0,-3.0,-4.0,-2.0,1.0,-1.0,1650847789944756.0
-1.0,-1.0,-2.0,-4.0,-4.0,0.0,1.0,2.0,1650847789944756.0
-1.0,8.0,4.0,3.0,1.0,0.0,-2.0,-1.0,1650847789946711.0
-1.0,-3.0,-1.0,-1.0,0.0,-2.0,-3.0,0.0,1650847789946711.0
1.0,-3.0,-1.0,9.0,10.0,2.0,1.0,1.0,1650847789967678.0
0.0,-4.0,-1.0,-1.0,-4.0,-3.0,-1.0,-3.0,1650847789967678.0
1.0,11.0,3.0,-3.0,-1.0,1.0,1.0,-1.0,1650847789968608.0
-1.0,-18.0,-8.0,-3.0,-3.0,-3.0,-1.0,0.0,1650847789968608.0
-3.0,-2.0,-1.0,-3.0,0.0,-3.0,1.0,1.0,1650847789981722.0
-2.0,4.0,6.0,5.0,2.0,0.0,-1.0,-1.0,1650847789981722.0
-1.0,-3.0,-3.0,-2.0,1.0,-1.0,0.0,1.0,1650847789988742.0
2.0,11.0,3.0,0.0,0.0,1.0,-1.0,1.0,1650847789988742.0
0.0,1.0,-3.0,-1.0,-1.0,0.0,0.0,-1.0,1650847790004699.0
-2.0,-9.0,-4.0,-1.0,0.0,-1.0,1.0,0.0,1650847790004699.0
0.0,5.0,0.0,-1.0,-2.0,0.0,0.0,-2.0,1650847790006629.0
-2.0,-3.0,-3.0,2.0,2.0,2.0,-1.0,-1.0,1650847790006629.0
0.0,1.0,5.0,-1.0,-2.0,-1.0,-2.0,-3.0,1650847790027638.0
-1.0,-2.0,0.0,-1.0,1.0,0.0,1.0,2.0,1650847790027638.0
3.0,-11.0,-2.0,-1.0,1.0,0.0,1.0,1.0,1650847790028570.0
-7.0,0.0,-1.0,0.0,-1.0,-1.0,-1.0,-2.0,1650847790028570.0
-2.0,4.0,-2.0,-4.0,-4.0,-3.0,-4.0,-3.0,1650847790041601.0
1.0,6.0,-2.0,-3.0,-3.0,-2.0,-3.0,-2.0,1650847790041601.0
1.0,-7.0,-1.0,0.0,1.0,-1.0,0.0,1.0,1650847790048523.0
-2.0,4.0,1.0,5.0,2.0,1.0,1.0,-1.0,1650847790048523.0
1.0,-4.0,-4.0,-1.0,1.0,0.0,-1.0,1.0,1650847790064557.0
1.0,5.0,3.0,3.0,2.0,-1.0,2.0,-2.0,1650847790064557.0
-4.0,-6.0,-4.0,-5.0,-2.0,-2.0,-3.0,-3.0,1650847790066551.0
2.0,-2.0,-1.0,-1.0,0.0,1.0,1.0,0.0,1650847790066551.0
-1.0,-2.0,-2.0,0.0,-3.0,0.0,0.0,2.0,1650847790087560.0
-1.0,3.0,2.0,4.0,2.0,-1.0,-2.0,-1.0,1650847790087560.0
2.0,4.0,-3.0,-1.0,-1.0,3.0,3.0,2.0,1650847790088492.0
0.0,-2.0,-1.0,-1.0,-1.0,-2.0,0.0,1.0,1650847790088492.0
1.0,0.0,1.0,2.0,-1.0,-4.0,-4.0,-2.0,1650847790101578.0
0.0,0.0,-3.0,-6.0,-4.0,0.0,-2.0,-2.0,1650847790101578.0
-1.0,-4.0,1.0,2.0,0.0,-1.0,0.0,-2.0,1650847790108598.0
0.0,-1.0,-1.0,-3.0,-2.0,-1.0,0.0,0.0,1650847790108598.0
-1.0,1.0,-1.0,1.0,0.0,0.0,1.0,0.0,1650847790124673.0
-4.0,-12.0,-1.0,2.0,2.0,1.0,0.0,1.0,1650847790124673.0
0.0,11.0,2.0,1.0,-1.0,-2.0,-1.0,-1.0,1650847790126609.0
3.0,2.0,2.0,-1.0,1.0,1.0,0.0,0.0,1650847790126609.0
-6.0,-4.0,-2.0,1.0,2.0,1.0,-1.0,-2.0,1650847790147848.0
0.0,2.0,-1.0,-4.0,-5.0,-5.0,-1.0,0.0,1650847790147848.0
-2.0,-9.0,-4.0,-2.0,-2.0,-2.0,-2.0,-3.0,1650847790148847.0
3.0,5.0,1.0,-2.0,0.0,0.0,-2.0,-1.0,1650847790148847.0
0.0,-6.0,0.0,-1.0,-2.0,-2.0,-4.0,-3.0,1650847790161777.0
4.0,4.0,-1.0,-2.0,2.0,1.0,-6.0,-3.0,1650847790161777.0
-3.0,0.0,1.0,0.0,2.0,0.0,-1.0,2.0,1650847790168865.0
-1.0,-4.0,-1.0,-3.0,-5.0,0.0,-10.0,-1.0,1650847790168865.0
7.0,-4.0,3.0,3.0,4.0,10.0,32.0,11.0,1650847790184827.0
-2.0,19.0,-3.0,-2.0,-3.0,-8.0,10.0,10.0,1650847790184827.0
8.0,-2.0,1.0,3.0,3.0,8.0,11.0,8.0,1650847790186817.0
-7.0,-7.0,3.0,2.0,3.0,2.0,-7.0,-10.0,1650847790186817.0
1.0,8.0,-1.0,-4.0,-6.0,-7.0,-18.0,-9.0,1650847790207841.0
0.0,-1.0,-1.0,-2.0,0.0,4.0,-23.0,-12.0,1650847790207841.0
-5.0,-3.0,0.0,2.0,4.0,8.0,25.0,9.0,1650847790208759.0
1.0,2.0,0.0,2.0,3.0,-1.0,11.0,8.0,1650847790208759.0
-1.0,-5.0,-1.0,0.0,0.0,-4.0,-10.0,-2.0,1650847790220793.0
0.0,2.0,-1.0,-3.0,-3.0,-6.0,0.0,-6.0,1650847790220793.0
-1.0,-2.0,-3.0,-3.0,-5.0,-7.0,-16.0,-6.0,1650847790229718.0
0.0,-2.0,-1.0,-2.0,0.0,1.0,2.0,-1.0,1650847790229718.0
-5.0,-6.0,3.0,3.0,3.0,-1.0,0.0,-2.0,1650847790245350.0
-5.0,-4.0,1.0,1.0,-1.0,1.0,2.0,3.0,1650847790245350.0
-1.0,2.0,-5.0,-7.0,-4.0,-4.0,-3.0,-3.0,1650847790246363.0
2.0,0.0,0.0,0.0,-1.0,-1.0,6.0,2.0,1650847790246363.0
-3.0,-1.0,-4.0,-1.0,0.0,-1.0,-3.0,-2.0,1650847790267350.0
-3.0,-5.0,1.0,3.0,4.0,3.0,4.0,2.0,1650847790267350.0
-1.0,-4.0,-3.0,-2.0,-3.0,-1.0,-1.0,-1.0,1650847790273276.0
0.0,4.0,0.0,-2.0,-4.0,-5.0,-8.0,1.0,1650847790273276.0
3.0,3.0,-3.0,-1.0,-4.0,-5.0,-10.0,0.0,1650847790281253.0
0.0,-5.0,0.0,1.0,1.0,5.0,5.0,0.0,1650847790281253.0
-3.0,-6.0,3.0,4.0,1.0,-6.0,0.0,-4.0,1650847790290229.0
3.0,6.0,-5.0,-6.0,-4.0,-10.0,-11.0,-5.0,1650847790290229.0
-1.0,-3.0,-1.0,0.0,1.0,11.0,21.0,5.0,1650847790305257.0
-1.0,-1.0,-1.0,0.0,0.0,-2.0,3.0,-1.0,1650847790305257.0
4.0,-2.0,-3.0,-4.0,-5.0,-7.0,-10.0,-4.0,1650847790306187.0
-2.0,2.0,3.0,3.0,0.0,0.0,-3.0,-2.0,1650847790306187.0
1.0,0.0,0.0,-2.0,0.0,-1.0,-1.0,0.0,1650847790327143.0
-1.0,-1.0,0.0,-1.0,-1.0,5.0,2.0,2.0,1650847790327143.0
-3.0,-1.0,0.0,-1.0,1.0,2.0,4.0,3.0,1650847790329125.0
3.0,-2.0,-2.0,0.0,-1.0,-2.0,-10.0,-6.0,1650847790329125.0
-9.0,-6.0,-4.0,-1.0,-1.0,-2.0,12.0,0.0,1650847790341159.0
2.0,7.0,-1.0,-5.0,-3.0,-3.0,-5.0,0.0,1650847790341159.0
-2.0,-5.0,0.0,2.0,1.0,-2.0,-21.0,-11.0,1650847790350068.0
-1.0,-4.0,2.0,1.0,4.0,6.0,12.0,4.0,1650847790350068.0
9.0,17.0,2.0,-1.0,-2.0,1.0,20.0,18.0,1650847790364841.0
2.0,1.0,-6.0,-3.0,-4.0,-2.0,-6.0,2.0,1650847790364841.0
-8.0,-13.0,-1.0,3.0,1.0,-1.0,-16.0,-8.0,1650847790366796.0
2.0,5.0,-2.0,-7.0,-8.0,-6.0,2.0,-4.0,1650847790366796.0
-1.0,-4.0,0.0,0.0,1.0,3.0,5.0,-1.0,1650847790387869.0
3.0,-3.0,1.0,3.0,0.0,-2.0,5.0,4.0,1650847790387869.0
1.0,2.0,-3.0,-2.0,0.0,-3.0,0.0,1.0,1650847790388869.0
-1.0,-1.0,-4.0,-2.0,0.0,1.0,-6.0,2.0,1650847790388869.0
-3.0,-5.0,0.0,0.0,-1.0,-8.0,-21.0,-12.0,1650847790400904.0
5.0,0.0,-1.0,-4.0,-5.0,2.0,7.0,1.0,1650847790400904.0
-10.0,-2.0,6.0,5.0,1.0,3.0,13.0,13.0,1650847790409755.0
-2.0,-1.0,-3.0,-1.0,0.0,0.0,21.0,-4.0,1650847790409755.0
9.0,2.0,0.0,0.0,0.0,-3.0,-9.0,2.0,1650847790425781.0
-9.0,0.0,-3.0,-1.0,-1.0,-3.0,-7.0,-9.0,1650847790425781.0
4.0,3.0,-4.0,-1.0,-5.0,-3.0,-3.0,3.0,1650847790426713.0
-2.0,-2.0,4.0,1.0,2.0,-5.0,-10.0,-2.0,1650847790426713.0
-14.0,1.0,-6.0,-3.0,-3.0,0.0,-11.0,-31.0,1650847790447860.0
-7.0,-4.0,5.0,8.0,4.0,5.0,12.0,51.0,1650847790447860.0
14.0,-9.0,10.0,-5.0,0.0,2.0,15.0,-7.0,1650847790448865.0
3.0,11.0,0.0,3.0,3.0,3.0,-2.0,10.0,1650847790448865.0
-4.0,-9.0,-3.0,-3.0,-3.0,-3.0,-17.0,-12.0,1650847790461005.0
-5.0,-5.0,8.0,4.0,2.0,5.0,34.0,16.0,1650847790461005.0
-1.0,11.0,-17.0,-7.0,0.0,-5.0,-2.0,-4.0,1650847790469915.0
8.0,-21.0,1.0,0.0,-4.0,2.0,3.0,3.0,1650847790469915.0
-9.0,-1.0,1.0,0.0,1.0,5.0,-4.0,2.0,1650847790485059.0
-3.0,2.0,26.0,7.0,1.0,-6.0,-22.0,-24.0,1650847790485059.0
1.0,1.0,-25.0,-6.0,-3.0,3.0,7.0,7.0,1650847790485991.0
-2.0,8.0,6.0,-2.0,-1.0,2.0,-6.0,-9.0,1650847790485991.0
4.0,1.0,1.0,2.0,-3.0,-2.0,-11.0,-6.0,1650847790507696.0
2.0,-1.0,-4.0,-4.0,1.0,4.0,-7.0,-17.0,1650847790507696.0
-2.0,-2.0,21.0,7.0,-1.0,-3.0,3.0,4.0,1650847790508625.0
1.0,9.0,-22.0,-11.0,-4.0,2.0,-9.0,0.0,1650847790508625.0
3.0,1.0,9.0,1.0,-3.0,-4.0,3.0,15.0,1650847790520629.0
-2.0,-2.0,-10.0,2.0,3.0,1.0,12.0,-9.0,1650847790520629.0
8.0,7.0,4.0,-12.0,-5.0,-8.0,-15.0,-2.0,1650847790530333.0
-10.0,-17.0,-41.0,1.0,3.0,8.0,-17.0,-4.0,1650847790530333.0
0.0,-5.0,0.0,-3.0,-5.0,-8.0,17.0,11.0,1650847790545341.0
3.0,1.0,-23.0,-11.0,-5.0,-1.0,-31.0,-13.0,1650847790545341.0
-8.0,-3.0,15.0,9.0,6.0,5.0,20.0,-6.0,1650847790546306.0
4.0,9.0,5.0,-3.0,-2.0,-8.0,0.0,25.0,1650847790546306.0
20.0,1.0,15.0,6.0,8.0,15.0,2.0,-4.0,1650847790567383.0
-36.0,-11.0,-14.0,-1.0,-2.0,-1.0,-5.0,-18.0,1650847790567383.0
-4.0,3.0,-5.0,-6.0,-5.0,-7.0,-15.0,-4.0,1650847790569420.0
-4.0,2.0,17.0,5.0,-1.0,-2.0,21.0,11.0,1650847790569420.0
5.0,2.0,0.0,3.0,4.0,5.0,-1.0,0.0,1650847790581412.0
6.0,0.0,-2.0,-6.0,-2.0,-7.0,-3.0,5.0,1650847790581412.0
12.0,13.0,7.0,-1.0,-2.0,4.0,12.0,4.0,1650847790590435.0
-8.0,-24.0,11.0,2.0,-5.0,-5.0,7.0,-14.0,1650847790590435.0
1.0,12.0,-22.0,-7.0,0.0,2.0,0.0,12.0,1650847790604857.0
6.0,4.0,16.0,7.0,0.0,-6.0,-11.0,-9.0,1650847790604857.0
-7.0,-1.0,-5.0,0.0,-5.0,-6.0,-22.0,-10.0,1650847790606813.0
2.0,-1.0,14.0,2.0,4.0,1.0,-5.0,-8.0,1650847790606813.0
-4.0,0.0,6.0,8.0,1.0,3.0,30.0,20.0,1650847790627871.0
13.0,9.0,-11.0,-10.0,-4.0,0.0,-1.0,5.0,1650847790627871.0
-1.0,-4.0,-8.0,-2.0,-2.0,2.0,-2.0,1.0,1650847790628877.0
1.0,5.0,-3.0,2.0,1.0,-3.0,-3.0,4.0,1650847790628877.0
-10.0,-6.0,9.0,1.0,-4.0,-7.0,-15.0,-21.0,1650847790640838.0
5.0,3.0,-22.0,-12.0,-4.0,-4.0,-14.0,-12.0,1650847790640838.0
1.0,3.0,28.0,9.0,3.0,8.0,24.0,16.0,1650847790650259.0
1.0,0.0,2.0,11.0,5.0,9.0,-2.0,-7.0,1650847790650259.0
-9.0,-4.0,-3.0,-11.0,-4.0,-12.0,-11.0,-4.0,1650847790664883.0
3.0,-1.0,3.0,8.0,0.0,5.0,14.0,12.0,1650847790664883.0
-2.0,-10.0,-23.0,-8.0,-4.0,-5.0,-28.0,-20.0,1650847790666812.0
3.0,7.0,21.0,7.0,2.0,1.0,24.0,9.0,1650847790666812.0
0.0,-4.0,-4.0,-3.0,-4.0,-2.0,-15.0,-1.0,1650847790687813.0
-5.0,-3.0,4.0,0.0,-1.0,-6.0,-4.0,-15.0,1650847790687813.0
4.0,8.0,-3.0,2.0,3.0,11.0,19.0,31.0,1650847790688752.0
-7.0,-6.0,-10.0,-4.0,0.0,-3.0,-6.0,-6.0,1650847790688752.0
0.0,1.0,-3.0,-1.0,1.0,3.0,4.0,-3.0,1650847790709894.0
7.0,2.0,16.0,6.0,3.0,-2.0,-3.0,-2.0,1650847790709894.0
-12.0,-16.0,-13.0,-1.0,1.0,0.0,0.0,-4.0,1650847790711822.0
2.0,-1.0,-14.0,-6.0,-2.0,-8.0,2.0,3.0,1650847790711822.0
5.0,-2.0,4.0,0.0,3.0,12.0,20.0,18.0,1650847790724853.0
0.0,-11.0,-2.0,3.0,3.0,-1.0,-10.0,-11.0,1650847790724853.0
4.0,13.0,8.0,0.0,-1.0,-1.0,-9.0,-4.0,1650847790726782.0
-7.0,-4.0,36.0,-2.0,-6.0,-8.0,-22.0,-8.0,1650847790726782.0
-1.0,-10.0,-47.0,-2.0,0.0,0.0,18.0,6.0,1650847790747810.0
2.0,-5.0,-1.0,-6.0,-5.0,-1.0,2.0,14.0,1650847790747810.0
-3.0,2.0,-4.0,-1.0,2.0,3.0,-5.0,-14.0,1650847790748756.0
-3.0,-4.0,-2.0,3.0,2.0,2.0,-8.0,-13.0,1650847790748756.0
5.0,12.0,7.0,-4.0,-7.0,-5.0,-2.0,-1.0,1650847790769768.0
2.0,-3.0,5.0,4.0,5.0,-1.0,29.0,21.0,1650847790769768.0
-1.0,2.0,-3.0,-4.0,-1.0,9.0,4.0,1.0,1650847790771697.0
0.0,-10.0,-15.0,-2.0,-3.0,-6.0,12.0,14.0,1650847790771697.0
-2.0,7.0,9.0,-2.0,0.0,-1.0,-26.0,-17.0,1650847790784690.0
-5.0,-4.0,1.0,-1.0,-2.0,-1.0,2.0,-5.0,1650847790784690.0
-3.0,-2.0,-1.0,2.0,-2.0,-9.0,-2.0,-3.0,1650847790786658.0
1.0,5.0,0.0,2.0,-2.0,-4.0,-10.0,-5.0,1650847790786658.0
1.0,-2.0,6.0,-6.0,0.0,17.0,31.0,19.0,1650847790807791.0
-4.0,-3.0,-22.0,0.0,-1.0,1.0,8.0,-1.0,1650847790807791.0
-8.0,-4.0,4.0,-1.0,-1.0,-2.0,-20.0,-24.0,1650847790808727.0
18.0,15.0,-11.0,-10.0,-9.0,-10.0,4.0,28.0,1650847790808727.0
-21.0,-4.0,15.0,4.0,-2.0,-8.0,-7.0,1.0,1650847790830035.0
-2.0,4.0,7.0,0.0,-3.0,0.0,-9.0,-23.0,1650847790830035.0
2.0,-8.0,0.0,6.0,2.0,0.0,-7.0,0.0,1650847790831964.0
0.0,-3.0,-18.0,-5.0,-1.0,4.0,7.0,-4.0,1650847790831964.0
2.0,5.0,31.0,8.0,3.0,-6.0,-16.0,-6.0,1650847790843940.0
0.0,-3.0,-35.0,-11.0,-2.0,5.0,5.0,7.0,1650847790843940.0
-6.0,-12.0,-5.0,2.0,4.0,-2.0,-4.0,0.0,1650847790850913.0
1.0,8.0,2.0,-11.0,-5.0,4.0,21.0,-1.0,1650847790850913.0
3.0,2.0,-14.0,-2.0,-2.0,-1.0,10.0,9.0,1650847790874882.0
11.0,9.0,26.0,12.0,5.0,-1.0,-8.0,3.0,1650847790874882.0
-11.0,-1.0,-1.0,-5.0,-4.0,-4.0,-5.0,-6.0,1650847790876811.0
4.0,1.0,-5.0,-2.0,-1.0,4.0,-12.0,-5.0,1650847790876811.0
-3.0,-6.0,18.0,7.0,0.0,-3.0,-1.0,-9.0,1650847790889842.0
5.0,0.0,-20.0,-6.0,-1.0,2.0,2.0,6.0,1650847790889842.0
5.0,4.0,-3.0,-3.0,-1.0,-4.0,7.0,5.0,1650847790891771.0
-4.0,2.0,9.0,5.0,5.0,7.0,0.0,-7.0,1650847790891771.0
1.0,-6.0,-24.0,-6.0,-1.0,-6.0,-25.0,-14.0,1650847790903740.0
0.0,13.0,27.0,11.0,0.0,-1.0,-1.0,5.0,1650847790903740.0
5.0,-7.0,-24.0,-12.0,-2.0,-2.0,-2.0,4.0,1650847790910720.0
-4.0,3.0,15.0,0.0,-2.0,1.0,12.0,0.0,1650847790910720.0
-3.0,-8.0,0.0,0.0,1.0,-9.0,-21.0,-11.0,1650847790927790.0
-14.0,-6.0,8.0,0.0,2.0,8.0,6.0,-13.0,1650847790927790.0
4.0,-1.0,-9.0,1.0,-4.0,-1.0,22.0,21.0,1650847790928788.0
2.0,-6.0,-16.0,-7.0,-1.0,-3.0,-10.0,-8.0,1650847790928788.0
-5.0,-4.0,-6.0,-3.0,-4.0,-4.0,-11.0,-12.0,1650847790949842.0
3.0,-5.0,10.0,0.0,1.0,1.0,2.0,10.0,1650847790949842.0
-3.0,5.0,7.0,5.0,2.0,2.0,15.0,10.0,1650847790951869.0
-4.0,1.0,-4.0,0.0,3.0,2.0,0.0,-11.0,1650847790951869.0
4.0,6.0,-4.0,0.0,0.0,-5.0,8.0,7.0,1650847790963818.0
-2.0,-10.0,-1.0,-6.0,-6.0,-10.0,-23.0,-7.0,1650847790963818.0
3.0,2.0,16.0,4.0,2.0,2.0,16.0,2.0,1650847790970854.0
-7.0,-11.0,-6.0,2.0,2.0,-4.0,-17.0,-7.0,1650847790970854.0
7.0,6.0,-6.0,-2.0,0.0,7.0,36.0,26.0,1650847790987848.0
-1.0,2.0,4.0,-2.0,-2.0,-4.0,-6.0,0.0,1650847790987848.0
1.0,3.0,-1.0,3.0,0.0,1.0,-6.0,-2.0,1650847790988850.0
-15.0,-14.0,-7.0,-1.0,0.0,4.0,3.0,-16.0,1650847790988850.0
5.0,15.0,2.0,-8.0,-7.0,-4.0,-13.0,-7.0,1650847791009954.0
-2.0,-5.0,-15.0,-4.0,-1.0,-1.0,8.0,8.0,1650847791009954.0
-2.0,-6.0,-20.0,-6.0,-3.0,-6.0,-11.0,-4.0,1650847791011882.0
-3.0,3.0,30.0,9.0,2.0,0.0,-12.0,-9.0,1650847791011882.0
0.0,-7.0,-23.0,-1.0,2.0,10.0,18.0,0.0,1650847791023861.0
9.0,10.0,-1.0,-7.0,-6.0,-5.0,0.0,7.0,1650847791023861.0
-2.0,-1.0,11.0,2.0,1.0,0.0,0.0,-1.0,1650847791030898.0
1.0,4.0,5.0,0.0,-1.0,-2.0,-3.0,4.0,1650847791030898.0
-3.0,-8.0,-30.0,-9.0,-5.0,-7.0,-15.0,-9.0,1650847791047812.0
0.0,2.0,18.0,6.0,3.0,9.0,1.0,-6.0,1650847791047812.0
-1.0,-5.0,-3.0,-1.0,-2.0,0.0,13.0,7.0,1650847791048782.0
-1.0,-5.0,4.0,5.0,3.0,0.0,13.0,16.0,1650847791048782.0
1.0,5.0,7.0,-1.0,-3.0,-4.0,-6.0,-3.0,1650847791069868.0
4.0,7.0,-12.0,-6.0,-2.0,-8.0,-2.0,-2.0,1650847791069868.0
-9.0,-6.0,-5.0,1.0,0.0,2.0,-10.0,0.0,1650847791075852.0
-1.0,3.0,13.0,0.0,0.0,0.0,-8.0,-17.0,1650847791075852.0
-1.0,-1.0,25.0,8.0,2.0,-3.0,0.0,14.0,1650847791084761.0
4.0,-12.0,-32.0,-3.0,5.0,12.0,16.0,8.0,1650847791084761.0
2.0,9.0,-8.0,-10.0,-8.0,-7.0,-8.0,-9.0,1650847791090812.0
2.0,1.0,-8.0,-1.0,0.0,-3.0,-10.0,1.0,1650847791090812.0
-2.0,-1.0,9.0,4.0,3.0,2.0,-2.0,-8.0,1650847791107834.0
-5.0,-2.0,7.0,0.0,-4.0,-4.0,0.0,-5.0,1650847791107834.0
3.0,2.0,6.0,3.0,2.0,1.0,4.0,8.0,1650847791108861.0
4.0,-3.0,-14.0,-6.0,-6.0,-1.0,17.0,18.0,1650847791108861.0
-13.0,2.0,10.0,2.0,1.0,0.0,-14.0,-27.0,1650847791130019.0
-3.0,-3.0,2.0,1.0,0.0,-3.0,-3.0,6.0,1650847791130019.0
3.0,2.0,-2.0,-4.0,-3.0,-2.0,-6.0,-9.0,1650847791130975.0
2.0,4.0,-9.0,-3.0,-1.0,-1.0,0.0,3.0,1650847791130975.0
1.0,-4.0,11.0,4.0,1.0,2.0,2.0,4.0,1650847791143982.0
-5.0,-4.0,1.0,-1.0,-2.0,-3.0,-2.0,0.0,1650847791143982.0
-1.0,-6.0,-16.0,-3.0,0.0,0.0,-6.0,-8.0,1650847791150895.0
2.0,8.0,8.0,2.0,2.0,3.0,5.0,3.0,1650847791150895.0
10.0,13.0,-6.0,-7.0,-4.0,0.0,11.0,14.0,1650847791166970.0
-12.0,-10.0,4.0,-1.0,-1.0,-1.0,-10.0,-10.0,1650847791166970.0
6.0,13.0,32.0,8.0,2.0,-1.0,-4.0,3.0,1650847791168965.0
-1.0,-9.0,-19.0,-4.0,-1.0,0.0,0.0,0.0,1650847791168965.0
-1.0,-8.0,-15.0,2.0,1.0,1.0,6.0,2.0,1650847791190058.0
1.0,6.0,12.0,-9.0,-4.0,-6.0,-4.0,2.0,1650847791190058.0
-5.0,-12.0,-25.0,-2.0,-1.0,0.0,-1.0,-3.0,1650847791190989.0
-2.0,-4.0,3.0,-1.0,1.0,-1.0,4.0,1.0,1650847791190989.0
0.0,-1.0,-7.0,-2.0,-2.0,-4.0,-16.0,-10.0,1650847791204001.0
3.0,10.0,37.0,7.0,0.0,3.0,16.0,4.0,1650847791204001.0
-1.0,-4.0,-7.0,-2.0,-1.0,-2.0,-10.0,-4.0,1650847791212940.0
-2.0,-4.0,2.0,1.0,1.0,3.0,-4.0,-11.0,1650847791212940.0
3.0,4.0,27.0,4.0,1.0,-3.0,8.0,16.0,1650847791227092.0
1.0,-3.0,-55.0,-12.0,-3.0,-1.0,-4.0,-1.0,1650847791227092.0
-5.0,0.0,27.0,7.0,2.0,-1.0,-1.0,-8.0,1650847791229064.0
-4.0,0.0,5.0,1.0,-1.0,-2.0,1.0,9.0,1650847791229064.0
2.0,-3.0,0.0,-5.0,-2.0,1.0,-6.0,-8.0,1650847791250350.0
2.0,5.0,16.0,8.0,1.0,-5.0,-16.0,-3.0,1650847791250350.0
-15.0,-9.0,11.0,-1.0,-2.0,3.0,8.0,-5.0,1650847791251311.0
6.0,6.0,-18.0,-4.0,-1.0,6.0,13.0,9.0,1650847791251311.0
-3.0,-6.0,1.0,3.0,1.0,-4.0,-4.0,-4.0,1650847791263341.0
-4.0,-7.0,-6.0,4.0,3.0,4.0,6.0,0.0,1650847791263341.0
9.0,12.0,-26.0,-12.0,-1.0,-3.0,-8.0,5.0,1650847791272271.0
-7.0,-12.0,2.0,1.0,-5.0,-10.0,-8.0,-9.0,1650847791272271.0
-4.0,-1.0,-12.0,-9.0,-1.0,4.0,-2.0,0.0,1650847791287833.0
3.0,3.0,23.0,8.0,1.0,-5.0,4.0,9.0,1650847791287833.0
0.0,1.0,8.0,2.0,-2.0,6.0,2.0,-6.0,1650847791288804.0
-2.0,7.0,2.0,-4.0,-3.0,-2.0,-14.0,-16.0,1650847791288804.0
2.0,-7.0,-5.0,-1.0,0.0,-1.0,15.0,16.0,1650847791309774.0
-5.0,-5.0,-10.0,2.0,1.0,0.0,2.0,-4.0,1650847791309774.0
3.0,3.0,43.0,4.0,0.0,-3.0,-5.0,-2.0,1650847791311743.0
-1.0,-7.0,-41.0,-5.0,-5.0,-2.0,4.0,12.0,1650847791311743.0
-4.0,-8.0,8.0,-1.0,-1.0,2.0,-1.0,-15.0,1650847791323712.0
-1.0,-3.0,-5.0,2.0,4.0,3.0,-4.0,-5.0,1650847791323712.0
4.0,2.0,-7.0,-4.0,-3.0,1.0,-2.0,9.0,1650847791332691.0
-2.0,6.0,36.0,7.0,1.0,-1.0,-16.0,-17.0,1650847791332691.0
2.0,14.0,5.0,-1.0,-1.0,-4.0,-5.0,-3.0,1650847791347713.0
-2.0,-7.0,-11.0,-5.0,-2.0,2.0,10.0,0.0,1650847791347713.0
1.0,-9.0,-11.0,0.0,1.0,-3.0,-3.0,-3.0,1650847791348675.0
1.0,4.0,30.0,4.0,0.0,0.0,-11.0,-7.0,1650847791348675.0
-2.0,-7.0,-24.0,1.0,2.0,3.0,18.0,11.0,1650847791369775.0
2.0,13.0,-5.0,-14.0,-6.0,-9.0,-11.0,-8.0,1650847791369775.0
3.0,4.0,6.0,2.0,0.0,7.0,10.0,10.0,1650847791371729.0
2.0,-4.0,-12.0,0.0,2.0,-1.0,10.0,12.0,1650847791371729.0
-1.0,0.0,7.0,3.0,-2.0,1.0,-10.0,-9.0,1650847791383671.0
3.0,9.0,25.0,7.0,1.0,-2.0,-14.0,-2.0,1650847791383671.0
-6.0,-14.0,-33.0,-5.0,0.0,-4.0,20.0,9.0,1650847791392187.0
-2.0,-5.0,1.0,2.0,-1.0,1.0,-12.0,-10.0,1650847791392187.0
3.0,6.0,16.0,2.0,-2.0,1.0,12.0,8.0,1650847791407262.0
-2.0,-10.0,-45.0,-13.0,-7.0,1.0,-6.0,-5.0,1650847791407262.0
-1.0,2.0,11.0,1.0,0.0,-5.0,-8.0,-5.0,1650847791409258.0
0.0,2.0,4.0,1.0,4.0,0.0,9.0,5.0,1650847791409258.0
-2.0,-1.0,-12.0,-5.0,-5.0,-3.0,-9.0,0.0,1650847791430287.0
-2.0,-2.0,13.0,10.0,4.0,9.0,11.0,1.0,1650847791430287.0
2.0,8.0,11.0,0.0,0.0,1.0,16.0,8.0,1650847791431268.0
-1.0,1.0,-14.0,-4.0,-1.0,-2.0,-5.0,-4.0,1650847791431268.0
-5.0,-10.0,-7.0,-1.0,2.0,-6.0,-7.0,-3.0,1650847791443262.0
0.0,-2.0,2.0,-2.0,1.0,3.0,-2.0,3.0,1650847791443262.0
2.0,1.0,-1.0,2.0,3.0,2.0,3.0,0.0,1650847791452310.0
-4.0,-5.0,1.0,1.0,0.0,3.0,4.0,4.0,1650847791452310.0
-1.0,2.0,5.0,1.0,1.0,0.0,-5.0,-3.0,1650847791467360.0
1.0,1.0,-2.0,3.0,1.0,-4.0,4.0,1.0,1650847791467360.0
-3.0,-3.0,-2.0,0.0,-1.0,-3.0,-8.0,-5.0,1650847791469289.0
2.0,3.0,-2.0,-4.0,-1.0,-3.0,-1.0,3.0,1650847791469289.0
-1.0,-1.0,0.0,0.0,1.0,0.0,-2.0,-4.0,1650847791490413.0
1.0,1.0,2.0,-1.0,-1.0,1.0,5.0,6.0,1650847791490413.0
-2.0,0.0,0.0,2.0,1.0,-1.0,-10.0,-22.0,1650847791491383.0
1.0,-9.0,0.0,-2.0,-2.0,0.0,4.0,3.0,1650847791491383.0
0.0,21.0,-4.0,-2.0,-3.0,-1.0,-2.0,0.0,1650847791503411.0
2.0,-3.0,3.0,1.0,1.0,-2.0,3.0,0.0,1650847791503411.0
0.0,0.0,-4.0,0.0,-2.0,-3.0,-7.0,-1.0,1650847791512332.0
0.0,-3.0,-3.0,-1.0,-1.0,3.0,3.0,1.0,1650847791512332.0
0.0,-1.0,-4.0,-2.0,1.0,1.0,0.0,-2.0,1650847791527347.0
-2.0,-18.0,-5.0,-4.0,-2.0,-2.0,-4.0,0.0,1650847791527347.0
-6.0,7.0,2.0,-1.0,-2.0,-2.0,-5.0,-6.0,1650847791529277.0
-1.0,0.0,-2.0,-1.0,-2.0,-1.0,-1.0,1.0,1650847791529277.0
2.0,-3.0,-4.0,0.0,-1.0,2.0,2.0,2.0,1650847791549825.0
-2.0,9.0,4.0,5.0,1.0,1.0,-1.0,1.0,1650847791549825.0
1.0,-2.0,8.0,-1.0,-2.0,-1.0,-3.0,0.0,1650847791551842.0
1.0,-4.0,-12.0,-3.0,-1.0,-1.0,1.0,1.0,1650847791551842.0
-5.0,-13.0,13.0,3.0,-1.0,0.0,-2.0,-3.0,1650847791563796.0
9.0,40.0,5.0,-1.0,-1.0,0.0,-1.0,0.0,1650847791563796.0
-4.0,-24.0,-15.0,-2.0,-1.0,-4.0,-2.0,0.0,1650847791572765.0
2.0,10.0,25.0,7.0,7.0,4.0,1.0,4.0,1650847791572765.0
-3.0,-17.0,-40.0,-11.0,-2.0,0.0,-4.0,-8.0,1650847791586791.0
-5.0,-9.0,38.0,12.0,-3.0,-5.0,-3.0,-3.0,1650847791586791.0
2.0,10.0,-13.0,-2.0,2.0,5.0,2.0,3.0,1650847791593778.0
0.0,-17.0,-18.0,-7.0,-4.0,-1.0,1.0,1.0,1650847791593778.0
2.0,32.0,35.0,23.0,5.0,-4.0,-1.0,1.0,1650847791610013.0
0.0,-2.0,-9.0,-6.0,2.0,2.0,1.0,1.0,1650847791610013.0
-5.0,-9.0,-31.0,-34.0,-14.0,-7.0,-3.0,-4.0,1650847791610945.0
-1.0,14.0,50.0,35.0,7.0,2.0,0.0,-1.0,1650847791610945.0
-4.0,-13.0,-9.0,-12.0,-3.0,-3.0,-2.0,-4.0,1650847791632006.0
0.0,12.0,12.0,2.0,0.0,2.0,2.0,4.0,1650847791632006.0
-2.0,-1.0,-4.0,13.0,4.0,0.0,-2.0,-2.0,1650847791633980.0
2.0,7.0,-8.0,-10.0,-3.0,-1.0,0.0,0.0,1650847791633980.0
0.0,-13.0,2.0,-3.0,-2.0,0.0,-1.0,2.0,1650847791646951.0
-2.0,9.0,0.0,-2.0,-1.0,-3.0,3.0,-1.0,1650847791646951.0
0.0,-3.0,6.0,1.0,2.0,0.0,1.0,4.0,1650847791648954.0
-2.0,-9.0,-19.0,-6.0,-1.0,0.0,-1.0,-2.0,1650847791648954.0
1.0,9.0,12.0,3.0,-1.0,0.0,0.0,-1.0,1650847791669977.0
-2.0,-21.0,-13.0,-1.0,3.0,1.0,0.0,-1.0,1650847791669977.0
2.0,0.0,2.0,0.0,0.0,0.0,-1.0,2.0,1650847791671905.0
-1.0,7.0,-5.0,-2.0,-1.0,-1.0,0.0,-2.0,1650847791671905.0
-2.0,-5.0,6.0,-2.0,-10.0,-2.0,-2.0,1.0,1650847791692848.0
-3.0,-10.0,-16.0,-6.0,-2.0,-2.0,-3.0,-3.0,1650847791692848.0
2.0,0.0,14.0,18.0,15.0,4.0,1.0,0.0,1650847791693849.0
-1.0,1.0,-10.0,-8.0,-3.0,-3.0,-4.0,-1.0,1650847791693849.0
1.0,-5.0,-13.0,-8.0,0.0,0.0,1.0,1.0,1650847791706878.0
-3.0,-10.0,-7.0,-9.0,-9.0,-4.0,0.0,-1.0,1650847791706878.0
3.0,14.0,15.0,6.0,-3.0,-2.0,0.0,2.0,1650847791713417.0
-2.0,-6.0,-16.0,-8.0,0.0,-1.0,-1.0,1.0,1650847791713417.0
-1.0,-7.0,-7.0,-1.0,4.0,1.0,-1.0,0.0,1650847791730309.0
1.0,13.0,4.0,6.0,2.0,-1.0,-2.0,-4.0,1650847791730309.0
-1.0,-5.0,5.0,-4.0,-2.0,0.0,1.0,0.0,1650847791731313.0
0.0,5.0,-1.0,-6.0,-6.0,-1.0,-2.0,-1.0,1650847791731313.0
-2.0,-7.0,-5.0,-2.0,0.0,-2.0,0.0,0.0,1650847791752865.0
-2.0,-8.0,0.0,-1.0,0.0,1.0,-2.0,-1.0,1650847791752865.0
2.0,16.0,6.0,0.0,-3.0,-1.0,-1.0,1.0,1650847791753863.0
0.0,-7.0,4.0,-8.0,-6.0,-1.0,-1.0,-2.0,1650847791753863.0
0.0,-8.0,-19.0,7.0,6.0,0.0,-1.0,0.0,1650847791766933.0
0.0,-1.0,-2.0,-1.0,-3.0,-1.0,0.0,1.0,1650847791766933.0
0.0,5.0,-3.0,-6.0,2.0,-1.0,-2.0,0.0,1650847791773897.0
-2.0,0.0,3.0,3.0,-3.0,-2.0,-1.0,0.0,1650847791773897.0
2.0,4.0,11.0,3.0,-1.0,2.0,0.0,-1.0,1650847791790039.0
-1.0,-3.0,-8.0,-2.0,1.0,-1.0,-1.0,0.0,1650847791790039.0
0.0,-6.0,-5.0,-3.0,-3.0,0.0,-1.0,-1.0,1650847791790970.0
2.0,3.0,4.0,0.0,-1.0,-2.0,1.0,0.0,1650847791790970.0
-1.0,-5.0,-7.0,2.0,-1.0,0.0,1.0,0.0,1650847791812050.0
-1.0,3.0,-2.0,-1.0,-1.0,-2.0,-3.0,-1.0,1650847791812050.0
0.0,2.0,6.0,2.0,0.0,0.0,0.0,1.0,1650847791813988.0
0.0,-2.0,-6.0,1.0,1.0,2.0,-1.0,0.0,1650847791813988.0
0.0,5.0,1.0,-4.0,-4.0,0.0,0.0,0.0,1650847791827008.0
-1.0,-4.0,1.0,1.0,0.0,0.0,0.0,0.0,1650847791827008.0
0.0,-4.0,0.0,0.0,-1.0,-1.0,-1.0,0.0,1650847791833992.0
-2.0,-1.0,-3.0,-2.0,1.0,-1.0,-1.0,-1.0,1650847791833992.0
1.0,-2.0,-1.0,0.0,-1.0,-1.0,2.0,1.0,1650847791849949.0
-1.0,0.0,-1.0,3.0,-1.0,0.0,-1.0,-2.0,1650847791849949.0
-1.0,-5.0,1.0,-3.0,-1.0,1.0,0.0,-2.0,1650847791851882.0
1.0,4.0,-3.0,1.0,-1.0,-2.0,1.0,0.0,1650847791851882.0
-3.0,-2.0,0.0,-1.0,0.0,1.0,1.0,1.0,1650847791872848.0
-1.0,-3.0,-1.0,1.0,-2.0,-1.0,0.0,-1.0,1650847791872848.0
-1.0,-1.0,-1.0,2.0,-4.0,-1.0,-2.0,1.0,1650847791873829.0
-1.0,-4.0,1.0,0.0,3.0,0.0,0.0,0.0,1650847791873829.0
0.0,4.0,2.0,-2.0,-2.0,-1.0,-2.0,0.0,1650847791886850.0
3.0,-2.0,-4.0,-2.0,-1.0,1.0,2.0,-1.0,1650847791886850.0
0.0,-1.0,-1.0,1.0,0.0,0.0,0.0,-2.0,1650847791893831.0
-2.0,1.0,1.0,0.0,1.0,0.0,-1.0,0.0,1650847791893831.0
-1.0,0.0,-1.0,-7.0,-2.0,0.0,-1.0,1.0,1650847791909867.0
-1.0,2.0,2.0,9.0,-1.0,-1.0,-1.0,2.0,1650847791909867.0
-1.0,-5.0,-1.0,-1.0,-2.0,-2.0,1.0,-2.0,1650847791911796.0
-1.0,-2.0,-2.0,1.0,5.0,1.0,1.0,-1.0,1650847791911796.0
-1.0,-2.0,0.0,5.0,3.0,-2.0,0.0,-3.0,1650847791932806.0
-1.0,-3.0,1.0,-4.0,-4.0,-1.0,0.0,1.0,1650847791932806.0
-1.0,-1.0,-1.0,-2.0,-4.0,-2.0,-2.0,0.0,1650847791933745.0
0.0,-1.0,-1.0,-1.0,0.0,1.0,0.0,-1.0,1650847791933745.0
-1.0,2.0,-1.0,2.0,0.0,0.0,-1.0,-2.0,1650847791946702.0
-3.0,-3.0,-3.0,-2.0,-1.0,-1.0,-1.0,-2.0,1650847791946702.0
-2.0,-4.0,-2.0,-1.0,-1.0,-1.0,-1.0,0.0,1650847791953685.0
0.0,-1.0,-2.0,-6.0,-5.0,0.0,-1.0,2.0,1650847791953685.0
0.0,-1.0,0.0,-1.0,2.0,0.0,1.0,1.0,1650847791969986.0
2.0,0.0,-2.0,-1.0,0.0,-1.0,-3.0,-1.0,1650847791969986.0
-2.0,-1.0,-2.0,0.0,0.0,1.0,-1.0,-1.0,1650847791971951.0
-1.0,1.0,1.0,1.0,-3.0,-1.0,-2.0,-1.0,1650847791971951.0
-1.0,2.0,2.0,-3.0,-5.0,0.0,-2.0,-1.0,1650847791992884.0
-2.0,-2.0,-1.0,-1.0,2.0,-2.0,0.0,1.0,1650847791992884.0
0.0,-2.0,-3.0,-1.0,1.0,0.0,2.0,-1.0,1650847791993831.0
0.0,2.0,-1.0,0.0,-1.0,-2.0,1.0,0.0,1650847791993831.0
-1.0,0.0,0.0,2.0,3.0,-1.0,-2.0,-2.0,1650847792006862.0
0.0,-1.0,-1.0,-5.0,-1.0,-1.0,-1.0,0.0,1650847792006862.0
0.0,0.0,-1.0,-1.0,0.0,-1.0,1.0,-2.0,1650847792013288.0
-3.0,-4.0,-1.0,0.0,-1.0,-2.0,0.0,-2.0,1650847792013288.0
-1.0,1.0,1.0,-2.0,-1.0,0.0,-1.0,1.0,1650847792030256.0
-1.0,-2.0,-1.0,1.0,1.0,0.0,0.0,0.0,1650847792030256.0
-1.0,0.0,-2.0,0.0,0.0,0.0,0.0,-1.0,1650847792031253.0
1.0,0.0,0.0,-2.0,-1.0,-3.0,-1.0,0.0,1650847792031253.0
1.0,0.0,-2.0,-1.0,-1.0,-1.0,-1.0,0.0,1650847792052183.0
-4.0,-4.0,-2.0,-1.0,-1.0,0.0,0.0,-1.0,1650847792052183.0
1.0,-1.0,-1.0,0.0,0.0,-1.0,0.0,0.0,1650847792054178.0
-1.0,0.0,2.0,1.0,-2.0,-1.0,-3.0,-1.0,1650847792054178.0
-3.0,-1.0,-1.0,-1.0,0.0,-1.0,0.0,0.0,1650847792067189.0
-1.0,0.0,0.0,0.0,1.0,1.0,0.0,-1.0,1650847792067189.0
0.0,0.0,1.0,-2.0,-2.0,1.0,0.0,-1.0,1650847792073251.0
-1.0,-3.0,-2.0,-1.0,1.0,-1.0,0.0,-1.0,1650847792073251.0
0.0,-6.0,-3.0,-5.0,-3.0,-2.0,-1.0,-2.0,1650847792090305.0
1.0,3.0,1.0,3.0,4.0,0.0,-1.0,-1.0,1650847792090305.0
0.0,-1.0,0.0,-2.0,-1.0,-2.0,-1.0,1.0,1650847792091297.0
-2.0,1.0,-2.0,-1.0,-4.0,0.0,1.0,2.0,1650847792091297.0
0.0,0.0,-2.0,1.0,-2.0,-2.0,-1.0,-1.0,1650847792112123.0
-1.0,-1.0,-3.0,-4.0,-1.0,-2.0,0.0,1.0,1650847792112123.0
0.0,-1.0,2.0,9.0,4.0,1.0,-2.0,0.0,1650847792114122.0
-1.0,2.0,2.0,-1.0,-3.0,-1.0,0.0,-3.0,1650847792114122.0
-1.0,1.0,1.0,-1.0,0.0,-1.0,1.0,-2.0,1650847792126157.0
0.0,0.0,-2.0,-1.0,-2.0,-1.0,-1.0,0.0,1650847792126157.0
0.0,-1.0,-2.0,-3.0,-3.0,-2.0,-1.0,0.0,1650847792135072.0
2.0,0.0,1.0,2.0,4.0,0.0,0.0,1.0,1650847792135072.0
-1.0,2.0,-2.0,0.0,-2.0,-1.0,0.0,0.0,1650847792150092.0
-1.0,0.0,2.0,0.0,-1.0,0.0,0.0,-2.0,1650847792150092.0
-1.0,-2.0,1.0,-1.0,-1.0,-2.0,0.0,0.0,1650847792151050.0
-1.0,-3.0,-1.0,0.0,-1.0,-1.0,-2.0,-1.0,1650847792151050.0
0.0,2.0,2.0,0.0,0.0,0.0,0.0,-1.0,1650847792172134.0
-3.0,-2.0,0.0,1.0,1.0,1.0,-1.0,-1.0,1650847792172134.0
0.0,1.0,-1.0,-4.0,-4.0,-4.0,-1.0,0.0,1650847792174160.0
1.0,2.0,0.0,-1.0,0.0,-2.0,-2.0,-1.0,1650847792174160.0
2.0,1.0,0.0,3.0,3.0,1.0,0.0,0.0,1650847792194894.0
1.0,-1.0,-1.0,1.0,0.0,0.0,1.0,0.0,1650847792194894.0
-2.0,-1.0,-2.0,1.0,-2.0,2.0,-1.0,0.0,1650847792196824.0
-3.0,-2.0,-2.0,-2.0,0.0,0.0,0.0,-1.0,1650847792196824.0
-4.0,-2.0,-1.0,0.0,0.0,-1.0,0.0,1.0,1650847792210244.0
2.0,0.0,1.0,-1.0,-4.0,-2.0,1.0,-2.0,1650847792210244.0
0.0,1.0,-2.0,-2.0,1.0,2.0,0.0,0.0,1650847792211181.0
-1.0,-2.0,-2.0,-2.0,-1.0,-1.0,-2.0,0.0,1650847792211181.0
2.0,-2.0,0.0,1.0,-2.0,0.0,-1.0,-2.0,1650847792232813.0
-1.0,-2.0,-1.0,-2.0,0.0,0.0,1.0,0.0,1650847792232813.0
-3.0,2.0,1.0,-1.0,-1.0,-2.0,-1.0,0.0,1650847792233747.0
0.0,-2.0,-1.0,0.0,3.0,-1.0,1.0,-2.0,1650847792233747.0
-2.0,-2.0,-3.0,-13.0,-7.0,-2.0,-2.0,-1.0,1650847792245781.0
1.0,5.0,8.0,20.0,5.0,2.0,1.0,2.0,1650847792245781.0
2.0,-1.0,1.0,4.0,4.0,3.0,-2.0,0.0,1650847792254737.0
1.0,0.0,-1.0,-5.0,-3.0,-2.0,1.0,1.0,1650847792254737.0
-2.0,-2.0,-2.0,-2.0,-2.0,-2.0,-1.0,0.0,1650847792269652.0
-1.0,-2.0,-4.0,-9.0,-5.0,-4.0,-1.0,0.0,1650847792269652.0
-1.0,1.0,2.0,2.0,1.0,0.0,-1.0,0.0,1650847792271646.0
-1.0,-1.0,-1.0,0.0,0.0,2.0,1.0,1.0,1650847792271646.0
0.0,0.0,2.0,5.0,2.0,1.0,-1.0,-1.0,1650847792292784.0
0.0,-1.0,-3.0,-4.0,-1.0,0.0,-1.0,1.0,1650847792292784.0
-1.0,-2.0,0.0,-3.0,-2.0,-2.0,0.0,-2.0,1650847792293776.0
-1.0,-1.0,-1.0,-1.0,-1.0,1.0,-2.0,-2.0,1650847792293776.0
-1.0,-5.0,0.0,1.0,2.0,-2.0,0.0,1.0,1650847792305813.0
-1.0,0.0,-1.0,-3.0,0.0,-1.0,-1.0,-1.0,1650847792305813.0
-2.0,-1.0,-2.0,-3.0,-2.0,-3.0,-1.0,0.0,1650847792314736.0
1.0,2.0,0.0,0.0,-2.0,-1.0,-3.0,0.0,1650847792314736.0
0.0,-2.0,-1.0,3.0,-1.0,0.0,1.0,-2.0,1650847792329759.0
0.0,-2.0,0.0,0.0,-2.0,-1.0,-2.0,-2.0,1650847792329759.0
0.0,1.0,0.0,-2.0,3.0,1.0,1.0,0.0,1650847792331687.0
-1.0,-1.0,-2.0,-1.0,-2.0,-1.0,0.0,-1.0,1650847792331687.0
-1.0,2.0,-1.0,0.0,0.0,0.0,-1.0,-2.0,1650847792352631.0
-1.0,-3.0,-3.0,-4.0,-4.0,-1.0,0.0,0.0,1650847792352631.0
-1.0,-1.0,0.0,0.0,-2.0,-1.0,2.0,-1.0,1650847792353647.0
-1.0,-1.0,-1.0,0.0,1.0,0.0,1.0,0.0,1650847792353647.0
-2.0,-4.0,-1.0,-1.0,-4.0,-3.0,0.0,0.0,1650847792366593.0
3.0,5.0,1.0,-1.0,0.0,-1.0,-1.0,-1.0,1650847792366593.0
-1.0,-1.0,-1.0,0.0,-2.0,1.0,0.0,0.0,1650847792374699.0
-1.0,0.0,0.0,2.0,3.0,2.0,0.0,1.0,1650847792374699.0
-2.0,0.0,-1.0,-1.0,1.0,0.0,0.0,1.0,1650847792389927.0
-2.0,-3.0,-5.0,-5.0,-3.0,-1.0,-2.0,-1.0,1650847792389927.0
-1.0,-2.0,-1.0,-3.0,-6.0,-5.0,-3.0,-2.0,1650847792391854.0
0.0,0.0,0.0,6.0,3.0,3.0,-1.0,1.0,1650847792391854.0
0.0,1.0,1.0,-1.0,-2.0,0.0,-2.0,0.0,1650847792412809.0
-1.0,0.0,-3.0,-3.0,-2.0,0.0,0.0,0.0,1650847792412809.0
1.0,1.0,-2.0,0.0,0.0,1.0,0.0,-1.0,1650847792413775.0
-3.0,-8.0,-2.0,-2.0,-1.0,-3.0,0.0,-4.0,1650847792413775.0
2.0,3.0,-1.0,0.0,-1.0,-1.0,-1.0,1.0,1650847792425815.0
-1.0,1.0,-1.0,0.0,1.0,1.0,-1.0,0.0,1650847792425815.0
0.0,-2.0,-1.0,-2.0,0.0,0.0,-1.0,1.0,1650847792434725.0
-2.0,-2.0,-3.0,-4.0,-3.0,-3.0,-1.0,1.0,1650847792434725.0
0.0,4.0,-2.0,1.0,3.0,-3.0,-1.0,-1.0,1650847792450378.0
-2.0,-1.0,1.0,1.0,-1.0,-2.0,-2.0,0.0,1650847792450378.0
0.0,-3.0,-2.0,-1.0,-2.0,0.0,1.0,0.0,1650847792451300.0
3.0,2.0,2.0,1.0,5.0,2.0,1.0,0.0,1650847792451300.0
-2.0,-5.0,-5.0,-3.0,-1.0,0.0,0.0,-3.0,1650847792472356.0
0.0,-3.0,-6.0,-5.0,-2.0,-2.0,-1.0,-2.0,1650847792472356.0
1.0,7.0,13.0,8.0,0.0,0.0,-1.0,-1.0,1650847792474392.0
0.0,-2.0,-2.0,-5.0,-4.0,-2.0,0.0,0.0,1650847792474392.0
-2.0,0.0,1.0,0.0,-1.0,1.0,0.0,0.0,1650847792486318.0
-3.0,-2.0,1.0,5.0,2.0,2.0,-1.0,-1.0,1650847792486318.0
0.0,-2.0,-9.0,-4.0,-1.0,-1.0,0.0,0.0,1650847792495295.0
0.0,2.0,2.0,1.0,-1.0,-1.0,0.0,0.0,1650847792495295.0
0.0,-2.0,-1.0,-4.0,-4.0,-3.0,-2.0,-1.0,1650847792509824.0
1.0,1.0,2.0,1.0,2.0,-1.0,-1.0,1.0,1650847792509824.0
-1.0,2.0,3.0,3.0,4.0,3.0,0.0,0.0,1650847792511848.0
-1.0,1.0,-3.0,-2.0,-1.0,0.0,0.0,0.0,1650847792511848.0
1.0,2.0,-6.0,-2.0,-2.0,2.0,-1.0,-1.0,1650847792532814.0
1.0,-1.0,1.0,-2.0,-3.0,-2.0,0.0,0.0,1650847792532814.0
-1.0,-2.0,-2.0,-2.0,-4.0,-2.0,-1.0,0.0,1650847792533762.0
3.0,7.0,4.0,1.0,2.0,-3.0,-1.0,1.0,1650847792533762.0
0.0,-3.0,0.0,-1.0,3.0,3.0,0.0,0.0,1650847792545793.0
0.0,0.0,-2.0,-4.0,-1.0,1.0,0.0,1.0,1650847792545793.0
0.0,-3.0,-1.0,0.0,-1.0,-3.0,-2.0,-1.0,1650847792554738.0
0.0,0.0,-3.0,0.0,-3.0,-1.0,-1.0,-1.0,1650847792554738.0
-1.0,-1.0,2.0,-1.0,0.0,-1.0,1.0,-1.0,1650847792569667.0
-1.0,0.0,1.0,-2.0,0.0,0.0,-1.0,-1.0,1650847792569667.0
-1.0,-7.0,-7.0,-2.0,-1.0,0.0,-1.0,-3.0,1650847792571689.0
-2.0,7.0,7.0,0.0,-2.0,-1.0,-1.0,0.0,1650847792571689.0
0.0,-1.0,2.0,0.0,0.0,1.0,1.0,1.0,1650847792593233.0
-1.0,1.0,0.0,0.0,1.0,0.0,2.0,1.0,1650847792593233.0
-2.0,-4.0,-1.0,-2.0,-2.0,0.0,0.0,0.0,1650847792594269.0
-1.0,-3.0,-1.0,1.0,-1.0,-2.0,-3.0,-2.0,1650847792594269.0
-1.0,-1.0,1.0,-1.0,-4.0,-2.0,0.0,0.0,1650847792615150.0
-1.0,0.0,-2.0,-1.0,1.0,0.0,0.0,0.0,1650847792615150.0
0.0,0.0,-5.0,-1.0,3.0,1.0,-1.0,0.0,1650847792616151.0
-2.0,-1.0,4.0,4.0,-3.0,0.0,0.0,0.0,1650847792616151.0
2.0,3.0,0.0,1.0,2.0,-1.0,-2.0,1.0,1650847792630318.0
-1.0,-6.0,-5.0,-2.0,-2.0,-2.0,1.0,-1.0,1650847792630318.0
1.0,2.0,2.0,2.0,5.0,0.0,-2.0,1.0,1650847792632248.0
0.0,0.0,1.0,4.0,0.0,-1.0,-2.0,-1.0,1650847792632248.0
-1.0,0.0,-4.0,-2.0,-3.0,0.0,0.0,0.0,1650847792652193.0
-1.0,1.0,-1.0,2.0,0.0,0.0,0.0,-1.0,1650847792652193.0
1.0,1.0,-2.0,-4.0,-3.0,-2.0,-1.0,0.0,1650847792654201.0
-2.0,-1.0,-2.0,-1.0,2.0,1.0,-1.0,-3.0,1650847792654201.0
1.0,2.0,8.0,1.0,-3.0,-4.0,1.0,-2.0,1650847792675286.0
-2.0,-5.0,0.0,-3.0,-4.0,0.0,0.0,-2.0,1650847792675286.0
1.0,-1.0,-14.0,-4.0,1.0,3.0,1.0,-2.0,1650847792676230.0
-2.0,2.0,10.0,8.0,0.0,-1.0,-1.0,-2.0,1650847792676230.0
-1.0,0.0,2.0,2.0,0.0,0.0,-1.0,0.0,1650847792690205.0
-3.0,-1.0,-4.0,1.0,-1.0,-2.0,-1.0,0.0,1650847792690205.0
-2.0,-4.0,-1.0,-1.0,-3.0,-3.0,-2.0,-1.0,1650847792691176.0
0.0,-5.0,-6.0,-10.0,-2.0,0.0,0.0,-1.0,1650847792691176.0
-1.0,-2.0,-6.0,4.0,2.0,0.0,-1.0,1.0,1650847792712119.0
-1.0,4.0,15.0,2.0,-1.0,-3.0,-2.0,-3.0,1650847792712119.0
0.0,0.0,0.0,1.0,2.0,-1.0,1.0,-1.0,1650847792714114.0
-2.0,-7.0,-7.0,-6.0,-5.0,-3.0,1.0,0.0,1650847792714114.0
0.0,-2.0,-2.0,-4.0,-2.0,0.0,-1.0,0.0,1650847792735058.0
0.0,-3.0,-7.0,-2.0,-5.0,0.0,-1.0,-1.0,1650847792735058.0
-1.0,6.0,14.0,6.0,4.0,3.0,-1.0,0.0,1650847792736080.0
-1.0,-4.0,6.0,2.0,2.0,-1.0,-1.0,0.0,1650847792736080.0
-2.0,-3.0,-7.0,0.0,2.0,0.0,0.0,0.0,1650847792749152.0
0.0,-3.0,-2.0,-3.0,0.0,-1.0,0.0,2.0,1650847792749152.0
1.0,4.0,1.0,1.0,-2.0,-1.0,-1.0,-3.0,1650847792756136.0
-3.0,-3.0,5.0,0.0,-1.0,-1.0,0.0,-1.0,1650847792756136.0
-1.0,0.0,-1.0,-3.0,-1.0,-2.0,-2.0,-2.0,1650847792772061.0
0.0,-1.0,-6.0,-1.0,1.0,1.0,1.0,0.0,1650847792772061.0
-1.0,-1.0,9.0,1.0,-2.0,-1.0,0.0,-1.0,1650847792774022.0
-1.0,-3.0,-10.0,-7.0,-7.0,-3.0,2.0,-1.0,1650847792774022.0
0.0,3.0,9.0,7.0,-1.0,-3.0,-2.0,-1.0,1650847792794977.0
0.0,-3.0,2.0,3.0,5.0,10.0,3.0,2.0,1650847792794977.0
1.0,0.0,6.0,0.0,-1.0,-2.0,-1.0,-1.0,1650847792796969.0
-1.0,0.0,-1.0,-5.0,-5.0,2.0,0.0,-1.0,1650847792796969.0
0.0,-1.0,-8.0,1.0,6.0,-4.0,-4.0,-1.0,1650847792808929.0
2.0,0.0,0.0,-1.0,1.0,2.0,4.0,1.0,1650847792808929.0
-3.0,-3.0,-4.0,-3.0,-2.0,-1.0,-3.0,-2.0,1650847792815922.0
1.0,2.0,5.0,-1.0,1.0,2.0,-1.0,1.0,1650847792815922.0
0.0,-6.0,-9.0,-6.0,-6.0,-2.0,0.0,0.0,1650847792831897.0
-3.0,0.0,2.0,2.0,-4.0,-7.0,-9.0,-6.0,1650847792831897.0
0.0,-2.0,0.0,-1.0,-2.0,0.0,0.0,-1.0,1650847792833863.0
1.0,7.0,-4.0,2.0,2.0,1.0,3.0,1.0,1650847792833863.0
0.0,-2.0,11.0,2.0,1.0,3.0,2.0,0.0,1650847792854988.0
-2.0,-3.0,5.0,0.0,1.0,2.0,4.0,2.0,1650847792854988.0
-2.0,-8.0,-25.0,-10.0,-5.0,-3.0,-5.0,-1.0,1650847792856927.0
3.0,7.0,21.0,10.0,0.0,-7.0,-3.0,-3.0,1650847792856927.0
-1.0,-3.0,-4.0,-1.0,1.0,11.0,6.0,1.0,1650847792869825.0
2.0,7.0,-7.0,-3.0,0.0,-3.0,-1.0,1.0,1650847792869825.0
-4.0,-9.0,-19.0,-8.0,-7.0,-8.0,-7.0,-2.0,1650847792877839.0
0.0,-4.0,6.0,-1.0,1.0,3.0,0.0,1.0,1650847792877839.0
-1.0,0.0,-4.0,0.0,0.0,-3.0,-4.0,-2.0,1650847792892816.0
1.0,-2.0,7.0,-2.0,-1.0,-4.0,0.0,-1.0,1650847792892816.0
1.0,7.0,-12.0,1.0,1.0,3.0,4.0,2.0,1650847792893818.0
-4.0,-5.0,-15.0,-5.0,-3.0,-1.0,-2.0,-2.0,1650847792893818.0
-2.0,-2.0,10.0,1.0,-1.0,-1.0,1.0,0.0,1650847792922813.0
-2.0,2.0,-3.0,0.0,-2.0,-2.0,-4.0,-3.0,1650847792922813.0
1.0,0.0,6.0,2.0,2.0,-3.0,3.0,0.0,1650847792923745.0
0.0,-1.0,1.0,2.0,4.0,7.0,3.0,2.0,1650847792923745.0
-1.0,3.0,0.0,1.0,1.0,2.0,2.0,1.0,1650847792928720.0
-1.0,-8.0,-2.0,-4.0,-2.0,-5.0,-3.0,1.0,1650847792928720.0
2.0,2.0,2.0,2.0,-3.0,-2.0,0.0,0.0,1650847792935728.0
1.0,2.0,-8.0,-2.0,-3.0,-2.0,-1.0,1.0,1650847792935728.0
1.0,5.0,6.0,-1.0,1.0,1.0,2.0,3.0,1650847792952722.0
-4.0,-5.0,-5.0,1.0,-2.0,-3.0,-8.0,-5.0,1650847792952722.0
1.0,2.0,24.0,2.0,1.0,1.0,1.0,0.0,1650847792953653.0
-1.0,-5.0,-18.0,-1.0,-1.0,1.0,0.0,0.0,1650847792953653.0
0.0,2.0,-1.0,2.0,-2.0,-5.0,-3.0,-1.0,1650847792974869.0
0.0,2.0,3.0,-1.0,-6.0,1.0,-1.0,0.0,1650847792974869.0
-1.0,1.0,1.0,3.0,5.0,5.0,3.0,2.0,1650847792976820.0
-1.0,-1.0,-7.0,-4.0,-1.0,-4.0,-3.0,-1.0,1650847792976820.0
-2.0,-6.0,-8.0,-5.0,-2.0,0.0,0.0,-4.0,1650847792988763.0
-2.0,0.0,0.0,2.0,1.0,2.0,3.0,0.0,1650847792988763.0
-2.0,-3.0,-6.0,-2.0,-5.0,0.0,1.0,-1.0,1650847792997838.0
-1.0,3.0,6.0,2.0,1.0,-1.0,-2.0,-1.0,1650847792997838.0
0.0,1.0,4.0,0.0,-2.0,-2.0,0.0,1.0,1650847793012782.0
3.0,0.0,-4.0,-3.0,-1.0,1.0,2.0,0.0,1650847793012782.0
-3.0,-8.0,-3.0,-4.0,-1.0,-1.0,-3.0,-3.0,1650847793013776.0
0.0,-6.0,-9.0,-4.0,-3.0,-2.0,0.0,-1.0,1650847793013776.0
1.0,4.0,4.0,2.0,0.0,-1.0,-1.0,-2.0,1650847793034918.0
-2.0,-2.0,6.0,4.0,-1.0,-3.0,0.0,-3.0,1650847793034918.0
-1.0,0.0,1.0,-1.0,2.0,1.0,2.0,1.0,1650847793036872.0
0.0,1.0,-1.0,-3.0,-2.0,0.0,1.0,-1.0,1650847793036872.0
-1.0,-2.0,-3.0,-2.0,-2.0,2.0,0.0,1.0,1650847793048820.0
0.0,0.0,-8.0,0.0,0.0,0.0,0.0,1.0,1650847793048820.0
-1.0,0.0,9.0,-2.0,-4.0,0.0,-2.0,-2.0,1650847793055860.0
0.0,0.0,-10.0,1.0,2.0,-1.0,0.0,0.0,1650847793055860.0
-1.0,-2.0,1.0,-1.0,-2.0,-2.0,-3.0,-5.0,1650847793072848.0
1.0,3.0,4.0,0.0,0.0,1.0,2.0,0.0,1650847793072848.0
0.0,0.0,-1.0,-1.0,-1.0,-1.0,-2.0,-2.0,1650847793073817.0
-1.0,0.0,1.0,2.0,1.0,-1.0,-3.0,0.0,1650847793073817.0
-1.0,0.0,-3.0,-5.0,-3.0,0.0,-1.0,-1.0,1650847793094827.0
1.0,-1.0,0.0,1.0,-1.0,0.0,-1.0,1.0,1650847793094827.0
1.0,2.0,3.0,1.0,0.0,-1.0,0.0,-1.0,1650847793096785.0
0.0,3.0,3.0,-2.0,2.0,5.0,4.0,2.0,1650847793096785.0
-3.0,-2.0,-1.0,4.0,0.0,-6.0,-4.0,-3.0,1650847793108805.0
-2.0,1.0,0.0,-1.0,1.0,4.0,1.0,1.0,1650847793108805.0
-1.0,-4.0,-6.0,0.0,0.0,-2.0,0.0,-1.0,1650847793117151.0
0.0,1.0,8.0,-1.0,-2.0,-3.0,-3.0,-3.0,1650847793117151.0
0.0,3.0,-3.0,0.0,0.0,1.0,-1.0,-1.0,1650847793132116.0
-1.0,1.0,8.0,3.0,-3.0,-2.0,1.0,0.0,1650847793132116.0
0.0,0.0,0.0,6.0,5.0,5.0,2.0,0.0,1650847793134108.0
-4.0,-5.0,-6.0,-1.0,-3.0,-3.0,-1.0,-1.0,1650847793134108.0
0.0,-1.0,9.0,0.0,1.0,2.0,1.0,-1.0,1650847793155064.0
2.0,3.0,-1.0,0.0,1.0,-2.0,-2.0,-2.0,1650847793155064.0
-2.0,-3.0,-10.0,-2.0,-3.0,-2.0,-2.0,-1.0,1650847793156050.0
2.0,2.0,8.0,0.0,-2.0,-1.0,0.0,-1.0,1650847793156050.0
-2.0,-5.0,-6.0,-6.0,-1.0,0.0,-3.0,0.0,1650847793169037.0
-1.0,-4.0,-2.0,1.0,-1.0,-3.0,-1.0,-1.0,1650847793169037.0
1.0,2.0,0.0,0.0,-2.0,1.0,1.0,1.0,1650847793177989.0
-2.0,0.0,-1.0,-3.0,2.0,2.0,-1.0,0.0,1650847793177989.0
-1.0,-5.0,-6.0,1.0,1.0,-2.0,-2.0,-1.0,1650847793192867.0
2.0,0.0,-4.0,-3.0,1.0,0.0,2.0,1.0,1650847793192867.0
-1.0,1.0,0.0,0.0,-2.0,-3.0,-3.0,-2.0,1650847793193867.0
1.0,0.0,-4.0,-4.0,-4.0,-2.0,0.0,3.0,1650847793193867.0
2.0,1.0,5.0,-2.0,3.0,5.0,9.0,4.0,1650847793214827.0
-4.0,0.0,5.0,5.0,-2.0,-3.0,-3.0,-2.0,1650847793214827.0
0.0,0.0,-1.0,-4.0,-4.0,-2.0,-3.0,-3.0,1650847793216794.0
-1.0,-1.0,-5.0,1.0,2.0,-2.0,-2.0,-3.0,1650847793216794.0
0.0,-3.0,4.0,1.0,1.0,1.0,-1.0,0.0,1650847793228956.0
-1.0,-1.0,3.0,-3.0,0.0,0.0,1.0,0.0,1650847793228956.0
1.0,3.0,-12.0,-2.0,-3.0,-2.0,2.0,0.0,1650847793237762.0
-2.0,-2.0,-1.0,1.0,1.0,3.0,-4.0,-4.0,1650847793237762.0
-1.0,0.0,5.0,1.0,-2.0,-6.0,-3.0,1.0,1650847793251924.0
1.0,1.0,-3.0,-2.0,0.0,2.0,3.0,1.0,1650847793251924.0
-2.0,-2.0,19.0,7.0,-2.0,-4.0,-2.0,0.0,1650847793253925.0
3.0,7.0,4.0,2.0,3.0,2.0,1.0,0.0,1650847793253925.0
0.0,-1.0,1.0,-1.0,-1.0,-3.0,-2.0,-1.0,1650847793274924.0
0.0,-2.0,-11.0,-5.0,-4.0,2.0,0.0,0.0,1650847793274924.0
-1.0,-3.0,-4.0,-2.0,2.0,1.0,3.0,2.0,1650847793276838.0
0.0,-1.0,-3.0,0.0,0.0,0.0,4.0,0.0,1650847793276838.0
0.0,3.0,9.0,1.0,-3.0,-5.0,-10.0,-2.0,1650847793288833.0
0.0,0.0,-3.0,0.0,2.0,5.0,2.0,-3.0,1650847793288833.0
0.0,-5.0,3.0,0.0,-1.0,1.0,2.0,1.0,1650847793297781.0
0.0,-2.0,-2.0,-6.0,-4.0,-1.0,4.0,2.0,1650847793297781.0
-6.0,3.0,-7.0,-1.0,-7.0,-7.0,-10.0,-10.0,1650847793312846.0
1.0,-7.0,-9.0,3.0,-1.0,-1.0,8.0,8.0,1650847793312846.0
-1.0,2.0,-14.0,-13.0,-2.0,0.0,-5.0,-3.0,1650847793313840.0
-8.0,-17.0,-5.0,2.0,-3.0,-4.0,0.0,0.0,1650847793313840.0
1.0,7.0,6.0,9.0,8.0,4.0,0.0,-4.0,1650847793334851.0
-5.0,-6.0,20.0,-7.0,-8.0,-7.0,-12.0,-8.0,1650847793334851.0
6.0,-2.0,-21.0,5.0,6.0,6.0,10.0,10.0,1650847793336808.0
4.0,25.0,-7.0,-11.0,-4.0,-5.0,-8.0,-2.0,1650847793336808.0
1.0,-8.0,4.0,11.0,0.0,0.0,9.0,4.0,1650847793348750.0
-2.0,2.0,12.0,5.0,3.0,0.0,-2.0,-2.0,1650847793348750.0
-2.0,-7.0,-9.0,-15.0,-9.0,-8.0,-7.0,-2.0,1650847793363886.0
-2.0,5.0,12.0,1.0,-1.0,0.0,-3.0,-4.0,1650847793363886.0
8.0,-6.0,-25.0,-5.0,3.0,8.0,24.0,18.0,1650847793372816.0
-3.0,5.0,12.0,0.0,-10.0,-11.0,-18.0,-9.0,1650847793372816.0
-8.0,1.0,3.0,-18.0,-10.0,-2.0,5.0,-4.0,1650847793373792.0
4.0,-10.0,-11.0,1.0,10.0,3.0,-3.0,0.0,1650847793373792.0
-5.0,-10.0,-27.0,-5.0,-10.0,-5.0,-10.0,-6.0,1650847793394889.0
3.0,-1.0,33.0,21.0,16.0,8.0,8.0,2.0,1650847793394889.0
2.0,-3.0,-17.0,-7.0,-2.0,-3.0,-6.0,0.0,1650847793400913.0
-6.0,9.0,-6.0,2.0,-8.0,-7.0,-3.0,-6.0,1650847793400913.0
-3.0,-11.0,-7.0,-32.0,-18.0,-7.0,-14.0,-5.0,1650847793409039.0
-2.0,-29.0,-26.0,-16.0,-7.0,1.0,0.0,-1.0,1650847793409039.0
0.0,26.0,57.0,26.0,7.0,2.0,0.0,-3.0,1650847793418052.0
-6.0,-25.0,-4.0,-9.0,-4.0,-4.0,3.0,-3.0,1650847793418052.0
2.0,11.0,-8.0,0.0,-1.0,-7.0,-9.0,-1.0,1650847793432177.0
-7.0,-8.0,-24.0,-25.0,-16.0,-16.0,-21.0,-11.0,1650847793432177.0
-2.0,-13.0,-22.0,-11.0,-7.0,-1.0,15.0,7.0,1650847793434160.0
-3.0,-6.0,24.0,38.0,15.0,3.0,-7.0,-7.0,1650847793434160.0
-1.0,12.0,37.0,-7.0,0.0,5.0,15.0,6.0,1650847793455257.0
8.0,6.0,-25.0,-16.0,-8.0,-3.0,11.0,10.0,1650847793455257.0
-8.0,-1.0,-3.0,16.0,15.0,-1.0,-14.0,-13.0,1650847793456255.0
18.0,22.0,18.0,14.0,12.0,14.0,27.0,23.0,1650847793456255.0
-12.0,-14.0,-18.0,-3.0,-13.0,-16.0,-38.0,-24.0,1650847793468288.0
1.0,9.0,24.0,-7.0,9.0,2.0,5.0,1.0,1650847793468288.0
5.0,6.0,21.0,29.0,14.0,9.0,-8.0,0.0,1650847793477226.0
-2.0,-9.0,-23.0,-12.0,-11.0,-3.0,1.0,0.0,1650847793477226.0
-4.0,-3.0,-10.0,-16.0,-5.0,-1.0,4.0,-2.0,1650847793491343.0
10.0,10.0,23.0,19.0,2.0,8.0,27.0,24.0,1650847793491343.0
-11.0,-15.0,16.0,5.0,-2.0,-18.0,-46.0,-23.0,1650847793498325.0
5.0,25.0,73.0,9.0,13.0,9.0,-1.0,-1.0,1650847793498325.0
1.0,-17.0,-53.0,-4.0,1.0,5.0,2.0,0.0,1650847793514905.0
3.0,23.0,-28.0,-1.0,-2.0,5.0,18.0,8.0,1650847793514905.0
-3.0,-11.0,-48.0,-25.0,-10.0,-4.0,-5.0,-7.0,1650847793516834.0
0.0,2.0,43.0,-1.0,-12.0,-14.0,-20.0,-1.0,1650847793516834.0
1.0,-1.0,-34.0,-17.0,1.0,4.0,3.0,-1.0,1650847793537835.0
-1.0,-12.0,34.0,37.0,16.0,12.0,20.0,6.0,1650847793537835.0
8.0,28.0,-30.0,-6.0,-3.0,2.0,-5.0,3.0,1650847793538833.0
-7.0,-15.0,-44.0,-20.0,-8.0,-5.0,-9.0,-10.0,1650847793538833.0
11.0,7.0,36.0,23.0,11.0,9.0,13.0,13.0,1650847793552780.0
-3.0,-4.0,-8.0,3.0,-2.0,-7.0,-17.0,-10.0,1650847793552780.0
4.0,22.0,13.0,-18.0,-10.0,-1.0,19.0,10.0,1650847793553719.0
-1.0,-11.0,-4.0,10.0,-4.0,2.0,21.0,9.0,1650847793553719.0
1.0,12.0,15.0,18.0,10.0,5.0,-17.0,-7.0,1650847793574897.0
-3.0,-4.0,11.0,4.0,21.0,13.0,10.0,-1.0,1650847793574897.0
2.0,-23.0,-13.0,-25.0,-17.0,-9.0,-7.0,1.0,1650847793576854.0
0.0,33.0,-23.0,11.0,7.0,0.0,-2.0,-2.0,1650847793576854.0
-1.0,-23.0,19.0,7.0,-3.0,7.0,24.0,12.0,1650847793596961.0
0.0,41.0,30.0,6.0,-5.0,-11.0,-36.0,-17.0,1650847793596961.0
-4.0,-32.0,-53.0,-1.0,2.0,4.0,6.0,3.0,1650847793604932.0
13.0,17.0,35.0,1.0,7.0,6.0,11.0,10.0,1650847793604932.0
-5.0,8.0,-36.0,-20.0,-13.0,-11.0,4.0,-3.0,1650847793611983.0
4.0,10.0,24.0,14.0,0.0,-8.0,-10.0,2.0,1650847793611983.0
-10.0,-33.0,-21.0,-25.0,-14.0,-2.0,12.0,1.0,1650847793618957.0
-1.0,0.0,-4.0,20.0,8.0,12.0,24.0,10.0,1650847793618957.0
-3.0,5.0,2.0,1.0,-6.0,-13.0,-42.0,-18.0,1650847793637135.0
-4.0,-23.0,-56.0,-21.0,2.0,2.0,8.0,2.0,1650847793637135.0
7.0,22.0,121.0,26.0,10.0,9.0,8.0,4.0,1650847793638153.0
-16.0,-53.0,-93.0,-34.0,-16.0,-10.0,-18.0,-15.0,1650847793638153.0
6.0,20.0,23.0,25.0,9.0,7.0,20.0,11.0,1650847793657151.0
-7.0,-15.0,-7.0,-18.0,-8.0,-7.0,-12.0,-9.0,1650847793657151.0
12.0,1.0,28.0,31.0,28.0,18.0,9.0,13.0,1650847793659076.0
-5.0,9.0,-25.0,-18.0,-7.0,-7.0,-9.0,-8.0,1650847793659076.0
4.0,4.0,41.0,-14.0,1.0,9.0,13.0,10.0,1650847793671847.0
-6.0,7.0,-21.0,23.0,1.0,-4.0,-6.0,-6.0,1650847793671847.0
4.0,-6.0,-25.0,-12.0,-3.0,3.0,18.0,8.0,1650847793678868.0
-2.0,9.0,-61.0,-22.0,-11.0,-7.0,-13.0,-9.0,1650847793678868.0
6.0,14.0,29.0,30.0,21.0,11.0,25.0,20.0,1650847793694825.0
-9.0,-25.0,0.0,-27.0,-16.0,-11.0,-22.0,-14.0,1650847793694825.0
-2.0,38.0,-6.0,26.0,-1.0,-2.0,-4.0,-7.0,1650847793696782.0
5.0,-38.0,81.0,32.0,28.0,16.0,26.0,15.0,1650847793696782.0
-17.0,-24.0,-62.0,-26.0,-21.0,-26.0,-46.0,-28.0,1650847793717805.0
9.0,26.0,-60.0,-23.0,-6.0,6.0,18.0,6.0,1650847793717805.0
4.0,-2.0,24.0,14.0,7.0,7.0,17.0,13.0,1650847793718817.0
-6.0,-2.0,13.0,-37.0,-33.0,-17.0,-29.0,-16.0,1650847793718817.0
-1.0,-28.0,13.0,31.0,40.0,19.0,26.0,7.0,1650847793731891.0
2.0,8.0,2.0,1.0,-6.0,-3.0,-6.0,2.0,1650847793731891.0
1.0,23.0,36.0,18.0,16.0,5.0,1.0,-5.0,1650847793738837.0
-1.0,-10.0,-34.0,-2.0,-8.0,-5.0,-4.0,5.0,1650847793738837.0
13.0,21.0,41.0,16.0,13.0,15.0,31.0,16.0,1650847793754814.0
-14.0,-16.0,14.0,-23.0,-11.0,-12.0,-27.0,-16.0,1650847793754814.0
2.0,20.0,2.0,-2.0,-2.0,-2.0,-6.0,-6.0,1650847793756744.0
9.0,7.0,21.0,15.0,11.0,14.0,19.0,18.0,1650847793756744.0
-4.0,-14.0,6.0,-18.0,-22.0,-13.0,-13.0,-7.0,1650847793777861.0
5.0,7.0,-19.0,1.0,2.0,9.0,13.0,4.0,1650847793777861.0
2.0,-12.0,23.0,-12.0,0.0,2.0,16.0,12.0,1650847793778801.0
-10.0,-14.0,-48.0,6.0,-9.0,-15.0,-35.0,-19.0,1650847793778801.0
-5.0,-4.0,-13.0,-21.0,-7.0,-3.0,-1.0,-3.0,1650847793791879.0
15.0,29.0,21.0,-4.0,-4.0,15.0,40.0,28.0,1650847793791879.0
-7.0,-23.0,27.0,39.0,-1.0,-15.0,-33.0,-16.0,1650847793798910.0
-7.0,-9.0,-59.0,-12.0,-1.0,-2.0,-3.0,-7.0,1650847793798910.0
3.0,15.0,19.0,11.0,16.0,14.0,8.0,4.0,1650847793815019.0
-1.0,-19.0,10.0,6.0,-7.0,-1.0,3.0,1.0,1650847793815019.0
2.0,3.0,27.0,20.0,25.0,12.0,12.0,6.0,1650847793816947.0
8.0,6.0,-43.0,1.0,0.0,-1.0,19.0,17.0,1650847793816947.0
-7.0,19.0,20.0,-15.0,-21.0,-15.0,-26.0,-18.0,1650847793837087.0
4.0,-30.0,-2.0,9.0,4.0,-2.0,10.0,11.0,1650847793837087.0
-10.0,-11.0,-33.0,-31.0,-17.0,-5.0,6.0,-6.0,1650847793839022.0
8.0,12.0,79.0,40.0,12.0,5.0,-17.0,-6.0,1650847793839022.0
-1.0,4.0,-55.0,-20.0,-7.0,-2.0,14.0,5.0,1650847793852047.0
-4.0,4.0,4.0,-7.0,-1.0,-2.0,1.0,-3.0,1650847793852047.0
-3.0,-16.0,-59.0,-16.0,-8.0,-6.0,-14.0,-7.0,1650847793858959.0
-3.0,12.0,20.0,-10.0,2.0,2.0,-2.0,-7.0,1650847793858959.0
5.0,-4.0,-2.0,-8.0,-13.0,-7.0,0.0,4.0,1650847793874984.0
-7.0,7.0,8.0,4.0,-12.0,-13.0,-29.0,-18.0,1650847793874984.0
-4.0,-9.0,32.0,26.0,31.0,17.0,16.0,5.0,1650847793876921.0
-1.0,-2.0,-43.0,12.0,11.0,0.0,-10.0,-2.0,1650847793876921.0
0.0,5.0,29.0,-1.0,-9.0,-6.0,-6.0,-4.0,1650847793896961.0
0.0,4.0,-25.0,2.0,1.0,3.0,14.0,6.0,1650847793896961.0
-9.0,-30.0,-27.0,-18.0,-12.0,-9.0,-24.0,-11.0,1650847793898939.0
0.0,3.0,35.0,-32.0,-16.0,-6.0,9.0,3.0,1650847793898939.0
-4.0,1.0,-10.0,13.0,-1.0,-2.0,-12.0,-7.0,1650847793911931.0
0.0,-10.0,17.0,29.0,28.0,6.0,-3.0,-4.0,1650847793911931.0
5.0,34.0,24.0,-20.0,-15.0,0.0,10.0,9.0,1650847793919021.0
-2.0,-5.0,13.0,6.0,1.0,1.0,2.0,-1.0,1650847793919021.0
6.0,-9.0,-24.0,-17.0,-8.0,4.0,27.0,18.0,1650847793934843.0
-10.0,-13.0,-16.0,-13.0,-9.0,-13.0,-43.0,-25.0,1650847793934843.0
1.0,-5.0,-17.0,7.0,4.0,-4.0,4.0,0.0,1650847793936798.0
6.0,20.0,28.0,-14.0,-7.0,1.0,11.0,9.0,1650847793936798.0
-7.0,-16.0,7.0,12.0,6.0,-5.0,-12.0,-10.0,1650847793956905.0
5.0,1.0,42.0,7.0,12.0,18.0,36.0,20.0,1650847793956905.0
-11.0,-4.0,-108.0,-33.0,-29.0,-25.0,-55.0,-28.0,1650847793964888.0
1.0,0.0,45.0,-7.0,-4.0,2.0,11.0,4.0,1650847793964888.0
0.0,7.0,18.0,34.0,14.0,2.0,-4.0,0.0,1650847793971925.0
-4.0,-10.0,-18.0,-19.0,6.0,-2.0,-4.0,-4.0,1650847793971925.0
3.0,21.0,27.0,32.0,3.0,12.0,4.0,-1.0,1650847793978840.0
2.0,-22.0,29.0,-14.0,-6.0,-4.0,-14.0,-4.0,1650847793978840.0
-6.0,-17.0,-3.0,-2.0,-9.0,-4.0,2.0,-4.0,1650847793994863.0
5.0,6.0,-4.0,-3.0,-4.0,3.0,0.0,12.0,1650847793994863.0
-2.0,-1.0,5.0,-5.0,2.0,0.0,8.0,0.0,1650847793996819.0
3.0,1.0,3.0,6.0,6.0,5.0,6.0,6.0,1650847793996819.0
2.0,28.0,-15.0,-1.0,0.0,1.0,0.0,1.0,1650847794017978.0
-1.0,-29.0,-9.0,6.0,15.0,8.0,16.0,3.0,1650847794017978.0
2.0,14.0,-3.0,-8.0,-18.0,-15.0,-6.0,6.0,1650847794019932.0
-12.0,-14.0,-6.0,1.0,-3.0,-8.0,-17.0,-20.0,1650847794019932.0
1.0,3.0,5.0,-1.0,1.0,7.0,-12.0,-8.0,1650847794030943.0
-2.0,8.0,13.0,16.0,-2.0,-8.0,-7.0,-4.0,1650847794030943.0
4.0,0.0,-2.0,1.0,-2.0,-1.0,4.0,1.0,1650847794039852.0
4.0,-9.0,-10.0,-3.0,3.0,7.0,16.0,13.0,1650847794039852.0
-2.0,21.0,39.0,37.0,15.0,0.0,-5.0,-5.0,1650847794054493.0
5.0,10.0,-20.0,-18.0,-10.0,7.0,38.0,18.0,1650847794054493.0
-7.0,-24.0,20.0,0.0,-12.0,-18.0,-37.0,-12.0,1650847794056421.0
-8.0,-5.0,-5.0,-10.0,-11.0,-6.0,-6.0,-15.0,1650847794056421.0
18.0,27.0,21.0,3.0,28.0,20.0,21.0,19.0,1650847794077832.0
-8.0,-27.0,-25.0,22.0,-1.0,-7.0,-13.0,-6.0,1650847794077832.0
4.0,-19.0,-10.0,-28.0,-3.0,10.0,31.0,14.0,1650847794078814.0
3.0,63.0,-6.0,-8.0,-12.0,-4.0,-2.0,0.0,1650847794078814.0
-12.0,-9.0,-2.0,10.0,0.0,-11.0,-20.0,-15.0,1650847794090769.0
0.0,-1.0,46.0,0.0,-2.0,-2.0,-13.0,-7.0,1650847794090769.0
-1.0,5.0,6.0,0.0,6.0,7.0,15.0,3.0,1650847794099801.0
-6.0,-38.0,-28.0,-6.0,-5.0,-9.0,-15.0,-4.0,1650847794099801.0
4.0,12.0,-12.0,-3.0,2.0,5.0,11.0,7.0,1650847794114826.0
0.0,0.0,16.0,2.0,-2.0,-1.0,-5.0,-6.0,1650847794114826.0
0.0,-17.0,-13.0,-8.0,-3.0,-1.0,-2.0,0.0,1650847794116821.0
-10.0,-3.0,23.0,20.0,0.0,-8.0,-24.0,-18.0,1650847794116821.0
1.0,-16.0,-11.0,4.0,13.0,8.0,24.0,14.0,1650847794137891.0
0.0,-13.0,-19.0,-12.0,-16.0,-15.0,-31.0,-16.0,1650847794137891.0
3.0,30.0,36.0,11.0,25.0,14.0,25.0,14.0,1650847794138879.0
2.0,22.0,7.0,-3.0,-3.0,-4.0,-7.0,-3.0,1650847794138879.0
-5.0,-32.0,-18.0,-10.0,-15.0,-7.0,-9.0,-6.0,1650847794150825.0
3.0,33.0,-19.0,18.0,9.0,2.0,14.0,12.0,1650847794150825.0
-8.0,-15.0,-15.0,-27.0,-20.0,-17.0,-37.0,-18.0,1650847794159834.0
5.0,6.0,49.0,27.0,10.0,6.0,14.0,6.0,1650847794159834.0
7.0,4.0,-38.0,-11.0,4.0,11.0,-6.0,-1.0,1650847794174877.0
-3.0,19.0,2.0,-20.0,-8.0,-5.0,-18.0,-12.0,1650847794174877.0
-1.0,-10.0,0.0,13.0,-1.0,-1.0,10.0,2.0,1650847794176806.0
-1.0,-37.0,9.0,8.0,18.0,10.0,11.0,9.0,1650847794176806.0
4.0,31.0,36.0,-36.0,-25.0,-12.0,-4.0,0.0,1650847794197057.0
0.0,-62.0,-33.0,38.0,27.0,12.0,11.0,9.0,1650847794197057.0
1.0,54.0,1.0,-3.0,3.0,0.0,-4.0,-3.0,1650847794198986.0
1.0,0.0,-19.0,-9.0,-4.0,-2.0,5.0,-2.0,1650847794198986.0
1.0,-17.0,1.0,-6.0,-11.0,3.0,8.0,12.0,1650847794211021.0
-5.0,-19.0,1.0,-3.0,-2.0,-4.0,-9.0,-6.0,1650847794211021.0
3.0,-9.0,13.0,6.0,2.0,8.0,27.0,11.0,1650847794219935.0
1.0,18.0,-17.0,2.0,-1.0,-8.0,-22.0,-7.0,1650847794219935.0
-11.0,-32.0,-4.0,-11.0,-7.0,-8.0,-12.0,-13.0,1650847794242783.0
6.0,1.0,-13.0,3.0,-10.0,-1.0,6.0,11.0,1650847794242783.0
-5.0,-10.0,-23.0,-24.0,-4.0,-9.0,-23.0,-14.0,1650847794243775.0
1.0,-2.0,9.0,39.0,11.0,10.0,23.0,10.0,1650847794243775.0
-7.0,7.0,-14.0,-17.0,-13.0,-11.0,-5.0,-7.0,1650847794257807.0
-8.0,3.0,34.0,-29.0,-18.0,-6.0,-7.0,-11.0,1650847794257807.0
19.0,8.0,38.0,19.0,11.0,20.0,56.0,37.0,1650847794258752.0
-17.0,-23.0,-75.0,-44.0,-29.0,-29.0,-66.0,-36.0,1650847794258752.0
-11.0,-65.0,11.0,28.0,10.0,4.0,15.0,-2.0,1650847794270774.0
26.0,119.0,5.0,-14.0,7.0,4.0,8.0,13.0,1650847794270774.0
-8.0,-18.0,16.0,10.0,-5.0,-1.0,-9.0,-9.0,1650847794279759.0
1.0,-12.0,-13.0,14.0,12.0,10.0,18.0,4.0,1650847794279759.0
-1.0,0.0,-13.0,-11.0,-14.0,-8.0,-14.0,-6.0,1650847794294871.0
2.0,-2.0,6.0,1.0,11.0,14.0,34.0,14.0,1650847794294871.0
-4.0,-37.0,-25.0,-15.0,-11.0,-6.0,-4.0,0.0,1650847794296865.0
-1.0,13.0,8.0,-10.0,-14.0,-12.0,-16.0,-7.0,1650847794296865.0
0.0,-7.0,-25.0,6.0,27.0,12.0,4.0,-3.0,1650847794316940.0
1.0,9.0,12.0,-9.0,-7.0,2.0,3.0,1.0,1650847794316940.0
-4.0,9.0,-7.0,34.0,4.0,2.0,21.0,8.0,1650847794318906.0
-7.0,-31.0,35.0,9.0,8.0,0.0,-11.0,-8.0,1650847794318906.0
2.0,23.0,-45.0,-22.0,-18.0,-10.0,-20.0,-6.0,1650847794330895.0
-6.0,-33.0,4.0,20.0,2.0,-2.0,-13.0,-7.0,1650847794330895.0
9.0,46.0,25.0,19.0,14.0,11.0,22.0,11.0,1650847794345854.0
-4.0,-9.0,-41.0,-33.0,-18.0,-7.0,-4.0,-3.0,1650847794345854.0
1.0,-34.0,16.0,19.0,15.0,11.0,25.0,14.0,1650847794354831.0
-14.0,1.0,-19.0,-46.0,-41.0,-33.0,-55.0,-29.0,1650847794354831.0
6.0,9.0,13.0,31.0,27.0,10.0,-6.0,-1.0,1650847794356757.0
8.0,12.0,3.0,13.0,19.0,17.0,41.0,23.0,1650847794356757.0
-4.0,-7.0,2.0,2.0,-10.0,-13.0,-21.0,-11.0,1650847794377889.0
-5.0,-26.0,13.0,28.0,7.0,1.0,-3.0,-3.0,1650847794377889.0
0.0,2.0,-13.0,-35.0,-12.0,-5.0,-12.0,-5.0,1650847794378899.0
0.0,6.0,-9.0,-10.0,0.0,4.0,12.0,3.0,1650847794378899.0
3.0,10.0,14.0,-2.0,0.0,0.0,3.0,4.0,1650847794390901.0
0.0,22.0,-1.0,5.0,0.0,-2.0,4.0,-2.0,1650847794390901.0
-5.0,-25.0,-14.0,-11.0,-9.0,-2.0,-11.0,-5.0,1650847794399810.0
2.0,13.0,-10.0,-42.0,-23.0,-8.0,-9.0,-2.0,1650847794399810.0
0.0,44.0,32.0,81.0,33.0,13.0,22.0,1.0,1650847794414838.0
7.0,-6.0,-3.0,-9.0,6.0,5.0,-6.0,2.0,1650847794414838.0
-9.0,-10.0,-4.0,-6.0,-12.0,-15.0,-26.0,-16.0,1650847794416792.0
7.0,13.0,21.0,-17.0,-5.0,9.0,28.0,15.0,1650847794416792.0
-6.0,-23.0,-48.0,27.0,13.0,-1.0,-9.0,-7.0,1650847794437992.0
3.0,15.0,10.0,-21.0,-4.0,5.0,29.0,12.0,1650847794437992.0
-7.0,3.0,-23.0,-22.0,-26.0,-20.0,-38.0,-16.0,1650847794438922.0
11.0,-1.0,23.0,74.0,39.0,25.0,22.0,15.0,1650847794438922.0
-2.0,-1.0,18.0,-50.0,-33.0,-14.0,-20.0,-8.0,1650847794459932.0
1.0,8.0,19.0,43.0,31.0,6.0,12.0,2.0,1650847794459932.0
7.0,-3.0,-6.0,-30.0,-7.0,2.0,4.0,9.0,1650847794461861.0
-9.0,-2.0,-14.0,-10.0,-11.0,-13.0,-28.0,-18.0,1650847794461861.0
2.0,0.0,20.0,13.0,14.0,1.0,-1.0,-1.0,1650847794474892.0
6.0,-12.0,-33.0,-19.0,-1.0,15.0,43.0,23.0,1650847794474892.0
-10.0,6.0,64.0,34.0,8.0,-15.0,-46.0,-28.0,1650847794476820.0
2.0,-5.0,-34.0,-16.0,7.0,9.0,13.0,8.0,1650847794476820.0
4.0,0.0,-4.0,4.0,-3.0,2.0,1.0,8.0,1650847794497834.0
-8.0,-39.0,-14.0,-25.0,-17.0,-11.0,-14.0,-10.0,1650847794497834.0
3.0,36.0,4.0,19.0,9.0,7.0,18.0,8.0,1650847794498865.0
2.0,8.0,10.0,15.0,17.0,6.0,0.0,-4.0,1650847794498865.0
-3.0,14.0,-3.0,-30.0,-23.0,-10.0,-4.0,-1.0,1650847794519957.0
3.0,3.0,3.0,11.0,9.0,7.0,4.0,6.0,1650847794519957.0
-7.0,-43.0,-52.0,-37.0,-21.0,-8.0,-9.0,-9.0,1650847794521889.0
6.0,34.0,34.0,40.0,14.0,5.0,12.0,6.0,1650847794521889.0
-6.0,-28.0,10.0,10.0,7.0,-1.0,-13.0,-4.0,1650847794534849.0
-2.0,27.0,12.0,-9.0,-10.0,-4.0,-2.0,-2.0,1650847794534849.0
6.0,-13.0,-31.0,1.0,14.0,6.0,20.0,9.0,1650847794540833.0
-6.0,-3.0,-6.0,-48.0,-27.0,-14.0,-16.0,-11.0,1650847794540833.0
1.0,-12.0,-3.0,-2.0,-4.0,5.0,24.0,8.0,1650847794557798.0
-1.0,8.0,4.0,25.0,6.0,-4.0,-39.0,-16.0,1650847794557798.0
-5.0,6.0,0.0,-29.0,-10.0,-4.0,-16.0,-13.0,1650847794558768.0
-1.0,-24.0,-15.0,43.0,26.0,12.0,12.0,6.0,1650847794558768.0
1.0,26.0,3.0,-28.0,-8.0,-9.0,-7.0,-1.0,1650847794579778.0
0.0,39.0,-11.0,3.0,-6.0,-4.0,3.0,2.0,1650847794579778.0
-6.0,-32.0,-12.0,-7.0,-7.0,2.0,11.0,1.0,1650847794581707.0
0.0,-2.0,7.0,-8.0,-3.0,-3.0,0.0,0.0,1650847794581707.0
8.0,15.0,6.0,-4.0,2.0,11.0,20.0,10.0,1650847794594737.0
-8.0,-31.0,-10.0,-2.0,4.0,-7.0,-40.0,-23.0,1650847794594737.0
-1.0,-6.0,7.0,3.0,-1.0,3.0,13.0,7.0,1650847794596666.0
-1.0,4.0,8.0,-4.0,-6.0,-5.0,-3.0,0.0,1650847794596666.0
