EMG_s0,EMG_s1,EMG_s2,EMG_s3,EMG_s4,EMG_s5,EMG_s6,EMG_s7,timestamp
1.0,1.0,1.0,2.0,8.0,10.0,3.0,0.0,1650821537739027.0
1.0,-1.0,0.0,0.0,6.0,-2.0,-2.0,-1.0,1650821537739027.0
-2.0,-1.0,-1.0,1.0,-1.0,-3.0,-2.0,0.0,1650821537740028.0
-1.0,-1.0,-3.0,1.0,-2.0,-8.0,-5.0,-3.0,1650821537740028.0
1.0,-3.0,-2.0,-4.0,-10.0,-7.0,-2.0,-1.0,1650821537745011.0
-1.0,-1.0,-1.0,-1.0,-4.0,3.0,2.0,1.0,1650821537745011.0
-2.0,0.0,-2.0,-1.0,-1.0,0.0,1.0,0.0,1650821537748034.0
-2.0,1.0,3.0,2.0,1.0,-4.0,-1.0,-1.0,1650821537748034.0
-2.0,0.0,-1.0,-3.0,-6.0,-2.0,-1.0,-1.0,1650821537750026.0
-2.0,-1.0,-1.0,0.0,4.0,0.0,-1.0,0.0,1650821537750026.0
-1.0,0.0,-3.0,0.0,4.0,7.0,3.0,-1.0,1650821537766718.0
0.0,1.0,-2.0,-2.0,1.0,1.0,3.0,0.0,1650821537766718.0
-2.0,1.0,0.0,1.0,4.0,-3.0,0.0,2.0,1650821537774726.0
-2.0,1.0,-1.0,0.0,0.0,2.0,0.0,2.0,1650821537774726.0
1.0,-2.0,-2.0,-5.0,-5.0,-2.0,-1.0,-1.0,1650821537781681.0
-1.0,2.0,3.0,3.0,2.0,6.0,2.0,3.0,1650821537781681.0
2.0,2.0,3.0,4.0,7.0,3.0,1.0,1.0,1650821537795958.0
1.0,1.0,0.0,1.0,6.0,2.0,-1.0,-1.0,1650821537795958.0
1.0,-1.0,1.0,0.0,-1.0,1.0,0.0,-1.0,1650821537810859.0
-1.0,-1.0,-2.0,-2.0,-3.0,-2.0,-3.0,-2.0,1650821537810859.0
-1.0,-3.0,-2.0,-3.0,-10.0,-11.0,-4.0,-4.0,1650821537811861.0
1.0,-2.0,-2.0,-2.0,-2.0,-4.0,0.0,0.0,1650821537811861.0
-1.0,1.0,5.0,7.0,4.0,4.0,0.0,0.0,1650821537858861.0
1.0,-2.0,0.0,-4.0,-6.0,-10.0,-1.0,-2.0,1650821537858861.0
0.0,-2.0,-2.0,-3.0,3.0,7.0,0.0,-2.0,1650821537859882.0
1.0,-1.0,-1.0,0.0,-8.0,-7.0,-5.0,0.0,1650821537859882.0
-2.0,0.0,-2.0,-4.0,-3.0,-9.0,-1.0,-1.0,1650821537860858.0
1.0,0.0,0.0,1.0,6.0,12.0,3.0,1.0,1650821537860858.0
0.0,0.0,2.0,4.0,8.0,10.0,2.0,1.0,1650821537863870.0
0.0,1.0,2.0,0.0,2.0,3.0,2.0,-2.0,1650821537863870.0
0.0,-1.0,-4.0,-4.0,-5.0,-7.0,-3.0,-1.0,1650821537869855.0
-2.0,-2.0,0.0,1.0,-2.0,-3.0,-4.0,-4.0,1650821537869855.0
-1.0,1.0,0.0,-1.0,-2.0,-5.0,-1.0,-1.0,1650821537877838.0
3.0,0.0,-1.0,-4.0,-1.0,-1.0,-4.0,0.0,1650821537877838.0
-12.0,-5.0,1.0,0.0,-2.0,1.0,2.0,0.0,1650821537886882.0
-1.0,0.0,-1.0,0.0,1.0,2.0,0.0,0.0,1650821537886882.0
0.0,0.0,-1.0,-2.0,-2.0,-3.0,0.0,0.0,1650821537900935.0
1.0,-1.0,0.0,0.0,-10.0,-6.0,0.0,0.0,1650821537900935.0
3.0,1.0,0.0,1.0,8.0,7.0,-1.0,0.0,1650821537907934.0
0.0,-1.0,-5.0,-1.0,5.0,6.0,-1.0,0.0,1650821537907934.0
-1.0,-2.0,4.0,0.0,-2.0,-7.0,-1.0,1.0,1650821537922963.0
0.0,-1.0,-2.0,-1.0,3.0,4.0,0.0,-1.0,1650821537922963.0
2.0,1.0,1.0,-1.0,-5.0,-1.0,1.0,1.0,1650821537931872.0
-2.0,0.0,0.0,0.0,-1.0,-1.0,0.0,0.0,1650821537931872.0
1.0,0.0,-2.0,-1.0,3.0,0.0,0.0,0.0,1650821537946935.0
-3.0,-2.0,-2.0,-2.0,-6.0,-9.0,-3.0,-1.0,1650821537946935.0
1.0,-2.0,-1.0,-3.0,3.0,7.0,-2.0,-1.0,1650821537948891.0
-2.0,-1.0,-1.0,-1.0,-4.0,-4.0,0.0,-1.0,1650821537948891.0
0.0,2.0,0.0,1.0,-3.0,0.0,-1.0,0.0,1650821537968862.0
-2.0,1.0,1.0,3.0,10.0,9.0,3.0,1.0,1650821537968862.0
0.0,0.0,0.0,-3.0,-9.0,-9.0,-3.0,1.0,1650821537970860.0
-1.0,0.0,2.0,-1.0,-3.0,-10.0,-3.0,0.0,1650821537970860.0
-2.0,-4.0,0.0,1.0,3.0,8.0,-3.0,-1.0,1650821537991932.0
-2.0,-4.0,0.0,0.0,-1.0,6.0,3.0,2.0,1650821537991932.0
2.0,0.0,-1.0,3.0,7.0,7.0,1.0,-1.0,1650821537992864.0
-1.0,0.0,0.0,0.0,-6.0,-7.0,0.0,1.0,1650821537992864.0
-1.0,-1.0,-2.0,-2.0,-2.0,-4.0,-2.0,-2.0,1650821538005828.0
-2.0,-1.0,-1.0,0.0,-1.0,-2.0,-2.0,-2.0,1650821538005828.0
0.0,0.0,0.0,-1.0,-2.0,-3.0,1.0,-2.0,1650821538014856.0
1.0,2.0,-3.0,-4.0,-2.0,5.0,-1.0,-1.0,1650821538014856.0
-1.0,-1.0,-1.0,-3.0,-5.0,-3.0,-1.0,-2.0,1650821538028867.0
-3.0,-3.0,2.0,0.0,2.0,0.0,0.0,1.0,1650821538028867.0
2.0,-1.0,1.0,2.0,3.0,2.0,0.0,0.0,1650821538030798.0
-1.0,-1.0,1.0,2.0,8.0,-4.0,1.0,1.0,1650821538030798.0
1.0,1.0,-3.0,-2.0,-3.0,-4.0,-2.0,-1.0,1650821538051961.0
0.0,-1.0,-1.0,0.0,2.0,6.0,1.0,-2.0,1650821538051961.0
-1.0,0.0,-2.0,-3.0,-11.0,-2.0,1.0,0.0,1650821538052901.0
-1.0,-1.0,-1.0,-3.0,-1.0,-3.0,-1.0,-1.0,1650821538052901.0
0.0,0.0,-1.0,-1.0,-2.0,-12.0,-3.0,-1.0,1650821538067135.0
1.0,0.0,0.0,0.0,2.0,3.0,1.0,1.0,1650821538067135.0
0.0,0.0,0.0,4.0,9.0,5.0,1.0,0.0,1650821538068039.0
2.0,0.0,0.0,2.0,1.0,3.0,1.0,-1.0,1650821538068039.0
1.0,-1.0,-1.0,-1.0,-8.0,-6.0,0.0,-2.0,1650821538089177.0
0.0,-1.0,-2.0,-3.0,-4.0,-4.0,-2.0,-2.0,1650821538089177.0
-1.0,0.0,-1.0,-1.0,5.0,5.0,2.0,-1.0,1650821538091106.0
3.0,0.0,-2.0,0.0,-3.0,2.0,2.0,2.0,1650821538091106.0
-4.0,-2.0,0.0,0.0,2.0,-2.0,0.0,0.0,1650821538111919.0
0.0,0.0,-2.0,-1.0,-4.0,-5.0,-1.0,-2.0,1650821538111919.0
-1.0,0.0,-2.0,-4.0,-8.0,-7.0,-3.0,-1.0,1650821538112851.0
-3.0,-1.0,6.0,4.0,4.0,-1.0,-1.0,-1.0,1650821538112851.0
3.0,1.0,-2.0,0.0,-8.0,5.0,1.0,0.0,1650821538125830.0
0.0,0.0,1.0,1.0,13.0,2.0,2.0,1.0,1650821538125830.0
0.0,-2.0,0.0,-1.0,1.0,6.0,-2.0,1.0,1650821538132797.0
0.0,-1.0,-1.0,-1.0,-3.0,-3.0,-1.0,-1.0,1650821538132797.0
-1.0,-1.0,-3.0,-2.0,-3.0,-8.0,-2.0,-3.0,1650821538148861.0
-4.0,1.0,0.0,0.0,-10.0,-6.0,-4.0,0.0,1650821538148861.0
1.0,-1.0,0.0,0.0,3.0,1.0,1.0,0.0,1650821538150858.0
0.0,1.0,0.0,-3.0,3.0,11.0,2.0,0.0,1650821538150858.0
-1.0,-2.0,1.0,1.0,6.0,0.0,-1.0,-1.0,1650821538171868.0
-1.0,-1.0,-2.0,-3.0,-6.0,-11.0,-3.0,0.0,1650821538171868.0
-1.0,-2.0,1.0,0.0,-6.0,1.0,0.0,0.0,1650821538172799.0
-2.0,-1.0,-1.0,-1.0,1.0,4.0,0.0,0.0,1650821538172799.0
0.0,0.0,-1.0,2.0,4.0,4.0,2.0,2.0,1650821538186274.0
0.0,1.0,1.0,0.0,5.0,6.0,3.0,0.0,1650821538186274.0
0.0,-1.0,0.0,0.0,-5.0,-10.0,-1.0,0.0,1650821538193256.0
-2.0,0.0,-3.0,-1.0,-1.0,-7.0,-5.0,-1.0,1650821538193256.0
-3.0,-2.0,-3.0,-5.0,-10.0,-4.0,-3.0,-2.0,1650821538209378.0
1.0,-2.0,-1.0,-2.0,-1.0,-5.0,-2.0,0.0,1650821538209378.0
-1.0,0.0,0.0,2.0,4.0,10.0,0.0,0.0,1650821538210335.0
0.0,0.0,-1.0,0.0,3.0,-3.0,1.0,0.0,1650821538210335.0
7.0,2.0,3.0,2.0,6.0,7.0,1.0,1.0,1650821538231955.0
-12.0,0.0,-2.0,-1.0,-3.0,0.0,-1.0,-3.0,1650821538231955.0
0.0,0.0,-1.0,-5.0,-10.0,-15.0,-5.0,-3.0,1650821538232888.0
0.0,-2.0,-2.0,-2.0,1.0,9.0,0.0,-1.0,1650821538232888.0
0.0,0.0,0.0,-1.0,-1.0,5.0,2.0,0.0,1650821538246009.0
4.0,1.0,-1.0,2.0,3.0,2.0,2.0,1.0,1650821538246009.0
-1.0,1.0,-2.0,1.0,-2.0,-8.0,-2.0,0.0,1650821538253224.0
-2.0,0.0,-1.0,-1.0,-4.0,-4.0,0.0,-1.0,1650821538253224.0
-2.0,-1.0,-1.0,1.0,6.0,9.0,2.0,0.0,1650821538268930.0
0.0,0.0,-1.0,-3.0,-3.0,-1.0,-3.0,0.0,1650821538268930.0
-1.0,-1.0,-3.0,-2.0,-4.0,-5.0,-2.0,-4.0,1650821538270886.0
0.0,-1.0,1.0,-1.0,0.0,-6.0,-2.0,-2.0,1650821538270886.0
-2.0,0.0,0.0,-2.0,-3.0,0.0,-1.0,-1.0,1650821538291960.0
2.0,-3.0,-2.0,0.0,-3.0,0.0,1.0,0.0,1650821538291960.0
-1.0,1.0,1.0,1.0,0.0,-3.0,1.0,0.0,1650821538292899.0
-1.0,0.0,-2.0,1.0,-3.0,-2.0,-4.0,-1.0,1650821538292899.0
-1.0,-3.0,-1.0,-2.0,6.0,8.0,0.0,-2.0,1650821538305985.0
1.0,1.0,-2.0,-1.0,0.0,-4.0,-2.0,-3.0,1650821538305985.0
-1.0,0.0,1.0,1.0,1.0,6.0,4.0,2.0,1650821538313035.0
1.0,0.0,0.0,-1.0,1.0,5.0,3.0,2.0,1650821538313035.0
1.0,2.0,2.0,1.0,3.0,-8.0,-1.0,0.0,1650821538329164.0
0.0,-1.0,0.0,0.0,-2.0,-1.0,-3.0,-1.0,1650821538329164.0
0.0,-1.0,-3.0,-2.0,5.0,-2.0,-2.0,0.0,1650821538331093.0
5.0,1.0,-2.0,-4.0,-6.0,-2.0,0.0,-2.0,1650821538331093.0
-11.0,-1.0,-2.0,0.0,-8.0,-9.0,-2.0,-1.0,1650821538352100.0
1.0,0.0,0.0,-1.0,4.0,2.0,0.0,-2.0,1650821538352100.0
-3.0,-2.0,-4.0,-3.0,-4.0,-11.0,-4.0,-3.0,1650821538353034.0
-1.0,0.0,1.0,0.0,1.0,5.0,1.0,1.0,1650821538353034.0
3.0,-1.0,0.0,2.0,5.0,9.0,2.0,0.0,1650821538366066.0
0.0,0.0,0.0,1.0,-3.0,-1.0,1.0,0.0,1650821538366066.0
0.0,-1.0,0.0,1.0,2.0,0.0,1.0,1.0,1650821538373259.0
-1.0,-1.0,-2.0,-3.0,0.0,-5.0,-2.0,-2.0,1650821538373259.0
0.0,-2.0,-1.0,1.0,-11.0,-6.0,0.0,0.0,1650821538388932.0
-2.0,0.0,0.0,2.0,1.0,7.0,2.0,0.0,1650821538388932.0
2.0,1.0,1.0,1.0,12.0,4.0,2.0,0.0,1650821538390860.0
-1.0,-1.0,-1.0,1.0,-2.0,-3.0,-2.0,0.0,1650821538390860.0
1.0,-1.0,-2.0,-2.0,0.0,-8.0,-1.0,0.0,1650821538411962.0
0.0,-1.0,-2.0,-2.0,-3.0,5.0,-1.0,-1.0,1650821538411962.0
0.0,-3.0,0.0,-3.0,-2.0,2.0,-1.0,-1.0,1650821538418004.0
-2.0,-2.0,-1.0,-1.0,-4.0,-6.0,-4.0,-1.0,1650821538418004.0
-2.0,0.0,-1.0,-2.0,-4.0,-5.0,-1.0,0.0,1650821538425945.0
-1.0,-1.0,-1.0,0.0,-2.0,-5.0,-1.0,1.0,1650821538425945.0
-2.0,1.0,1.0,0.0,1.0,8.0,1.0,-2.0,1650821538433285.0
0.0,-1.0,-1.0,1.0,1.0,0.0,1.0,0.0,1650821538433285.0
1.0,0.0,-1.0,-1.0,-1.0,-2.0,-2.0,-1.0,1650821538449143.0
-2.0,0.0,-1.0,-1.0,-2.0,-1.0,-3.0,-2.0,1650821538449143.0
1.0,0.0,-1.0,1.0,2.0,6.0,0.0,0.0,1650821538451100.0
0.0,0.0,2.0,4.0,7.0,6.0,2.0,1.0,1650821538451100.0
1.0,0.0,0.0,1.0,-1.0,-2.0,-1.0,0.0,1650821538472212.0
0.0,-3.0,-3.0,-5.0,-6.0,-20.0,-3.0,-2.0,1650821538472212.0
-1.0,0.0,0.0,-2.0,-5.0,2.0,-3.0,-2.0,1650821538473215.0
-2.0,0.0,0.0,1.0,-2.0,10.0,4.0,-1.0,1650821538473215.0
-1.0,0.0,0.0,1.0,9.0,3.0,0.0,-1.0,1650821538485306.0
2.0,0.0,-2.0,-2.0,-4.0,-3.0,0.0,-1.0,1650821538485306.0
0.0,0.0,-1.0,-4.0,-12.0,-18.0,-5.0,-2.0,1650821538501854.0
-1.0,-1.0,0.0,-1.0,-4.0,-5.0,-2.0,-2.0,1650821538501854.0
6.0,0.0,2.0,2.0,7.0,13.0,4.0,0.0,1650821538508892.0
-6.0,-1.0,1.0,0.0,10.0,8.0,2.0,0.0,1650821538508892.0
-1.0,-2.0,-1.0,2.0,1.0,7.0,3.0,0.0,1650821538510830.0
-1.0,0.0,-2.0,-1.0,-6.0,-8.0,-2.0,-1.0,1650821538510830.0
2.0,-2.0,0.0,-3.0,-5.0,-9.0,-3.0,-2.0,1650821538531923.0
0.0,-2.0,2.0,4.0,5.0,15.0,1.0,2.0,1650821538531923.0
2.0,-1.0,1.0,2.0,5.0,3.0,1.0,3.0,1650821538532883.0
-2.0,-2.0,-2.0,-3.0,-14.0,-17.0,-3.0,-2.0,1650821538532883.0
-4.0,-2.0,-1.0,-1.0,7.0,-1.0,-3.0,-1.0,1650821538544896.0
-1.0,0.0,-1.0,-1.0,-4.0,-4.0,-1.0,0.0,1650821538544896.0
-2.0,-1.0,0.0,-1.0,1.0,1.0,0.0,-1.0,1650821538554869.0
1.0,1.0,1.0,-1.0,-7.0,-2.0,0.0,0.0,1650821538554869.0
-1.0,2.0,0.0,0.0,-5.0,-3.0,0.0,1.0,1650821538569039.0
-1.0,0.0,1.0,0.0,9.0,9.0,0.0,-3.0,1650821538569039.0
1.0,1.0,1.0,1.0,0.0,0.0,1.0,0.0,1650821538570994.0
-1.0,-1.0,-1.0,-1.0,4.0,-1.0,0.0,1.0,1650821538570994.0
-1.0,-3.0,0.0,-4.0,-20.0,-20.0,-6.0,-1.0,1650821538592109.0
1.0,0.0,0.0,1.0,9.0,10.0,1.0,0.0,1650821538592109.0
-1.0,-1.0,-1.0,1.0,8.0,13.0,1.0,-1.0,1650821538593040.0
-2.0,-1.0,-1.0,0.0,3.0,-2.0,-2.0,-1.0,1650821538593040.0
-1.0,-1.0,-1.0,0.0,-7.0,0.0,1.0,0.0,1650821538605073.0
1.0,-1.0,-1.0,0.0,-2.0,-3.0,-1.0,2.0,1650821538605073.0
0.0,2.0,-1.0,-3.0,-8.0,-10.0,-4.0,-2.0,1650821538613990.0
3.0,1.0,0.0,-1.0,2.0,4.0,1.0,0.0,1650821538613990.0
-4.0,-1.0,-3.0,0.0,6.0,8.0,2.0,-3.0,1650821538629132.0
0.0,1.0,-3.0,-2.0,-9.0,-11.0,-2.0,-1.0,1650821538629132.0
-2.0,-2.0,-2.0,-2.0,-4.0,-8.0,-2.0,0.0,1650821538631087.0
3.0,-1.0,0.0,-3.0,-9.0,-1.0,-1.0,0.0,1650821538631087.0
1.0,2.0,0.0,3.0,8.0,5.0,0.0,0.0,1650821538652161.0
0.0,1.0,3.0,3.0,15.0,15.0,5.0,1.0,1650821538652161.0
-1.0,0.0,0.0,1.0,5.0,0.0,0.0,-1.0,1650821538653151.0
-1.0,-1.0,-2.0,-2.0,-5.0,-14.0,-5.0,0.0,1650821538653151.0
-2.0,-2.0,-1.0,-3.0,-13.0,-8.0,-2.0,0.0,1650821538664871.0
0.0,-1.0,-2.0,-2.0,-11.0,-2.0,-3.0,-1.0,1650821538664871.0
0.0,0.0,-1.0,1.0,5.0,1.0,-1.0,1.0,1650821538674821.0
-2.0,0.0,0.0,1.0,14.0,13.0,1.0,0.0,1650821538674821.0
0.0,0.0,0.0,-1.0,0.0,0.0,1.0,0.0,1650821538688823.0
-1.0,-2.0,1.0,-2.0,-5.0,-7.0,0.0,-1.0,1650821538688823.0
-1.0,-2.0,-2.0,-4.0,-14.0,-10.0,-3.0,-1.0,1650821538690820.0
-2.0,-2.0,-3.0,-1.0,-5.0,-6.0,-1.0,-3.0,1650821538690820.0
2.0,-2.0,2.0,0.0,6.0,9.0,1.0,0.0,1650821538712005.0
1.0,0.0,1.0,3.0,8.0,8.0,3.0,1.0,1650821538712005.0
1.0,-2.0,-3.0,-3.0,3.0,2.0,-1.0,-1.0,1650821538712940.0
-3.0,0.0,0.0,-3.0,-3.0,-2.0,1.0,0.0,1650821538712940.0
-1.0,0.0,-4.0,-2.0,-5.0,-9.0,-2.0,-1.0,1650821538724973.0
-3.0,0.0,-2.0,-2.0,-7.0,-11.0,-5.0,-2.0,1650821538724973.0
-1.0,-1.0,0.0,2.0,5.0,6.0,1.0,-1.0,1650821538733962.0
0.0,1.0,1.0,2.0,2.0,8.0,2.0,0.0,1650821538733962.0
0.0,-1.0,0.0,-2.0,-4.0,3.0,0.0,-1.0,1650821538748871.0
1.0,0.0,-1.0,-3.0,-3.0,-16.0,-3.0,0.0,1650821538748871.0
0.0,0.0,0.0,-1.0,-1.0,1.0,-1.0,-2.0,1650821538755828.0
0.0,-1.0,-2.0,1.0,-1.0,5.0,2.0,0.0,1650821538755828.0
1.0,1.0,-2.0,0.0,2.0,3.0,2.0,0.0,1650821538770974.0
-1.0,0.0,0.0,2.0,7.0,4.0,-2.0,-2.0,1650821538770974.0
0.0,-1.0,-1.0,0.0,-8.0,-10.0,-1.0,2.0,1650821538778996.0
0.0,-1.0,3.0,1.0,4.0,-4.0,-4.0,-3.0,1650821538778996.0
-3.0,-1.0,-2.0,-1.0,4.0,14.0,3.0,0.0,1650821538784983.0
-1.0,1.0,-2.0,1.0,-2.0,2.0,3.0,-2.0,1650821538784983.0
-1.0,0.0,-1.0,0.0,-1.0,-5.0,1.0,1.0,1650821538794802.0
-3.0,-1.0,0.0,0.0,-2.0,2.0,0.0,0.0,1650821538794802.0
0.0,-1.0,-2.0,-3.0,1.0,-4.0,-5.0,-2.0,1650821538808861.0
-1.0,0.0,1.0,-1.0,-7.0,-6.0,-4.0,-2.0,1650821538808861.0
-1.0,-2.0,-2.0,-3.0,-5.0,-2.0,-1.0,-1.0,1650821538815881.0
0.0,-1.0,0.0,2.0,-2.0,-2.0,-2.0,-3.0,1650821538815881.0
0.0,0.0,2.0,1.0,3.0,-10.0,-3.0,-1.0,1650821538830859.0
6.0,1.0,-2.0,0.0,2.0,11.0,2.0,0.0,1650821538830859.0
-8.0,-1.0,2.0,-1.0,0.0,6.0,2.0,-2.0,1650821538839888.0
0.0,-1.0,0.0,-2.0,2.0,1.0,1.0,1.0,1650821538839888.0
1.0,2.0,-1.0,-2.0,-3.0,-5.0,-2.0,-2.0,1650821538853942.0
0.0,-2.0,0.0,-1.0,-9.0,-10.0,0.0,0.0,1650821538853942.0
0.0,-2.0,0.0,-1.0,-5.0,-6.0,-3.0,-3.0,1650821538855939.0
-1.0,0.0,1.0,0.0,5.0,2.0,-2.0,-2.0,1650821538855939.0
-2.0,1.0,0.0,4.0,5.0,10.0,1.0,0.0,1650821538876932.0
-1.0,-1.0,0.0,2.0,5.0,0.0,4.0,2.0,1650821538876932.0
2.0,2.0,0.0,0.0,4.0,4.0,3.0,2.0,1650821538877865.0
-1.0,-1.0,-6.0,-3.0,-6.0,-4.0,0.0,-1.0,1650821538877865.0
0.0,-3.0,0.0,0.0,0.0,-9.0,-5.0,-2.0,1650821538890858.0
-3.0,0.0,1.0,1.0,-2.0,3.0,-2.0,-2.0,1650821538890858.0
-1.0,-3.0,-2.0,2.0,-2.0,6.0,1.0,1.0,1650821538897904.0
2.0,0.0,0.0,-3.0,1.0,-2.0,0.0,1.0,1650821538897904.0
-2.0,-3.0,-4.0,-4.0,-4.0,-6.0,-2.0,0.0,1650821538913874.0
-1.0,-3.0,-3.0,-3.0,-4.0,-7.0,-3.0,-1.0,1650821538913874.0
0.0,1.0,3.0,1.0,-1.0,-3.0,-1.0,-2.0,1650821538915806.0
0.0,0.0,-1.0,0.0,-6.0,-3.0,1.0,-1.0,1650821538915806.0
0.0,-1.0,-1.0,0.0,16.0,15.0,1.0,-2.0,1650821538937077.0
-1.0,0.0,-1.0,-3.0,-1.0,1.0,0.0,-1.0,1650821538937077.0
1.0,1.0,0.0,-3.0,-7.0,-8.0,-1.0,0.0,1650821538938010.0
-1.0,1.0,3.0,3.0,-2.0,7.0,1.0,1.0,1650821538938010.0
-3.0,-1.0,1.0,0.0,1.0,1.0,1.0,2.0,1650821538950042.0
0.0,-2.0,-4.0,-2.0,-6.0,-11.0,-3.0,-2.0,1650821538950042.0
-1.0,-2.0,-3.0,0.0,-1.0,-5.0,-4.0,-4.0,1650821538958996.0
-1.0,-1.0,1.0,1.0,7.0,17.0,3.0,0.0,1650821538958996.0
0.0,1.0,1.0,2.0,5.0,11.0,6.0,1.0,1650821538974014.0
-1.0,0.0,1.0,-2.0,-1.0,-1.0,0.0,1.0,1650821538974014.0
5.0,2.0,0.0,-2.0,2.0,-9.0,-4.0,-1.0,1650821538976039.0
-13.0,-3.0,-4.0,-2.0,-4.0,-13.0,-4.0,-4.0,1650821538976039.0
0.0,-1.0,-1.0,0.0,-3.0,2.0,0.0,-1.0,1650821538997103.0
-1.0,1.0,-1.0,-1.0,-3.0,1.0,-1.0,0.0,1650821538997103.0
-2.0,-1.0,0.0,-1.0,-4.0,2.0,-2.0,2.0,1650821538998113.0
4.0,1.0,0.0,-1.0,7.0,0.0,0.0,-1.0,1650821538998113.0
0.0,0.0,-1.0,-1.0,0.0,3.0,-4.0,-1.0,1650821539010098.0
-1.0,-1.0,1.0,-1.0,-4.0,-2.0,2.0,0.0,1650821539010098.0
-1.0,-1.0,-1.0,-2.0,2.0,3.0,1.0,0.0,1650821539019864.0
2.0,-1.0,0.0,-1.0,-4.0,-2.0,-1.0,-2.0,1650821539019864.0
-2.0,-1.0,0.0,1.0,-10.0,-12.0,-2.0,-2.0,1650821539033996.0
1.0,-1.0,0.0,2.0,1.0,1.0,-1.0,1.0,1650821539033996.0
0.0,1.0,-2.0,-2.0,6.0,5.0,2.0,-1.0,1650821539036020.0
1.0,-1.0,-2.0,-1.0,-4.0,-9.0,-1.0,-1.0,1650821539036020.0
0.0,-1.0,0.0,0.0,-5.0,2.0,1.0,-1.0,1650821539057091.0
0.0,0.0,-3.0,2.0,12.0,12.0,2.0,1.0,1650821539057091.0
-1.0,-1.0,3.0,1.0,3.0,8.0,2.0,2.0,1650821539059017.0
1.0,0.0,1.0,0.0,0.0,-3.0,-2.0,0.0,1650821539059017.0
1.0,-1.0,-2.0,-2.0,-13.0,-15.0,-5.0,-1.0,1650821539070001.0
-1.0,-2.0,-3.0,-2.0,2.0,-4.0,-3.0,-3.0,1650821539070001.0
-1.0,-2.0,-4.0,-1.0,1.0,2.0,0.0,-1.0,1650821539079114.0
1.0,-2.0,-3.0,-2.0,0.0,0.0,-3.0,0.0,1650821539079114.0
0.0,0.0,-1.0,1.0,-8.0,-1.0,2.0,-1.0,1650821539094382.0
1.0,0.0,1.0,2.0,-1.0,-1.0,0.0,0.0,1650821539094382.0
-2.0,-2.0,-1.0,-1.0,3.0,4.0,-2.0,-3.0,1650821539095315.0
0.0,1.0,0.0,1.0,10.0,8.0,0.0,0.0,1650821539095315.0
-2.0,1.0,-2.0,-3.0,0.0,-2.0,-1.0,0.0,1650821539116449.0
0.0,-1.0,-2.0,-1.0,-3.0,0.0,0.0,-2.0,1650821539116449.0
-1.0,0.0,1.0,0.0,-4.0,-11.0,2.0,1.0,1650821539118377.0
0.0,-1.0,1.0,1.0,-3.0,8.0,1.0,0.0,1650821539118377.0
3.0,0.0,-2.0,-2.0,-3.0,-2.0,-2.0,-2.0,1650821539130499.0
-2.0,-2.0,-2.0,-3.0,-2.0,-9.0,-4.0,-5.0,1650821539130499.0
1.0,-1.0,0.0,0.0,3.0,-1.0,-2.0,-1.0,1650821539139545.0
0.0,-1.0,-3.0,-1.0,-4.0,0.0,0.0,0.0,1650821539139545.0
2.0,0.0,0.0,2.0,11.0,7.0,1.0,2.0,1650821539154609.0
0.0,1.0,0.0,-1.0,-3.0,-3.0,0.0,0.0,1650821539154609.0
-1.0,0.0,2.0,3.0,0.0,3.0,0.0,0.0,1650821539155801.0
1.0,0.0,-2.0,-2.0,0.0,-2.0,0.0,-1.0,1650821539155801.0
-2.0,0.0,0.0,-3.0,-3.0,-3.0,-1.0,0.0,1650821539177085.0
0.0,-4.0,-5.0,0.0,-4.0,-5.0,-1.0,0.0,1650821539177085.0
-2.0,1.0,-2.0,-3.0,-12.0,-6.0,-3.0,-3.0,1650821539177942.0
3.0,16.0,6.0,4.0,1.0,-3.0,-6.0,-8.0,1650821539177942.0
-1.0,-4.0,5.0,3.0,6.0,12.0,9.0,5.0,1650821539189979.0
-8.0,-21.0,-10.0,-5.0,-1.0,11.0,7.0,15.0,1650821539189979.0
-3.0,-7.0,-3.0,-7.0,-1.0,-4.0,1.0,4.0,1650821539199028.0
-2.0,-11.0,-9.0,-5.0,-4.0,-9.0,-6.0,-4.0,1650821539199028.0
2.0,10.0,6.0,4.0,4.0,-3.0,-2.0,-5.0,1650821539214635.0
6.0,14.0,9.0,7.0,3.0,4.0,-1.0,4.0,1650821539214635.0
5.0,6.0,1.0,5.0,4.0,12.0,6.0,-6.0,1650821539215806.0
-9.0,2.0,3.0,-2.0,-3.0,-13.0,-4.0,-3.0,1650821539215806.0
-1.0,-1.0,-5.0,-3.0,-5.0,-9.0,-8.0,-16.0,1650821539236518.0
-6.0,-5.0,-4.0,-3.0,-5.0,2.0,1.0,5.0,1650821539236518.0
4.0,-3.0,-7.0,-4.0,3.0,0.0,1.0,7.0,1650821539238515.0
1.0,7.0,7.0,2.0,0.0,-9.0,-1.0,0.0,1650821539238515.0
1.0,-7.0,2.0,-1.0,-10.0,-2.0,4.0,14.0,1650821539250884.0
-12.0,-27.0,-13.0,-8.0,-2.0,1.0,-7.0,-14.0,1650821539250884.0
-2.0,-8.0,-1.0,1.0,5.0,5.0,-3.0,-5.0,1650821539259858.0
0.0,2.0,0.0,4.0,7.0,5.0,1.0,-5.0,1650821539259858.0
10.0,12.0,6.0,4.0,9.0,6.0,6.0,11.0,1650821539273993.0
6.0,7.0,3.0,-3.0,-4.0,-5.0,8.0,7.0,1650821539273993.0
-2.0,-16.0,-11.0,-7.0,-12.0,-15.0,-7.0,7.0,1650821539276017.0
-9.0,-1.0,-4.0,-6.0,-14.0,-4.0,-3.0,-17.0,1650821539276017.0
2.0,4.0,2.0,3.0,2.0,2.0,-2.0,-7.0,1650821539297138.0
-2.0,16.0,7.0,5.0,11.0,4.0,0.0,-2.0,1650821539297138.0
-3.0,6.0,4.0,3.0,12.0,10.0,-3.0,-13.0,1650821539298138.0
6.0,6.0,-1.0,3.0,2.0,1.0,-4.0,5.0,1650821539298138.0
0.0,-11.0,6.0,1.0,-1.0,-1.0,9.0,5.0,1650821539310174.0
-2.0,14.0,-3.0,-7.0,-6.0,-7.0,-6.0,0.0,1650821539310174.0
13.0,3.0,-25.0,-7.0,-14.0,-12.0,17.0,27.0,1650821539319309.0
5.0,-10.0,12.0,7.0,7.0,17.0,-17.0,-23.0,1650821539319309.0
-32.0,-36.0,-39.0,-11.0,-4.0,-4.0,-20.0,-47.0,1650821539341867.0
-2.0,-46.0,23.0,-7.0,6.0,15.0,89.0,93.0,1650821539341867.0
-24.0,-5.0,1.0,12.0,-7.0,-8.0,-14.0,-48.0,1650821539342895.0
23.0,-7.0,-34.0,-25.0,-11.0,-11.0,21.0,48.0,1650821539342895.0
-14.0,21.0,4.0,1.0,-5.0,-10.0,-37.0,-68.0,1650821539356932.0
17.0,40.0,18.0,12.0,5.0,5.0,-39.0,-50.0,1650821539356932.0
2.0,12.0,27.0,23.0,21.0,23.0,4.0,2.0,1650821539357865.0
-6.0,-8.0,-17.0,-6.0,5.0,7.0,8.0,7.0,1650821539357865.0
11.0,-40.0,-10.0,1.0,-2.0,-15.0,0.0,24.0,1650821539369936.0
-23.0,29.0,-4.0,-43.0,-24.0,-14.0,-16.0,-17.0,1650821539369936.0
8.0,14.0,7.0,13.0,6.0,3.0,7.0,43.0,1650821539379047.0
2.0,-52.0,-50.0,-14.0,-7.0,-1.0,-8.0,-56.0,1650821539379047.0
-7.0,-39.0,-15.0,-1.0,0.0,3.0,37.0,96.0,1650821539393960.0
-26.0,-45.0,-5.0,15.0,0.0,-7.0,-10.0,-47.0,1650821539393960.0
-6.0,-2.0,-9.0,-2.0,-8.0,-9.0,-15.0,-16.0,1650821539400836.0
0.0,28.0,56.0,18.0,6.0,-1.0,-4.0,-27.0,1650821539400836.0
17.0,62.0,-24.0,-16.0,6.0,12.0,19.0,30.0,1650821539417109.0
13.0,4.0,25.0,14.0,5.0,3.0,-8.0,0.0,1650821539417109.0
58.0,89.0,16.0,5.0,1.0,0.0,1.0,4.0,1650821539417914.0
-43.0,-38.0,-34.0,-14.0,-6.0,-2.0,12.0,27.0,1650821539417914.0
-37.0,-42.0,2.0,-6.0,-5.0,-2.0,-4.0,-20.0,1650821539439215.0
-14.0,22.0,-11.0,7.0,-1.0,-16.0,-27.0,-38.0,1650821539439215.0
-5.0,-16.0,-5.0,-23.0,-16.0,-12.0,0.0,9.0,1650821539441158.0
31.0,31.0,-7.0,-7.0,-6.0,8.0,-5.0,-11.0,1650821539441158.0
17.0,43.0,74.0,25.0,19.0,22.0,11.0,24.0,1650821539453959.0
12.0,-11.0,5.0,9.0,17.0,11.0,24.0,30.0,1650821539453959.0
8.0,-14.0,1.0,8.0,7.0,-5.0,-4.0,-11.0,1650821539460790.0
-5.0,15.0,9.0,-2.0,-8.0,-10.0,-17.0,-16.0,1650821539460790.0
-20.0,-20.0,-48.0,-36.0,-24.0,-16.0,-34.0,-61.0,1650821539476814.0
13.0,-5.0,3.0,9.0,-11.0,-12.0,4.0,18.0,1650821539476814.0
-13.0,-25.0,-14.0,-5.0,7.0,4.0,-3.0,-2.0,1650821539478742.0
-13.0,6.0,32.0,18.0,10.0,5.0,4.0,3.0,1650821539478742.0
9.0,21.0,17.0,4.0,0.0,-2.0,-15.0,-24.0,1650821539498925.0
4.0,21.0,-19.0,-1.0,-1.0,3.0,-3.0,8.0,1650821539498925.0
-2.0,-17.0,14.0,4.0,3.0,6.0,16.0,22.0,1650821539500959.0
-8.0,-19.0,17.0,11.0,1.0,-2.0,16.0,14.0,1650821539500959.0
20.0,34.0,23.0,7.0,-3.0,3.0,10.0,38.0,1650821539513019.0
-8.0,-9.0,-17.0,-12.0,-2.0,-5.0,-11.0,-25.0,1650821539513019.0
-12.0,-3.0,3.0,-11.0,-8.0,-3.0,-24.0,-40.0,1650821539521995.0
19.0,19.0,6.0,10.0,4.0,6.0,10.0,48.0,1650821539521995.0
0.0,-3.0,38.0,37.0,33.0,22.0,19.0,13.0,1650821539537233.0
0.0,5.0,-8.0,-11.0,-8.0,-9.0,-15.0,-17.0,1650821539537233.0
-12.0,-17.0,-7.0,-3.0,-2.0,0.0,10.0,16.0,1650821539538212.0
14.0,-11.0,-43.0,-19.0,-9.0,-8.0,-5.0,4.0,1650821539538212.0
-16.0,-15.0,-24.0,-15.0,-25.0,-18.0,-23.0,-53.0,1650821539559335.0
29.0,29.0,39.0,18.0,14.0,13.0,30.0,57.0,1650821539559335.0
-26.0,-36.0,3.0,13.0,-2.0,-2.0,-9.0,-28.0,1650821539560336.0
-3.0,4.0,9.0,1.0,4.0,0.0,0.0,-14.0,1650821539560336.0
1.0,0.0,-36.0,-23.0,2.0,3.0,-10.0,-41.0,1650821539573300.0
-2.0,-15.0,-18.0,-11.0,-4.0,-6.0,10.0,54.0,1650821539573300.0
4.0,7.0,1.0,-12.0,-11.0,1.0,-2.0,-9.0,1650821539582291.0
-27.0,5.0,8.0,12.0,1.0,2.0,2.0,19.0,1650821539582291.0
28.0,24.0,17.0,13.0,10.0,-2.0,-8.0,-45.0,1650821539597141.0
9.0,3.0,-6.0,8.0,3.0,8.0,-3.0,-30.0,1650821539597141.0
6.0,6.0,-7.0,-4.0,10.0,2.0,15.0,28.0,1650821539598141.0
-7.0,-8.0,-10.0,-9.0,-8.0,-6.0,-9.0,-7.0,1650821539598141.0
-2.0,0.0,21.0,-1.0,-12.0,-16.0,2.0,23.0,1650821539619078.0
-12.0,-7.0,-15.0,-2.0,-8.0,-6.0,-23.0,-52.0,1650821539619078.0
22.0,15.0,5.0,6.0,7.0,15.0,36.0,87.0,1650821539621031.0
-9.0,-8.0,-10.0,-5.0,-2.0,-1.0,-6.0,-42.0,1650821539621031.0
-6.0,-9.0,-12.0,-14.0,-12.0,-17.0,-1.0,23.0,1650821539633169.0
3.0,8.0,25.0,8.0,7.0,11.0,9.0,3.0,1650821539633169.0
9.0,25.0,4.0,6.0,-3.0,3.0,-12.0,-24.0,1650821539640218.0
8.0,2.0,16.0,5.0,27.0,11.0,1.0,11.0,1650821539640218.0
-7.0,-11.0,-19.0,-2.0,1.0,-2.0,0.0,0.0,1650821539656301.0
0.0,-14.0,16.0,-5.0,-7.0,-2.0,-8.0,-7.0,1650821539656301.0
-2.0,11.0,-9.0,-17.0,-14.0,-16.0,0.0,-13.0,1650821539658229.0
-1.0,-1.0,10.0,3.0,-18.0,-13.0,-3.0,4.0,1650821539658229.0
14.0,30.0,32.0,4.0,4.0,6.0,-1.0,3.0,1650821539679924.0
5.0,-11.0,-48.0,-7.0,3.0,2.0,-16.0,-20.0,1650821539679924.0
-25.0,-30.0,6.0,-2.0,-1.0,-1.0,6.0,31.0,1650821539680856.0
7.0,7.0,10.0,3.0,3.0,2.0,-5.0,-21.0,1650821539680856.0
-8.0,-1.0,-1.0,3.0,-4.0,-12.0,-1.0,17.0,1650821539693890.0
10.0,22.0,5.0,6.0,0.0,6.0,17.0,31.0,1650821539693890.0
-12.0,-19.0,-17.0,-13.0,2.0,9.0,-13.0,-52.0,1650821539700836.0
-3.0,5.0,7.0,4.0,15.0,15.0,7.0,11.0,1650821539700836.0
10.0,5.0,-14.0,2.0,-2.0,1.0,6.0,11.0,1650821539717167.0
-17.0,-11.0,-26.0,-12.0,-11.0,-16.0,-8.0,3.0,1650821539717167.0
-2.0,13.0,29.0,10.0,-10.0,-19.0,-22.0,-34.0,1650821539718171.0
0.0,-15.0,-16.0,-1.0,2.0,6.0,6.0,24.0,1650821539718171.0
10.0,-1.0,-12.0,-7.0,-6.0,8.0,7.0,12.0,1650821539738857.0
-14.0,-8.0,-8.0,-1.0,5.0,-2.0,-8.0,-32.0,1650821539738857.0
14.0,24.0,17.0,4.0,7.0,2.0,10.0,50.0,1650821539740855.0
-3.0,14.0,2.0,8.0,-5.0,-6.0,-11.0,-60.0,1650821539740855.0
6.0,-13.0,4.0,12.0,10.0,13.0,30.0,52.0,1650821539754018.0
1.0,-11.0,-18.0,-3.0,-5.0,9.0,1.0,-17.0,1650821539754018.0
4.0,8.0,13.0,-7.0,-4.0,-5.0,-19.0,-38.0,1650821539760040.0
7.0,13.0,19.0,9.0,5.0,-3.0,21.0,104.0,1650821539760040.0
-1.0,-8.0,-20.0,0.0,1.0,0.0,4.0,-5.0,1650821539777109.0
10.0,6.0,4.0,-13.0,2.0,3.0,10.0,40.0,1650821539777109.0
2.0,-2.0,0.0,5.0,7.0,11.0,8.0,-13.0,1650821539778015.0
1.0,-6.0,-15.0,-15.0,-16.0,-7.0,-9.0,-20.0,1650821539778015.0
0.0,9.0,4.0,-9.0,-12.0,-13.0,-10.0,-5.0,1650821539798900.0
-10.0,-7.0,40.0,11.0,12.0,5.0,0.0,-5.0,1650821539798900.0
-2.0,0.0,-9.0,7.0,14.0,7.0,-3.0,-7.0,1650821539800897.0
18.0,1.0,-7.0,1.0,7.0,18.0,27.0,19.0,1650821539800897.0
-14.0,-14.0,-27.0,-9.0,-13.0,-17.0,-4.0,6.0,1650821539813939.0
11.0,6.0,-5.0,-1.0,-1.0,6.0,0.0,-10.0,1650821539813939.0
-3.0,6.0,-4.0,2.0,-14.0,-11.0,3.0,20.0,1650821539819991.0
6.0,6.0,10.0,9.0,9.0,4.0,-11.0,-28.0,1650821539819991.0
-5.0,-5.0,16.0,-9.0,7.0,6.0,12.0,16.0,1650821539837160.0
-3.0,-17.0,-29.0,6.0,2.0,-3.0,-5.0,-14.0,1650821539837160.0
-1.0,-11.0,-9.0,-7.0,-3.0,4.0,7.0,28.0,1650821539838160.0
-7.0,8.0,25.0,-3.0,-7.0,-14.0,-6.0,-11.0,1650821539838160.0
11.0,-10.0,16.0,22.0,-3.0,-4.0,-5.0,-1.0,1650821539858860.0
-11.0,6.0,-6.0,-6.0,0.0,-3.0,-15.0,-16.0,1650821539858860.0
-10.0,-20.0,-30.0,-9.0,-14.0,-14.0,-8.0,-24.0,1650821539860857.0
-10.0,0.0,2.0,-17.0,19.0,21.0,-4.0,6.0,1650821539860857.0
-7.0,-3.0,-2.0,6.0,9.0,14.0,-2.0,-23.0,1650821539873934.0
3.0,8.0,16.0,11.0,0.0,-10.0,-11.0,-3.0,1650821539873934.0
6.0,14.0,-3.0,5.0,0.0,2.0,12.0,0.0,1650821539888025.0
4.0,2.0,18.0,6.0,-13.0,-16.0,2.0,9.0,1650821539888025.0
-1.0,9.0,9.0,1.0,10.0,7.0,-7.0,-7.0,1650821539897047.0
8.0,-8.0,16.0,-15.0,-28.0,-16.0,5.0,14.0,1650821539897047.0
-21.0,-22.0,-57.0,-18.0,1.0,-2.0,-17.0,-39.0,1650821539898013.0
-10.0,-5.0,6.0,6.0,-8.0,-10.0,-16.0,-38.0,1650821539898013.0
6.0,0.0,-9.0,8.0,0.0,-1.0,8.0,19.0,1650821539920051.0
10.0,22.0,19.0,-12.0,1.0,4.0,6.0,50.0,1650821539920051.0
-2.0,-7.0,10.0,10.0,10.0,3.0,-9.0,-42.0,1650821539920992.0
-7.0,0.0,-37.0,-22.0,-14.0,-25.0,-2.0,13.0,1650821539920992.0
-11.0,-17.0,-32.0,-10.0,-11.0,10.0,-10.0,-77.0,1650821539933017.0
4.0,-11.0,-6.0,14.0,10.0,8.0,19.0,102.0,1650821539933017.0
25.0,3.0,27.0,-3.0,11.0,11.0,2.0,1.0,1650821539941926.0
-13.0,-16.0,-29.0,4.0,-9.0,-10.0,-6.0,-4.0,1650821539941926.0
-4.0,10.0,10.0,-2.0,-2.0,-6.0,2.0,32.0,1650821539957560.0
-12.0,1.0,-11.0,-11.0,-11.0,-6.0,-14.0,-69.0,1650821539957560.0
0.0,3.0,23.0,13.0,6.0,1.0,14.0,57.0,1650821539959087.0
-7.0,-10.0,-16.0,-27.0,-31.0,-25.0,-7.0,-20.0,1650821539959087.0
0.0,-23.0,-29.0,5.0,14.0,7.0,-1.0,12.0,1650821539979074.0
0.0,16.0,23.0,18.0,27.0,33.0,3.0,-13.0,1650821539979074.0
-18.0,-17.0,-35.0,-15.0,-2.0,6.0,-3.0,-14.0,1650821539981001.0
14.0,5.0,12.0,8.0,13.0,7.0,12.0,28.0,1650821539981001.0
0.0,-2.0,-23.0,-8.0,-11.0,-15.0,-8.0,8.0,1650821539992969.0
-9.0,-3.0,2.0,10.0,-7.0,-12.0,-8.0,-43.0,1650821539992969.0
-5.0,12.0,6.0,-15.0,-2.0,-6.0,-7.0,-18.0,1650821540001945.0
-3.0,-48.0,-17.0,-1.0,-16.0,-4.0,10.0,67.0,1650821540001945.0
-7.0,5.0,-1.0,-7.0,-9.0,-7.0,-19.0,-80.0,1650821540017093.0
6.0,-10.0,-20.0,4.0,22.0,12.0,22.0,33.0,1650821540017093.0
3.0,5.0,19.0,16.0,7.0,3.0,-2.0,-3.0,1650821540018092.0
6.0,-2.0,-17.0,1.0,3.0,8.0,3.0,-4.0,1650821540018092.0
-3.0,11.0,20.0,-10.0,1.0,-1.0,-3.0,1.0,1650821540038858.0
5.0,-1.0,8.0,-5.0,-8.0,-10.0,-15.0,-18.0,1650821540038858.0
-15.0,-16.0,-33.0,6.0,-16.0,-21.0,-1.0,-3.0,1650821540040856.0
-23.0,24.0,10.0,-10.0,12.0,18.0,-4.0,8.0,1650821540040856.0
45.0,-11.0,-17.0,-10.0,2.0,15.0,11.0,90.0,1650821540053294.0
-13.0,9.0,18.0,7.0,2.0,-1.0,2.0,-95.0,1650821540053294.0
9.0,20.0,12.0,-4.0,10.0,-2.0,-3.0,16.0,1650821540061861.0
8.0,12.0,21.0,31.0,1.0,0.0,-13.0,-36.0,1650821540061861.0
-12.0,1.0,17.0,-11.0,-6.0,-9.0,3.0,-4.0,1650821540077109.0
3.0,0.0,15.0,8.0,-8.0,-11.0,-2.0,46.0,1650821540077109.0
12.0,4.0,7.0,0.0,5.0,17.0,20.0,9.0,1650821540077908.0
-10.0,-1.0,-4.0,1.0,-2.0,6.0,4.0,2.0,1650821540077908.0
0.0,-2.0,11.0,1.0,8.0,6.0,-5.0,-25.0,1650821540098980.0
9.0,9.0,-14.0,5.0,9.0,-2.0,-5.0,-9.0,1650821540098980.0
-11.0,-19.0,4.0,1.0,-16.0,-27.0,-11.0,-7.0,1650821540100909.0
24.0,24.0,53.0,9.0,1.0,8.0,28.0,86.0,1650821540100909.0
-31.0,0.0,22.0,1.0,-3.0,13.0,-2.0,-62.0,1650821540112943.0
-25.0,-22.0,-37.0,-16.0,5.0,5.0,-16.0,-54.0,1650821540112943.0
3.0,5.0,-10.0,5.0,0.0,-7.0,1.0,47.0,1650821540121860.0
29.0,9.0,5.0,-22.0,4.0,1.0,-7.0,-58.0,1650821540121860.0
-24.0,-8.0,-1.0,10.0,-30.0,-31.0,-11.0,-50.0,1650821540137992.0
8.0,-13.0,-3.0,-2.0,32.0,22.0,-1.0,-24.0,1650821540137992.0
-13.0,0.0,-20.0,-17.0,-12.0,0.0,-1.0,36.0,1650821540139990.0
-12.0,-12.0,-16.0,4.0,8.0,-3.0,2.0,7.0,1650821540139990.0
5.0,11.0,21.0,13.0,-4.0,-1.0,2.0,5.0,1650821540158790.0
11.0,6.0,-25.0,-7.0,3.0,4.0,2.0,15.0,1650821540158790.0
-8.0,-1.0,21.0,6.0,4.0,5.0,-4.0,-20.0,1650821540166780.0
0.0,6.0,-1.0,9.0,18.0,9.0,-12.0,-16.0,1650821540166780.0
41.0,19.0,18.0,9.0,7.0,2.0,20.0,56.0,1650821540172821.0
-27.0,3.0,23.0,1.0,-18.0,-9.0,-4.0,-17.0,1650821540172821.0
-9.0,-27.0,-19.0,-13.0,-11.0,1.0,-4.0,2.0,1650821540181731.0
-6.0,7.0,-16.0,-3.0,-5.0,-11.0,-14.0,-57.0,1650821540181731.0
4.0,7.0,5.0,-7.0,6.0,-3.0,-7.0,16.0,1650821540197060.0
-6.0,-10.0,7.0,-3.0,-16.0,-11.0,4.0,27.0,1650821540197060.0
24.0,17.0,38.0,18.0,-7.0,-5.0,9.0,21.0,1650821540198002.0
4.0,-10.0,-11.0,-1.0,7.0,-3.0,-6.0,-20.0,1650821540198002.0
-6.0,6.0,-8.0,8.0,23.0,29.0,2.0,-1.0,1650821540219639.0
12.0,1.0,17.0,6.0,-3.0,-3.0,6.0,48.0,1650821540219639.0
-3.0,9.0,22.0,13.0,3.0,0.0,0.0,-19.0,1650821540220605.0
-11.0,-10.0,-7.0,-8.0,-17.0,-20.0,-2.0,13.0,1650821540220605.0
11.0,-5.0,-13.0,-15.0,13.0,19.0,2.0,8.0,1650821540232638.0
-12.0,0.0,-23.0,-5.0,-7.0,-2.0,-3.0,-12.0,1650821540232638.0
14.0,12.0,30.0,1.0,-2.0,-2.0,-6.0,-12.0,1650821540241567.0
-30.0,-16.0,-18.0,-13.0,-21.0,-20.0,-2.0,-12.0,1650821540241567.0
-7.0,-3.0,-30.0,-10.0,-17.0,-19.0,-12.0,-25.0,1650821540256931.0
1.0,-2.0,-5.0,-1.0,-2.0,2.0,-4.0,10.0,1650821540256931.0
6.0,-8.0,-23.0,-6.0,-20.0,-1.0,6.0,2.0,1650821540257862.0
-5.0,7.0,8.0,7.0,44.0,32.0,2.0,-6.0,1650821540257862.0
-15.0,-14.0,-2.0,4.0,-6.0,-6.0,5.0,33.0,1650821540278919.0
10.0,-1.0,-8.0,-3.0,-6.0,-12.0,-7.0,-11.0,1650821540278919.0
-3.0,-7.0,-13.0,-5.0,1.0,-7.0,-3.0,-16.0,1650821540280875.0
3.0,-3.0,9.0,-4.0,-11.0,-1.0,2.0,31.0,1650821540280875.0
-30.0,-5.0,-3.0,2.0,-6.0,-1.0,-1.0,0.0,1650821540293260.0
1.0,18.0,18.0,6.0,5.0,-3.0,-3.0,15.0,1650821540293260.0
19.0,-1.0,-8.0,-3.0,6.0,12.0,-7.0,-54.0,1650821540301873.0
-10.0,-8.0,5.0,-1.0,4.0,14.0,8.0,9.0,1650821540301873.0
1.0,5.0,16.0,9.0,-10.0,-25.0,-13.0,-27.0,1650821540317034.0
19.0,-8.0,-50.0,-14.0,0.0,0.0,7.0,19.0,1650821540317034.0
4.0,12.0,10.0,2.0,-6.0,-4.0,1.0,28.0,1650821540318038.0
5.0,-4.0,20.0,11.0,19.0,15.0,8.0,10.0,1650821540318038.0
11.0,6.0,7.0,4.0,1.0,-2.0,2.0,10.0,1650821540339044.0
-1.0,-16.0,-14.0,-3.0,5.0,7.0,2.0,13.0,1650821540339044.0
-20.0,-8.0,-30.0,-29.0,-15.0,-10.0,-9.0,-31.0,1650821540340973.0
16.0,5.0,17.0,11.0,-13.0,-5.0,1.0,5.0,1650821540340973.0
12.0,1.0,36.0,17.0,22.0,23.0,14.0,31.0,1650821540362165.0
-12.0,-14.0,-18.0,-10.0,-4.0,-14.0,-4.0,-5.0,1650821540362165.0
3.0,-5.0,-7.0,0.0,10.0,7.0,4.0,42.0,1650821540363103.0
-9.0,19.0,20.0,10.0,-21.0,-1.0,3.0,-29.0,1650821540363103.0
4.0,-2.0,-10.0,-13.0,-5.0,-12.0,-14.0,-21.0,1650821540377189.0
12.0,3.0,26.0,-1.0,-12.0,-5.0,5.0,20.0,1650821540377189.0
-25.0,9.0,30.0,19.0,13.0,2.0,8.0,45.0,1650821540378190.0
9.0,-14.0,-40.0,-19.0,-1.0,-1.0,-7.0,-44.0,1650821540378190.0
33.0,15.0,4.0,13.0,17.0,17.0,16.0,31.0,1650821540399288.0
-28.0,-29.0,-49.0,-15.0,-15.0,-11.0,-3.0,-10.0,1650821540399288.0
14.0,13.0,17.0,-3.0,-5.0,-6.0,-8.0,7.0,1650821540401225.0
-20.0,15.0,16.0,12.0,1.0,4.0,-6.0,-16.0,1650821540401225.0
1.0,-18.0,-41.0,-14.0,-13.0,-10.0,-10.0,-27.0,1650821540421377.0
8.0,-4.0,3.0,9.0,18.0,12.0,6.0,17.0,1650821540421377.0
-1.0,-10.0,-18.0,-8.0,10.0,7.0,5.0,6.0,1650821540423307.0
9.0,0.0,-10.0,-8.0,-21.0,-25.0,-11.0,3.0,1650821540423307.0
-21.0,-38.0,-16.0,1.0,8.0,4.0,6.0,-3.0,1650821540436916.0
3.0,18.0,25.0,10.0,-4.0,17.0,11.0,-1.0,1650821540436916.0
-2.0,7.0,27.0,9.0,12.0,20.0,-1.0,-21.0,1650821540442969.0
15.0,-5.0,-43.0,-13.0,-4.0,-3.0,9.0,18.0,1650821540442969.0
3.0,1.0,-6.0,-3.0,3.0,-12.0,-7.0,18.0,1650821540458873.0
-16.0,33.0,66.0,5.0,-7.0,-9.0,-7.0,-41.0,1650821540458873.0
0.0,-19.0,-9.0,4.0,6.0,4.0,-5.0,-14.0,1650821540460897.0
19.0,2.0,-3.0,7.0,5.0,5.0,10.0,40.0,1650821540460897.0
-17.0,2.0,5.0,-4.0,-10.0,-9.0,-2.0,-36.0,1650821540482032.0
1.0,3.0,-9.0,-5.0,-6.0,-6.0,-5.0,-11.0,1650821540482032.0
-9.0,3.0,-15.0,-14.0,-25.0,-20.0,-19.0,-15.0,1650821540482992.0
-16.0,7.0,29.0,10.0,18.0,8.0,15.0,41.0,1650821540482992.0
1.0,-6.0,-10.0,-2.0,4.0,14.0,5.0,22.0,1650821540495976.0
15.0,5.0,4.0,-4.0,9.0,7.0,-3.0,-41.0,1650821540495976.0
-10.0,1.0,4.0,6.0,0.0,-3.0,3.0,-56.0,1650821540503317.0
-1.0,-8.0,-24.0,-6.0,-7.0,-6.0,-3.0,20.0,1650821540503317.0
-5.0,3.0,-1.0,-8.0,-6.0,-14.0,-6.0,37.0,1650821540519495.0
-10.0,2.0,13.0,0.0,-21.0,-6.0,-3.0,-13.0,1650821540519495.0
12.0,-4.0,-27.0,1.0,10.0,9.0,5.0,6.0,1650821540520427.0
-5.0,4.0,29.0,-3.0,-6.0,-5.0,-7.0,-20.0,1650821540520427.0
5.0,1.0,-4.0,6.0,-1.0,2.0,3.0,15.0,1650821540541486.0
4.0,-8.0,-7.0,-4.0,5.0,5.0,-5.0,12.0,1650821540541486.0
3.0,11.0,4.0,8.0,9.0,0.0,-1.0,-5.0,1650821540541486.0
-2.0,-23.0,-26.0,-1.0,8.0,6.0,-1.0,-2.0,1650821540541486.0
2.0,8.0,-6.0,-16.0,-16.0,-10.0,-3.0,-18.0,1650821540555440.0
9.0,18.0,17.0,10.0,2.0,-4.0,2.0,21.0,1650821540555440.0
-20.0,-21.0,-24.0,-23.0,-18.0,-3.0,-3.0,-13.0,1650821540563959.0
6.0,8.0,8.0,4.0,1.0,-4.0,-7.0,-7.0,1650821540563959.0
-9.0,2.0,6.0,0.0,-20.0,-27.0,-9.0,-15.0,1650821540578693.0
-4.0,-1.0,-6.0,9.0,16.0,20.0,-3.0,-5.0,1650821540578693.0
1.0,0.0,12.0,5.0,25.0,25.0,6.0,49.0,1650821540579698.0
15.0,0.0,-7.0,-5.0,-3.0,-1.0,2.0,-20.0,1650821540579698.0
-4.0,-3.0,5.0,0.0,0.0,-6.0,-4.0,-32.0,1650821540600893.0
1.0,-1.0,-3.0,-5.0,-15.0,-15.0,-1.0,10.0,1650821540600893.0
2.0,-2.0,-6.0,-7.0,-20.0,-18.0,-3.0,8.0,1650821540601861.0
-1.0,-2.0,-2.0,-1.0,-3.0,-3.0,-5.0,-5.0,1650821540601861.0
-4.0,6.0,3.0,8.0,27.0,31.0,6.0,2.0,1650821540614916.0
4.0,-8.0,-6.0,4.0,4.0,2.0,2.0,9.0,1650821540614916.0
-2.0,0.0,-1.0,-6.0,-2.0,-5.0,3.0,-11.0,1650821540623960.0
-2.0,1.0,-4.0,-7.0,-9.0,-5.0,-1.0,-4.0,1650821540623960.0
3.0,3.0,11.0,0.0,-14.0,-12.0,1.0,1.0,1650821540638859.0
-5.0,-5.0,0.0,11.0,3.0,8.0,-1.0,4.0,1650821540638859.0
-1.0,-1.0,-3.0,5.0,14.0,4.0,-1.0,0.0,1650821540638859.0
4.0,-2.0,-1.0,-17.0,-15.0,-11.0,-3.0,-3.0,1650821540638859.0
-6.0,-3.0,-8.0,-13.0,4.0,1.0,1.0,6.0,1650821540660904.0
7.0,-3.0,-3.0,4.0,3.0,4.0,-2.0,12.0,1650821540660904.0
22.0,6.0,14.0,40.0,7.0,12.0,7.0,-5.0,1650821540661902.0
-53.0,-7.0,-1.0,2.0,7.0,4.0,-4.0,-32.0,1650821540661902.0
-7.0,-7.0,-21.0,-66.0,-25.0,-14.0,-8.0,-5.0,1650821540675792.0
-1.0,-3.0,-6.0,-2.0,-14.0,-19.0,1.0,1.0,1650821540675792.0
-1.0,2.0,6.0,2.0,-4.0,-12.0,-3.0,7.0,1650821540683842.0
7.0,2.0,9.0,32.0,30.0,32.0,3.0,3.0,1650821540683842.0
4.0,3.0,9.0,16.0,10.0,13.0,7.0,1.0,1650821540698925.0
-2.0,-2.0,-5.0,-25.0,-15.0,-12.0,-4.0,-1.0,1650821540698925.0
-1.0,-2.0,-3.0,-3.0,-10.0,-10.0,-2.0,1.0,1650821540698925.0
7.0,1.0,-1.0,-3.0,-2.0,-8.0,-3.0,2.0,1650821540698925.0
6.0,2.0,-1.0,12.0,9.0,7.0,0.0,-1.0,1650821540721862.0
3.0,-3.0,-4.0,-2.0,-2.0,7.0,4.0,3.0,1650821540721862.0
-6.0,-2.0,-1.0,3.0,-3.0,-5.0,1.0,-3.0,1650821540721862.0
6.0,2.0,-2.0,-14.0,0.0,-4.0,-5.0,-4.0,1650821540721862.0
9.0,0.0,-2.0,-19.0,-7.0,-1.0,4.0,36.0,1650821540734921.0
-14.0,1.0,1.0,8.0,4.0,0.0,-3.0,-48.0,1650821540734921.0
-50.0,-6.0,-8.0,-4.0,5.0,4.0,2.0,-27.0,1650821540743959.0
19.0,3.0,5.0,4.0,-1.0,-3.0,-3.0,-8.0,1650821540743959.0
19.0,2.0,11.0,29.0,-4.0,-7.0,-3.0,4.0,1650821540758173.0
-2.0,-5.0,-8.0,-4.0,6.0,7.0,3.0,13.0,1650821540758173.0
3.0,2.0,-7.0,-6.0,10.0,10.0,0.0,8.0,1650821540759105.0
-2.0,-3.0,-8.0,-42.0,-19.0,-10.0,-4.0,10.0,1650821540759105.0
-5.0,1.0,8.0,15.0,1.0,3.0,0.0,-9.0,1650821540781378.0
5.0,-1.0,-4.0,7.0,0.0,-9.0,-1.0,4.0,1650821540781378.0
8.0,-1.0,-4.0,2.0,-10.0,-17.0,-5.0,7.0,1650821540781378.0
5.0,9.0,13.0,23.0,8.0,5.0,2.0,10.0,1650821540781378.0
-3.0,3.0,4.0,5.0,13.0,16.0,0.0,-4.0,1650821540795879.0
-4.0,-10.0,-15.0,-26.0,-1.0,7.0,5.0,5.0,1650821540795879.0
7.0,2.0,5.0,-2.0,-1.0,-3.0,2.0,1.0,1650821540803912.0
-3.0,0.0,-3.0,-4.0,-13.0,-10.0,-2.0,-3.0,1650821540803912.0
-9.0,0.0,0.0,8.0,4.0,1.0,-2.0,-12.0,1650821540818984.0
-1.0,1.0,2.0,6.0,9.0,-1.0,0.0,7.0,1650821540818984.0
7.0,1.0,0.0,-11.0,-2.0,0.0,-2.0,0.0,1650821540818984.0
-1.0,-2.0,1.0,6.0,-5.0,-3.0,-2.0,-3.0,1650821540818984.0
-5.0,-2.0,2.0,7.0,-5.0,-6.0,-2.0,1.0,1650821540840925.0
2.0,-2.0,-3.0,-6.0,-2.0,1.0,1.0,5.0,1650821540840925.0
6.0,2.0,0.0,-4.0,4.0,5.0,1.0,-1.0,1650821540841857.0
0.0,-3.0,-10.0,0.0,-3.0,-2.0,-1.0,3.0,1650821540841857.0
-2.0,2.0,0.0,4.0,10.0,7.0,0.0,0.0,1650821540863961.0
0.0,4.0,4.0,-3.0,-7.0,-7.0,-2.0,0.0,1650821540863961.0
0.0,0.0,-4.0,-4.0,-9.0,-4.0,-2.0,-4.0,1650821540863961.0
-1.0,-1.0,-1.0,-2.0,11.0,11.0,0.0,2.0,1650821540863961.0
-2.0,-3.0,-4.0,-2.0,-6.0,-2.0,2.0,-3.0,1650821540879011.0
1.0,1.0,4.0,4.0,-3.0,-11.0,-3.0,1.0,1650821540879011.0
1.0,1.0,3.0,-1.0,-1.0,0.0,0.0,2.0,1650821540879011.0
2.0,1.0,1.0,2.0,1.0,0.0,-2.0,2.0,1650821540879011.0
-3.0,-1.0,-4.0,0.0,5.0,6.0,0.0,-1.0,1650821540901209.0
-3.0,2.0,1.0,0.0,0.0,1.0,-1.0,2.0,1650821540901209.0
2.0,-2.0,-4.0,-9.0,-3.0,-1.0,-2.0,-5.0,1650821540901889.0
-4.0,-1.0,1.0,-1.0,-13.0,-8.0,0.0,0.0,1650821540901889.0
-2.0,-4.0,-6.0,-1.0,4.0,-5.0,-1.0,-5.0,1650821540925852.0
-2.0,0.0,1.0,1.0,8.0,8.0,0.0,1.0,1650821540925852.0
2.0,2.0,4.0,0.0,-5.0,-4.0,1.0,1.0,1650821540926855.0
-4.0,-1.0,0.0,0.0,-4.0,-12.0,-1.0,-1.0,1650821540926855.0
-1.0,-1.0,1.0,-3.0,-5.0,2.0,0.0,-1.0,1650821540938885.0
3.0,1.0,8.0,7.0,3.0,7.0,1.0,1.0,1650821540938885.0
0.0,-2.0,-1.0,2.0,14.0,13.0,2.0,1.0,1650821540938885.0
1.0,4.0,-2.0,-1.0,4.0,4.0,0.0,3.0,1650821540938885.0
0.0,-1.0,1.0,0.0,-9.0,-7.0,-2.0,-2.0,1650821540960976.0
-1.0,-1.0,-3.0,-3.0,-12.0,-14.0,-2.0,-1.0,1650821540960976.0
1.0,0.0,1.0,-2.0,-1.0,-3.0,-4.0,-1.0,1650821540961908.0
-1.0,-1.0,-1.0,3.0,6.0,7.0,3.0,0.0,1650821540961908.0
-1.0,-1.0,-4.0,-3.0,1.0,1.0,-1.0,-1.0,1650821540974940.0
0.0,0.0,2.0,2.0,4.0,1.0,-1.0,-1.0,1650821540974940.0
-3.0,-3.0,-8.0,-4.0,-6.0,-6.0,-4.0,-3.0,1650821540983908.0
2.0,-1.0,-4.0,-4.0,-8.0,-5.0,-1.0,-1.0,1650821540983908.0
-2.0,2.0,3.0,0.0,-2.0,2.0,2.0,-2.0,1650821540999064.0
0.0,-4.0,-1.0,0.0,-6.0,-16.0,-4.0,0.0,1650821540999064.0
-3.0,-5.0,-3.0,-4.0,7.0,13.0,2.0,0.0,1650821540999995.0
0.0,0.0,4.0,5.0,14.0,23.0,1.0,1.0,1650821540999995.0
4.0,1.0,-2.0,3.0,9.0,6.0,4.0,1.0,1650821541021173.0
-3.0,-2.0,-1.0,-2.0,-11.0,-17.0,1.0,1.0,1650821541021173.0
2.0,1.0,0.0,-3.0,-13.0,-13.0,-1.0,-1.0,1650821541022104.0
1.0,0.0,1.0,2.0,4.0,11.0,3.0,-1.0,1650821541022104.0
-3.0,-1.0,-3.0,-3.0,-1.0,-4.0,-2.0,-1.0,1650821541034872.0
2.0,0.0,-6.0,-2.0,-5.0,-5.0,-3.0,-2.0,1650821541034872.0
-2.0,-1.0,4.0,-1.0,-4.0,-4.0,-2.0,1.0,1650821541043959.0
0.0,0.0,4.0,7.0,9.0,4.0,0.0,-1.0,1650821541043959.0
2.0,-2.0,-5.0,-4.0,-3.0,-1.0,0.0,-6.0,1650821541058860.0
-2.0,1.0,0.0,-5.0,0.0,1.0,-1.0,0.0,1650821541058860.0
0.0,2.0,4.0,2.0,0.0,-1.0,-2.0,-2.0,1650821541058860.0
-4.0,-3.0,-7.0,-5.0,-10.0,-1.0,0.0,-1.0,1650821541058860.0
-3.0,-2.0,1.0,0.0,5.0,0.0,1.0,1.0,1650821541081021.0
3.0,1.0,-1.0,0.0,9.0,15.0,2.0,1.0,1650821541081021.0
-1.0,1.0,-2.0,-3.0,-5.0,-9.0,-1.0,-1.0,1650821541081951.0
-6.0,-1.0,5.0,1.0,-7.0,-13.0,-3.0,-1.0,1650821541081951.0
2.0,0.0,-2.0,0.0,-11.0,-5.0,-1.0,-2.0,1650821541104204.0
-1.0,-1.0,1.0,5.0,9.0,12.0,2.0,0.0,1650821541104204.0
1.0,1.0,-1.0,-4.0,3.0,-7.0,-3.0,0.0,1650821541105136.0
-3.0,-1.0,-5.0,-4.0,-7.0,-10.0,-4.0,-1.0,1650821541105136.0
-1.0,2.0,-1.0,1.0,7.0,19.0,1.0,0.0,1650821541118167.0
0.0,-2.0,3.0,5.0,11.0,9.0,5.0,2.0,1650821541118167.0
0.0,3.0,2.0,0.0,0.0,-2.0,1.0,0.0,1650821541119100.0
3.0,-1.0,-4.0,-4.0,-15.0,-22.0,-5.0,-3.0,1650821541119100.0
-11.0,-4.0,-2.0,-4.0,-5.0,-3.0,-2.0,1.0,1650821541140930.0
2.0,1.0,0.0,0.0,4.0,7.0,-1.0,0.0,1650821541140930.0
1.0,-2.0,1.0,4.0,6.0,5.0,2.0,-1.0,1650821541141862.0
0.0,-2.0,0.0,0.0,-1.0,-5.0,-1.0,-1.0,1650821541141862.0
2.0,-1.0,0.0,-2.0,-3.0,-8.0,-2.0,0.0,1650821541155819.0
-1.0,0.0,-2.0,-1.0,2.0,5.0,-2.0,0.0,1650821541155819.0
0.0,-2.0,0.0,3.0,0.0,12.0,3.0,0.0,1650821541163867.0
2.0,0.0,-1.0,-1.0,4.0,-1.0,0.0,-1.0,1650821541163867.0
-1.0,-2.0,-1.0,-6.0,-6.0,-12.0,-3.0,-1.0,1650821541178862.0
-2.0,0.0,-4.0,0.0,-9.0,-8.0,-3.0,-1.0,1650821541178862.0
1.0,1.0,4.0,2.0,0.0,3.0,1.0,-1.0,1650821541178862.0
1.0,0.0,1.0,5.0,13.0,11.0,2.0,2.0,1650821541178862.0
1.0,0.0,7.0,5.0,-6.0,-7.0,-1.0,0.0,1650821541200857.0
-3.0,-1.0,-6.0,-7.0,-16.0,-17.0,-4.0,-3.0,1650821541200857.0
-5.0,-2.0,-5.0,-4.0,-4.0,0.0,-1.0,1.0,1650821541201854.0
2.0,-3.0,0.0,1.0,5.0,13.0,1.0,-2.0,1650821541201854.0
0.0,1.0,-1.0,2.0,23.0,16.0,2.0,1.0,1650821541224013.0
2.0,0.0,4.0,-1.0,-3.0,0.0,2.0,0.0,1650821541224013.0
-1.0,-1.0,-3.0,-2.0,-12.0,-9.0,-3.0,1.0,1650821541225013.0
-2.0,-1.0,0.0,-2.0,-6.0,-8.0,-2.0,-2.0,1650821541225013.0
0.0,0.0,5.0,4.0,-2.0,-2.0,-2.0,-3.0,1650821541238170.0
0.0,-3.0,-6.0,-5.0,4.0,0.0,-2.0,-1.0,1650821541238170.0
1.0,-1.0,-1.0,-3.0,-1.0,0.0,-1.0,1.0,1650821541239171.0
-1.0,1.0,-1.0,-1.0,-6.0,-6.0,-2.0,-2.0,1650821541239171.0
2.0,0.0,0.0,2.0,-4.0,2.0,1.0,1.0,1650821541261265.0
-1.0,-1.0,1.0,3.0,10.0,12.0,3.0,2.0,1650821541261265.0
1.0,0.0,-1.0,1.0,5.0,-5.0,1.0,0.0,1650821541262268.0
-1.0,0.0,-1.0,-3.0,-14.0,-17.0,-8.0,-2.0,1650821541262268.0
-3.0,-1.0,-2.0,-4.0,-12.0,-8.0,-1.0,-2.0,1650821541284587.0
7.0,3.0,2.0,1.0,17.0,21.0,3.0,0.0,1650821541284587.0
-10.0,-2.0,0.0,5.0,16.0,14.0,5.0,1.0,1650821541284812.0
-1.0,0.0,-2.0,-1.0,6.0,1.0,3.0,0.0,1650821541284812.0
-2.0,0.0,-5.0,-6.0,-14.0,-14.0,-3.0,-1.0,1650821541298950.0
-3.0,-2.0,-3.0,-5.0,-19.0,-24.0,-9.0,-4.0,1650821541298950.0
3.0,1.0,-2.0,-2.0,-4.0,1.0,-1.0,0.0,1650821541298950.0
-1.0,2.0,3.0,1.0,5.0,11.0,4.0,1.0,1650821541298950.0
0.0,-3.0,-3.0,2.0,8.0,6.0,2.0,1.0,1650821541321032.0
0.0,-2.0,-2.0,-2.0,-4.0,-6.0,-1.0,-1.0,1650821541321032.0
1.0,-1.0,2.0,0.0,-2.0,-5.0,-3.0,-2.0,1650821541321967.0
-3.0,0.0,-1.0,-2.0,5.0,6.0,1.0,1.0,1650821541321967.0
1.0,2.0,1.0,-2.0,0.0,-3.0,-2.0,0.0,1650821541343959.0
-1.0,0.0,1.0,3.0,1.0,7.0,2.0,0.0,1650821541343959.0
0.0,-2.0,4.0,1.0,-5.0,3.0,0.0,-1.0,1650821541344957.0
7.0,1.0,0.0,0.0,-1.0,-2.0,1.0,0.0,1650821541344957.0
-1.0,2.0,0.0,0.0,8.0,8.0,0.0,1.0,1650821541358086.0
-3.0,2.0,-3.0,-2.0,0.0,-4.0,-1.0,0.0,1650821541358086.0
-1.0,-1.0,-4.0,-2.0,-8.0,-11.0,-1.0,0.0,1650821541359089.0
-3.0,-2.0,-1.0,-4.0,-9.0,-6.0,-3.0,-1.0,1650821541359089.0
0.0,2.0,1.0,1.0,1.0,-7.0,-1.0,1.0,1650821541381244.0
-1.0,0.0,1.0,0.0,12.0,16.0,1.0,0.0,1650821541381244.0
4.0,0.0,3.0,6.0,1.0,5.0,1.0,-1.0,1650821541382198.0
0.0,-1.0,-2.0,-3.0,2.0,-3.0,0.0,-1.0,1650821541382198.0
-1.0,-4.0,-4.0,-3.0,-17.0,-18.0,-4.0,-2.0,1650821541403932.0
-1.0,-1.0,-2.0,-2.0,-8.0,-5.0,0.0,-1.0,1650821541403932.0
0.0,2.0,3.0,1.0,9.0,11.0,1.0,-1.0,1650821541404864.0
0.0,-1.0,-2.0,-4.0,-8.0,-8.0,-1.0,-1.0,1650821541404864.0
0.0,-3.0,-4.0,-1.0,4.0,-2.0,-1.0,0.0,1650821541418893.0
-2.0,-2.0,2.0,4.0,-3.0,0.0,1.0,-1.0,1650821541418893.0
1.0,0.0,-1.0,0.0,5.0,4.0,2.0,-1.0,1650821541418893.0
0.0,1.0,-2.0,0.0,4.0,3.0,-1.0,0.0,1650821541418893.0
1.0,0.0,1.0,-1.0,2.0,9.0,1.0,-1.0,1650821541441078.0
0.0,-2.0,-1.0,-3.0,-5.0,-6.0,-2.0,-1.0,1650821541441078.0
5.0,0.0,-3.0,-4.0,-2.0,-7.0,-3.0,-3.0,1650821541442037.0
-9.0,-4.0,-1.0,1.0,-2.0,-3.0,0.0,2.0,1650821541442037.0
-5.0,2.0,4.0,0.0,-9.0,-12.0,-1.0,-1.0,1650821541464609.0
7.0,0.0,-2.0,-3.0,10.0,10.0,0.0,-1.0,1650821541464609.0
-3.0,0.0,-1.0,1.0,2.0,13.0,2.0,3.0,1650821541464802.0
1.0,1.0,0.0,3.0,-2.0,-5.0,1.0,0.0,1650821541464802.0
-2.0,0.0,-1.0,2.0,6.0,2.0,-2.0,-3.0,1650821541478930.0
-3.0,-1.0,1.0,0.0,-6.0,-4.0,0.0,2.0,1650821541478930.0
2.0,-1.0,-4.0,-8.0,-9.0,-15.0,-5.0,-3.0,1650821541478930.0
-1.0,0.0,-3.0,-4.0,0.0,2.0,-2.0,-1.0,1650821541478930.0
1.0,0.0,5.0,5.0,2.0,5.0,4.0,1.0,1650821541500992.0
0.0,0.0,0.0,0.0,4.0,2.0,0.0,-2.0,1650821541500992.0
0.0,-2.0,-2.0,0.0,6.0,3.0,-2.0,-1.0,1650821541501954.0
0.0,-2.0,0.0,0.0,-6.0,-7.0,-1.0,-1.0,1650821541501954.0
0.0,-3.0,-1.0,-4.0,-8.0,-6.0,-4.0,-2.0,1650821541523935.0
0.0,-1.0,-1.0,-1.0,-3.0,2.0,0.0,0.0,1650821541523935.0
-2.0,-1.0,0.0,0.0,2.0,2.0,3.0,-1.0,1650821541523935.0
0.0,0.0,1.0,2.0,10.0,13.0,0.0,-1.0,1650821541523935.0
3.0,2.0,-1.0,0.0,-3.0,3.0,4.0,2.0,1650821541538862.0
-2.0,-1.0,2.0,1.0,0.0,-10.0,-1.0,2.0,1650821541538862.0
-1.0,0.0,-1.0,-1.0,-3.0,-4.0,-3.0,-2.0,1650821541538862.0
0.0,0.0,-1.0,-1.0,-2.0,-3.0,-1.0,-2.0,1650821541538862.0
-1.0,-4.0,-4.0,-3.0,2.0,-2.0,-2.0,-1.0,1650821541560923.0
-2.0,0.0,1.0,0.0,-10.0,-3.0,-2.0,-2.0,1650821541560923.0
0.0,-1.0,0.0,-1.0,-5.0,2.0,1.0,-1.0,1650821541561885.0
-1.0,0.0,-2.0,-3.0,8.0,4.0,1.0,2.0,1650821541561885.0
2.0,0.0,1.0,4.0,8.0,9.0,4.0,2.0,1650821541583909.0
-7.0,-1.0,3.0,0.0,-10.0,-15.0,-3.0,-1.0,1650821541583909.0
7.0,-1.0,-2.0,-2.0,-2.0,-8.0,-2.0,2.0,1650821541583909.0
2.0,-2.0,0.0,-1.0,-2.0,17.0,2.0,-1.0,1650821541583909.0
-1.0,0.0,1.0,1.0,2.0,-1.0,2.0,0.0,1650821541598862.0
-3.0,0.0,-1.0,-2.0,-1.0,-3.0,-4.0,-2.0,1650821541598862.0
-3.0,0.0,-3.0,-3.0,-21.0,-22.0,-5.0,-3.0,1650821541598862.0
-3.0,-1.0,1.0,2.0,18.0,4.0,-4.0,-1.0,1650821541598862.0
1.0,2.0,1.0,3.0,8.0,24.0,3.0,0.0,1650821541621024.0
5.0,0.0,-1.0,1.0,6.0,8.0,4.0,1.0,1650821541621024.0
-3.0,1.0,0.0,-4.0,-5.0,-11.0,-3.0,0.0,1650821541621955.0
1.0,-3.0,-2.0,-4.0,-19.0,-17.0,-4.0,-1.0,1650821541621955.0
-3.0,-2.0,-1.0,-3.0,-5.0,-6.0,-2.0,-1.0,1650821541643848.0
0.0,0.0,2.0,3.0,11.0,5.0,4.0,1.0,1650821541643848.0
1.0,-1.0,-4.0,-1.0,4.0,16.0,4.0,0.0,1650821541643848.0
-1.0,0.0,1.0,2.0,-2.0,1.0,1.0,-1.0,1650821541643848.0
-1.0,2.0,3.0,1.0,3.0,-4.0,-3.0,-5.0,1650821541658874.0
-1.0,-2.0,-5.0,-5.0,-11.0,-9.0,-4.0,0.0,1650821541658874.0
-1.0,-1.0,-1.0,0.0,-7.0,-12.0,-2.0,-1.0,1650821541658874.0
0.0,0.0,-1.0,0.0,9.0,10.0,0.0,-1.0,1650821541658874.0
4.0,-3.0,-5.0,-5.0,-4.0,-4.0,-2.0,1.0,1650821541680894.0
-2.0,0.0,-1.0,1.0,1.0,-1.0,2.0,-1.0,1650821541680894.0
-2.0,1.0,0.0,4.0,10.0,12.0,0.0,0.0,1650821541681827.0
2.0,0.0,1.0,-2.0,3.0,-1.0,1.0,0.0,1650821541681827.0
-1.0,0.0,-1.0,-1.0,-6.0,-9.0,0.0,-1.0,1650821541703912.0
-7.0,-1.0,-2.0,-3.0,1.0,3.0,-2.0,0.0,1650821541703912.0
14.0,0.0,4.0,3.0,-6.0,-9.0,-2.0,1.0,1650821541703912.0
-9.0,-3.0,0.0,-1.0,-6.0,4.0,2.0,0.0,1650821541703912.0
1.0,-1.0,0.0,-1.0,12.0,14.0,1.0,3.0,1650821541718877.0
3.0,1.0,1.0,1.0,2.0,5.0,1.0,-1.0,1650821541718877.0
-5.0,-4.0,-1.0,-5.0,-2.0,-10.0,-2.0,-1.0,1650821541718877.0
3.0,-1.0,0.0,1.0,-3.0,-3.0,0.0,0.0,1650821541718877.0
1.0,0.0,-3.0,0.0,0.0,4.0,-1.0,1.0,1650821541740824.0
1.0,-2.0,-4.0,-5.0,-18.0,-13.0,-4.0,-1.0,1650821541740824.0
-3.0,0.0,-1.0,-1.0,19.0,4.0,-2.0,-1.0,1650821541741828.0
1.0,0.0,-1.0,-1.0,1.0,3.0,-1.0,-3.0,1650821541741828.0
-2.0,-3.0,-1.0,0.0,-5.0,-4.0,0.0,0.0,1650821541763101.0
3.0,1.0,-1.0,0.0,2.0,3.0,0.0,-1.0,1650821541763101.0
-2.0,2.0,6.0,5.0,4.0,3.0,0.0,0.0,1650821541764100.0
0.0,0.0,-2.0,-2.0,-4.0,-7.0,-2.0,0.0,1650821541764100.0
-3.0,-2.0,-3.0,-3.0,-7.0,-15.0,-6.0,-1.0,1650821541778230.0
-3.0,-3.0,-2.0,-5.0,-14.0,-14.0,-3.0,-3.0,1650821541778230.0
-3.0,-1.0,-3.0,-2.0,-1.0,16.0,3.0,2.0,1650821541779230.0
1.0,3.0,1.0,3.0,15.0,17.0,4.0,0.0,1650821541779230.0
1.0,-1.0,1.0,2.0,7.0,4.0,3.0,-1.0,1650821541801257.0
2.0,-2.0,-2.0,-4.0,-8.0,-18.0,-3.0,-2.0,1650821541801257.0
-6.0,-3.0,-1.0,-3.0,-3.0,-4.0,-3.0,-1.0,1650821541802198.0
2.0,-1.0,2.0,2.0,-1.0,-2.0,0.0,0.0,1650821541802198.0
-2.0,-1.0,-3.0,-2.0,1.0,5.0,0.0,-1.0,1650821541831594.0
1.0,0.0,1.0,0.0,3.0,5.0,1.0,0.0,1650821541831594.0
-1.0,-1.0,-2.0,-5.0,-5.0,-2.0,-2.0,-1.0,1650821541832525.0
-1.0,-2.0,-2.0,-2.0,-25.0,-27.0,-4.0,-4.0,1650821541832525.0
-1.0,-2.0,1.0,-1.0,7.0,4.0,-1.0,-1.0,1650821541838509.0
-1.0,1.0,0.0,5.0,20.0,28.0,4.0,1.0,1650821541838509.0
0.0,-1.0,3.0,3.0,0.0,3.0,4.0,0.0,1650821541839507.0
-1.0,2.0,-1.0,-3.0,-8.0,-17.0,-5.0,-1.0,1650821541839507.0
0.0,-1.0,-2.0,-4.0,-12.0,-7.0,-1.0,-2.0,1650821541860667.0
-2.0,-1.0,-1.0,2.0,-1.0,0.0,0.0,1.0,1650821541860667.0
3.0,2.0,-3.0,1.0,9.0,15.0,3.0,-1.0,1650821541861600.0
-3.0,-2.0,0.0,-2.0,-1.0,4.0,3.0,1.0,1650821541861600.0
1.0,1.0,-2.0,-2.0,2.0,-2.0,-1.0,0.0,1650821541883606.0
1.0,1.0,0.0,0.0,-6.0,-11.0,-5.0,-2.0,1650821541883606.0
2.0,-1.0,-1.0,3.0,4.0,-8.0,-5.0,0.0,1650821541884564.0
1.0,0.0,-2.0,3.0,14.0,20.0,5.0,-1.0,1650821541884564.0
1.0,2.0,3.0,4.0,-4.0,1.0,2.0,0.0,1650821541898284.0
1.0,-2.0,-1.0,-2.0,-1.0,-1.0,-1.0,-1.0,1650821541898284.0
-4.0,-2.0,-4.0,-6.0,-13.0,-13.0,-3.0,-2.0,1650821541906465.0
0.0,-3.0,-4.0,-1.0,-5.0,-12.0,-4.0,3.0,1650821541906465.0
-1.0,0.0,1.0,-2.0,2.0,9.0,-1.0,-3.0,1650821541920641.0
1.0,0.0,0.0,0.0,1.0,5.0,0.0,0.0,1650821541920641.0
-4.0,-1.0,0.0,0.0,-5.0,-1.0,1.0,0.0,1650821541921572.0
0.0,1.0,0.0,1.0,3.0,-1.0,-2.0,1.0,1650821541921572.0
-1.0,0.0,-2.0,-4.0,-8.0,-14.0,-4.0,0.0,1650821541943735.0
0.0,1.0,-2.0,-4.0,-19.0,-15.0,-4.0,-3.0,1650821541943735.0
-1.0,0.0,-1.0,2.0,15.0,16.0,2.0,0.0,1650821541944691.0
1.0,2.0,3.0,3.0,11.0,19.0,3.0,-1.0,1650821541944691.0
2.0,1.0,5.0,7.0,11.0,4.0,2.0,1.0,1650821541957751.0
-6.0,1.0,2.0,2.0,12.0,10.0,3.0,1.0,1650821541957751.0
8.0,-2.0,-2.0,-5.0,-13.0,-13.0,-3.0,0.0,1650821541965800.0
-1.0,-3.0,-3.0,-8.0,-20.0,-16.0,-4.0,-3.0,1650821541965800.0
-3.0,-3.0,-4.0,-6.0,-11.0,-11.0,-5.0,-4.0,1650821541980882.0
-5.0,-3.0,1.0,3.0,8.0,6.0,-1.0,2.0,1650821541980882.0
3.0,3.0,-1.0,-1.0,-3.0,-8.0,-1.0,2.0,1650821541981825.0
5.0,0.0,2.0,2.0,8.0,17.0,2.0,1.0,1650821541981825.0
-10.0,-1.0,0.0,2.0,2.0,12.0,3.0,2.0,1650821542003994.0
3.0,-1.0,-2.0,-1.0,4.0,-3.0,2.0,1.0,1650821542003994.0
0.0,-3.0,-2.0,-4.0,-3.0,-6.0,-2.0,-1.0,1650821542003994.0
-1.0,0.0,-2.0,-4.0,-7.0,-15.0,-5.0,-3.0,1650821542003994.0
1.0,0.0,-1.0,-1.0,-10.0,0.0,0.0,0.0,1650821542017969.0
-1.0,0.0,0.0,1.0,8.0,10.0,2.0,-1.0,1650821542017969.0
-4.0,-1.0,2.0,6.0,10.0,8.0,3.0,2.0,1650821542026543.0
-3.0,0.0,1.0,0.0,3.0,2.0,1.0,3.0,1650821542026543.0
10.0,-1.0,-4.0,-3.0,2.0,-4.0,0.0,1.0,1650821542040675.0
0.0,1.0,1.0,-2.0,-8.0,-6.0,-4.0,-2.0,1650821542040675.0
-1.0,0.0,-1.0,-1.0,-12.0,-5.0,-1.0,-2.0,1650821542041607.0
-5.0,0.0,-1.0,1.0,8.0,1.0,0.0,-5.0,1650821542041607.0
3.0,-1.0,-3.0,-2.0,-9.0,-3.0,0.0,21.0,1650821542063941.0
-7.0,1.0,-3.0,-3.0,1.0,-9.0,-7.0,-34.0,1650821542063941.0
-6.0,0.0,2.0,-1.0,6.0,2.0,-1.0,-2.0,1650821542063941.0
1.0,-2.0,-2.0,-3.0,-12.0,-4.0,-1.0,-3.0,1650821542063941.0
-2.0,0.0,0.0,5.0,9.0,14.0,2.0,-11.0,1650821542077968.0
7.0,1.0,0.0,4.0,13.0,12.0,7.0,16.0,1650821542077968.0
-3.0,0.0,-2.0,-1.0,-1.0,0.0,0.0,1.0,1650821542086459.0
-5.0,0.0,-4.0,-2.0,-4.0,-11.0,-3.0,-8.0,1650821542086459.0
4.0,-1.0,0.0,-2.0,-8.0,-13.0,-5.0,6.0,1650821542109160.0
0.0,-3.0,-1.0,-3.0,-10.0,-3.0,-2.0,3.0,1650821542109160.0
-1.0,-3.0,0.0,1.0,2.0,4.0,1.0,-5.0,1650821542110093.0
1.0,0.0,0.0,-1.0,-7.0,-13.0,-4.0,5.0,1650821542110093.0
-4.0,0.0,-1.0,1.0,-2.0,1.0,1.0,-6.0,1650821542123123.0
0.0,-2.0,0.0,1.0,19.0,14.0,-1.0,3.0,1650821542123123.0
-4.0,1.0,0.0,3.0,7.0,22.0,7.0,-2.0,1650821542124054.0
2.0,-2.0,1.0,2.0,10.0,6.0,3.0,2.0,1650821542124054.0
-2.0,-2.0,-3.0,-5.0,-7.0,-9.0,-3.0,-7.0,1650821542138285.0
-1.0,-1.0,-3.0,-3.0,-14.0,-19.0,-5.0,-3.0,1650821542138285.0
3.0,1.0,-1.0,-2.0,-8.0,-10.0,-3.0,4.0,1650821542145884.0
-1.0,1.0,-1.0,-4.0,-3.0,3.0,-2.0,-3.0,1650821542145884.0
1.0,-2.0,0.0,0.0,4.0,2.0,-1.0,-5.0,1650821542160935.0
-3.0,-1.0,0.0,-1.0,-1.0,1.0,1.0,7.0,1650821542160935.0
4.0,1.0,-1.0,0.0,-2.0,-1.0,1.0,4.0,1650821542161866.0
2.0,2.0,2.0,0.0,-5.0,1.0,2.0,14.0,1650821542161866.0
-4.0,1.0,-2.0,0.0,13.0,3.0,1.0,-38.0,1650821542183845.0
4.0,-4.0,-1.0,1.0,2.0,8.0,5.0,15.0,1650821542183845.0
-7.0,-9.0,2.0,3.0,9.0,9.0,1.0,-20.0,1650821542183845.0
-5.0,-1.0,1.0,0.0,3.0,4.0,-2.0,-8.0,1650821542183845.0
0.0,-1.0,-7.0,-4.0,-16.0,-16.0,-2.0,17.0,1650821542207166.0
0.0,3.0,2.0,0.0,0.0,-9.0,-8.0,-17.0,1650821542207166.0
-7.0,2.0,-2.0,-2.0,-5.0,1.0,-2.0,2.0,1650821542207166.0
1.0,-3.0,-2.0,-4.0,-5.0,8.0,5.0,12.0,1650821542207166.0
26.0,5.0,-1.0,3.0,16.0,9.0,4.0,4.0,1650821542221114.0
-9.0,0.0,-1.0,-2.0,-7.0,-8.0,-4.0,-7.0,1650821542221114.0
-8.0,-8.0,-2.0,0.0,-1.0,-8.0,-5.0,-11.0,1650821542222073.0
22.0,-3.0,3.0,3.0,0.0,-4.0,1.0,57.0,1650821542222073.0
-29.0,11.0,15.0,-1.0,-10.0,-3.0,-4.0,-48.0,1650821542243884.0
-22.0,-25.0,-29.0,-8.0,-13.0,-5.0,-1.0,-9.0,1650821542243884.0
38.0,9.0,16.0,2.0,12.0,7.0,3.0,20.0,1650821542243884.0
-38.0,0.0,-1.0,3.0,3.0,-5.0,1.0,-9.0,1650821542243884.0
13.0,-3.0,-4.0,-1.0,15.0,14.0,1.0,27.0,1650821542267110.0
-3.0,1.0,7.0,6.0,10.0,26.0,12.0,6.0,1650821542267110.0
-15.0,3.0,-5.0,1.0,-6.0,-2.0,4.0,2.0,1650821542267738.0
14.0,1.0,4.0,-5.0,-9.0,-24.0,-10.0,-18.0,1650821542267738.0
-6.0,1.0,3.0,2.0,-4.0,-7.0,-2.0,8.0,1650821542280717.0
6.0,4.0,2.0,-9.0,-19.0,-20.0,-9.0,4.0,1650821542280717.0
3.0,-7.0,-13.0,-7.0,-14.0,-12.0,1.0,5.0,1650821542281716.0
4.0,5.0,-1.0,1.0,21.0,29.0,0.0,-12.0,1650821542281716.0
-4.0,-6.0,4.0,1.0,14.0,17.0,3.0,6.0,1650821542303765.0
14.0,6.0,-3.0,4.0,5.0,2.0,12.0,36.0,1650821542303765.0
13.0,-2.0,-4.0,-5.0,-8.0,-19.0,-5.0,-5.0,1650821542304699.0
-11.0,17.0,21.0,-2.0,-17.0,-18.0,-10.0,-44.0,1650821542304699.0
-10.0,-27.0,-37.0,-9.0,-2.0,4.0,-3.0,14.0,1650821542326905.0
4.0,-3.0,11.0,3.0,-2.0,8.0,-4.0,-31.0,1650821542326905.0
-12.0,-7.0,-5.0,5.0,10.0,2.0,-1.0,-9.0,1650821542327904.0
6.0,12.0,1.0,1.0,7.0,1.0,1.0,-1.0,1650821542327904.0
3.0,8.0,5.0,-1.0,-9.0,-10.0,0.0,3.0,1650821542340926.0
3.0,-3.0,-2.0,-5.0,-7.0,-8.0,-1.0,15.0,1650821542340926.0
-8.0,5.0,5.0,-3.0,-18.0,-9.0,-7.0,-19.0,1650821542341856.0
8.0,1.0,-11.0,-6.0,11.0,1.0,-5.0,2.0,1650821542341856.0
-26.0,-12.0,5.0,11.0,1.0,7.0,5.0,4.0,1650821542363804.0
4.0,-1.0,-13.0,-5.0,1.0,-5.0,0.0,26.0,1650821542363804.0
-18.0,0.0,7.0,4.0,13.0,2.0,-7.0,-54.0,1650821542363804.0
-6.0,-8.0,-10.0,-2.0,-18.0,-1.0,4.0,27.0,1650821542363804.0
22.0,17.0,10.0,-9.0,-36.0,-39.0,-13.0,-21.0,1650821542394615.0
3.0,15.0,18.0,0.0,2.0,-3.0,-7.0,-13.0,1650821542394615.0
-4.0,-14.0,0.0,12.0,46.0,54.0,14.0,31.0,1650821542394615.0
-1.0,-15.0,-22.0,2.0,26.0,24.0,10.0,-6.0,1650821542394615.0
2.0,3.0,-12.0,-4.0,-8.0,-5.0,4.0,17.0,1650821542400607.0
-12.0,-7.0,6.0,2.0,-23.0,-26.0,-4.0,-27.0,1650821542400607.0
1.0,6.0,4.0,-6.0,-2.0,1.0,-6.0,7.0,1650821542401577.0
-5.0,-15.0,-23.0,5.0,5.0,-11.0,-4.0,-5.0,1650821542401577.0
9.0,15.0,32.0,7.0,11.0,11.0,7.0,21.0,1650821542423934.0
-7.0,-5.0,-30.0,-6.0,-5.0,5.0,-2.0,-34.0,1650821542423934.0
6.0,0.0,-27.0,-6.0,-9.0,-13.0,-2.0,7.0,1650821542423934.0
-5.0,-9.0,13.0,-7.0,-4.0,-2.0,-3.0,-9.0,1650821542423934.0
-12.0,-14.0,1.0,-4.0,-15.0,-16.0,-5.0,-7.0,1650821542447086.0
6.0,15.0,-5.0,2.0,15.0,2.0,-5.0,2.0,1650821542447086.0
-1.0,8.0,5.0,1.0,-4.0,4.0,-3.0,-5.0,1650821542447086.0
0.0,1.0,3.0,3.0,0.0,18.0,9.0,1.0,1650821542447086.0
2.0,2.0,-4.0,-4.0,7.0,0.0,-2.0,-14.0,1650821542461118.0
12.0,-1.0,5.0,1.0,-4.0,-12.0,3.0,46.0,1650821542461118.0
-9.0,-6.0,-8.0,5.0,-3.0,4.0,-5.0,-49.0,1650821542462077.0
16.0,10.0,15.0,-5.0,-3.0,-9.0,-9.0,2.0,1650821542462077.0
-3.0,-6.0,-7.0,3.0,7.0,6.0,2.0,1.0,1650821542483343.0
-2.0,-6.0,-19.0,6.0,17.0,19.0,4.0,-8.0,1650821542483343.0
7.0,-4.0,19.0,5.0,-7.0,-17.0,8.0,38.0,1650821542484343.0
-4.0,0.0,-1.0,-9.0,-28.0,-19.0,-6.0,-34.0,1650821542484343.0
-15.0,-4.0,-8.0,0.0,18.0,19.0,-4.0,-18.0,1650821542506514.0
-1.0,-3.0,4.0,1.0,3.0,3.0,2.0,8.0,1650821542506514.0
8.0,9.0,9.0,-2.0,-4.0,-10.0,2.0,13.0,1650821542507447.0
9.0,23.0,-33.0,-4.0,4.0,21.0,5.0,2.0,1650821542507447.0
4.0,-12.0,-3.0,3.0,-8.0,-15.0,-2.0,4.0,1650821542520884.0
-7.0,-3.0,11.0,-4.0,0.0,7.0,-1.0,-13.0,1650821542520884.0
2.0,-6.0,-9.0,-8.0,-13.0,-12.0,-2.0,13.0,1650821542521855.0
4.0,2.0,9.0,4.0,6.0,1.0,2.0,11.0,1650821542521855.0
0.0,13.0,20.0,-3.0,-4.0,7.0,-3.0,-8.0,1650821542543985.0
7.0,0.0,-9.0,8.0,1.0,-7.0,4.0,11.0,1650821542543985.0
4.0,-4.0,14.0,2.0,-10.0,-4.0,-2.0,16.0,1650821542543985.0
-48.0,-13.0,16.0,6.0,17.0,14.0,7.0,9.0,1650821542543985.0
16.0,7.0,-2.0,-3.0,0.0,-2.0,2.0,-4.0,1650821542567173.0
-2.0,1.0,9.0,1.0,0.0,8.0,-2.0,-4.0,1650821542567173.0
5.0,2.0,-15.0,0.0,5.0,1.0,3.0,15.0,1650821542567173.0
8.0,-8.0,8.0,2.0,-1.0,-10.0,-1.0,15.0,1650821542567173.0
4.0,-3.0,-1.0,4.0,-6.0,-2.0,1.0,-2.0,1650821542581130.0
-20.0,1.0,1.0,-7.0,-6.0,-8.0,-5.0,-5.0,1650821542581130.0
7.0,-15.0,-30.0,-8.0,-24.0,-8.0,-5.0,-2.0,1650821542582097.0
8.0,9.0,13.0,7.0,26.0,3.0,1.0,18.0,1650821542582097.0
-7.0,0.0,-8.0,2.0,16.0,22.0,1.0,-38.0,1650821542603290.0
8.0,-21.0,-5.0,-1.0,3.0,9.0,5.0,9.0,1650821542603290.0
-9.0,10.0,4.0,-1.0,-6.0,-5.0,-2.0,-3.0,1650821542604292.0
0.0,-11.0,-19.0,0.0,-15.0,-25.0,-5.0,-6.0,1650821542604292.0
-6.0,-17.0,18.0,-3.0,-19.0,-22.0,-11.0,-11.0,1650821542627110.0
5.0,-4.0,-9.0,2.0,8.0,5.0,-1.0,0.0,1650821542627110.0
1.0,1.0,13.0,0.0,-4.0,5.0,-4.0,-3.0,1650821542627330.0
-5.0,-9.0,4.0,-6.0,-8.0,6.0,2.0,-7.0,1650821542627330.0
7.0,16.0,8.0,14.0,23.0,8.0,7.0,6.0,1650821542640965.0
-7.0,-4.0,1.0,-2.0,-2.0,-5.0,-3.0,-19.0,1650821542640965.0
-2.0,19.0,23.0,3.0,18.0,11.0,-5.0,-25.0,1650821542641897.0
7.0,-5.0,-6.0,-2.0,-27.0,-20.0,-3.0,-1.0,1650821542641897.0
-3.0,-2.0,-13.0,-9.0,0.0,7.0,4.0,12.0,1650821542663917.0
10.0,6.0,-10.0,-3.0,1.0,8.0,5.0,50.0,1650821542663917.0
0.0,-9.0,-1.0,-3.0,-4.0,-3.0,-7.0,-49.0,1650821542664845.0
-29.0,-6.0,-10.0,6.0,-3.0,-13.0,2.0,30.0,1650821542664845.0
9.0,4.0,-2.0,-10.0,-26.0,-24.0,-7.0,-3.0,1650821542687150.0
-3.0,-1.0,1.0,-1.0,-10.0,-7.0,-3.0,0.0,1650821542687150.0
4.0,4.0,-2.0,1.0,29.0,33.0,8.0,5.0,1650821542687150.0
0.0,2.0,2.0,7.0,24.0,26.0,6.0,13.0,1650821542687150.0
5.0,-10.0,-31.0,-7.0,1.0,-5.0,3.0,35.0,1650821542701268.0
-12.0,-22.0,-17.0,-6.0,-14.0,-13.0,0.0,-29.0,1650821542701268.0
8.0,10.0,20.0,10.0,-13.0,-34.0,-4.0,37.0,1650821542702219.0
2.0,13.0,9.0,-15.0,-5.0,16.0,-6.0,-42.0,1650821542702219.0
-8.0,-6.0,1.0,-4.0,5.0,13.0,3.0,1.0,1650821542723889.0
9.0,17.0,19.0,1.0,2.0,4.0,4.0,-10.0,1650821542723889.0
-17.0,-9.0,-17.0,8.0,1.0,-20.0,1.0,9.0,1650821542723889.0
-3.0,-57.0,-53.0,-12.0,-5.0,0.0,-4.0,-5.0,1650821542723889.0
14.0,16.0,7.0,3.0,18.0,22.0,11.0,41.0,1650821542746933.0
2.0,1.0,3.0,1.0,3.0,8.0,0.0,-26.0,1650821542746933.0
-3.0,-2.0,-7.0,-8.0,-9.0,-10.0,-1.0,-6.0,1650821542747864.0
8.0,21.0,35.0,12.0,-6.0,-21.0,-4.0,-17.0,1650821542747864.0
-7.0,-21.0,-19.0,-3.0,-16.0,-14.0,-7.0,-9.0,1650821542760898.0
-2.0,-3.0,-8.0,-10.0,-3.0,9.0,0.0,6.0,1650821542760898.0
-1.0,18.0,18.0,6.0,12.0,16.0,6.0,11.0,1650821542761827.0
5.0,4.0,-4.0,-5.0,-4.0,-5.0,-1.0,5.0,1650821542761827.0
-12.0,-4.0,8.0,-3.0,-30.0,-33.0,-6.0,18.0,1650821542783986.0
8.0,18.0,31.0,16.0,33.0,14.0,-2.0,-17.0,1650821542783986.0
-3.0,1.0,-2.0,-1.0,6.0,34.0,4.0,-3.0,1650821542783986.0
10.0,6.0,9.0,9.0,19.0,22.0,11.0,3.0,1650821542783986.0
19.0,-18.0,-34.0,0.0,2.0,-8.0,-4.0,-1.0,1650821542807141.0
-28.0,14.0,4.0,-8.0,-28.0,-40.0,-12.0,7.0,1650821542807141.0
-4.0,-20.0,-12.0,-18.0,-19.0,-16.0,-7.0,-6.0,1650821542807141.0
-5.0,-2.0,-3.0,7.0,5.0,13.0,3.0,-4.0,1650821542807141.0
5.0,8.0,0.0,-2.0,6.0,12.0,2.0,-10.0,1650821542820931.0
6.0,-4.0,-2.0,0.0,-23.0,-32.0,-7.0,-6.0,1650821542820931.0
9.0,13.0,18.0,-1.0,11.0,14.0,1.0,2.0,1650821542821868.0
-7.0,-39.0,-38.0,0.0,13.0,17.0,9.0,18.0,1650821542821868.0
-16.0,3.0,-16.0,0.0,-4.0,2.0,-3.0,-73.0,1650821542843679.0
1.0,12.0,19.0,2.0,3.0,-12.0,-6.0,3.0,1650821542843679.0
7.0,1.0,-2.0,-1.0,-8.0,-3.0,2.0,10.0,1650821542844611.0
5.0,24.0,36.0,5.0,-6.0,-8.0,-6.0,-6.0,1650821542844611.0
5.0,-4.0,2.0,6.0,27.0,21.0,14.0,70.0,1650821542866736.0
-1.0,-12.0,-7.0,-4.0,-8.0,2.0,-5.0,-59.0,1650821542866736.0
-1.0,-5.0,-13.0,7.0,-4.0,-6.0,-3.0,-14.0,1650821542867666.0
-4.0,11.0,-3.0,-6.0,-7.0,2.0,-1.0,-3.0,1650821542867666.0
4.0,10.0,8.0,0.0,-3.0,-11.0,-6.0,6.0,1650821542880697.0
-3.0,-19.0,-7.0,0.0,-4.0,-4.0,2.0,18.0,1650821542880697.0
0.0,26.0,37.0,-1.0,-8.0,13.0,3.0,9.0,1650821542888788.0
10.0,5.0,3.0,0.0,-2.0,-11.0,-2.0,6.0,1650821542888788.0
-16.0,17.0,51.0,16.0,20.0,8.0,0.0,2.0,1650821542903806.0
1.0,9.0,-19.0,3.0,10.0,13.0,8.0,4.0,1650821542903806.0
16.0,-27.0,7.0,-1.0,4.0,-2.0,2.0,8.0,1650821542903806.0
0.0,-4.0,-2.0,-6.0,-15.0,-11.0,-5.0,-23.0,1650821542903806.0
-1.0,20.0,35.0,0.0,-24.0,-19.0,-12.0,-35.0,1650821542927099.0
-1.0,-3.0,-12.0,0.0,22.0,22.0,8.0,15.0,1650821542927099.0
-4.0,5.0,7.0,5.0,6.0,4.0,3.0,13.0,1650821542927099.0
13.0,-11.0,-14.0,0.0,4.0,-2.0,-1.0,-8.0,1650821542927099.0
1.0,-9.0,-17.0,-11.0,-13.0,-11.0,1.0,8.0,1650821542940862.0
10.0,-4.0,-8.0,-6.0,-23.0,-24.0,-7.0,2.0,1650821542940862.0
-19.0,-4.0,-37.0,-8.0,12.0,11.0,-6.0,7.0,1650821542948797.0
14.0,9.0,10.0,2.0,-3.0,9.0,6.0,4.0,1650821542948797.0
-2.0,-6.0,-22.0,5.0,21.0,26.0,8.0,1.0,1650821542963934.0
-10.0,13.0,27.0,8.0,12.0,12.0,7.0,-18.0,1650821542963934.0
7.0,8.0,-1.0,-8.0,-21.0,-31.0,-6.0,-8.0,1650821542963934.0
-10.0,-10.0,0.0,-17.0,-26.0,-30.0,-18.0,16.0,1650821542963934.0
-2.0,-9.0,-29.0,-7.0,1.0,0.0,-6.0,-36.0,1650821542987141.0
-31.0,-1.0,-6.0,-3.0,2.0,3.0,4.0,13.0,1650821542987141.0
-14.0,-28.0,-34.0,-14.0,-16.0,-7.0,0.0,-2.0,1650821542987141.0
0.0,30.0,41.0,10.0,7.0,4.0,-2.0,-18.0,1650821542987141.0
4.0,-5.0,8.0,11.0,16.0,20.0,5.0,34.0,1650821543000856.0
6.0,-19.0,-4.0,-11.0,6.0,13.0,1.0,9.0,1650821543000856.0
-1.0,-2.0,-8.0,1.0,-2.0,-9.0,2.0,-12.0,1650821543008901.0
-12.0,-17.0,-9.0,-4.0,-18.0,-18.0,-2.0,12.0,1650821543008901.0
3.0,-7.0,8.0,5.0,-1.0,-4.0,2.0,13.0,1650821543023909.0
18.0,23.0,2.0,-1.0,0.0,-8.0,0.0,1.0,1650821543023909.0
-1.0,-5.0,-6.0,-8.0,-11.0,-4.0,-8.0,6.0,1650821543023909.0
2.0,-1.0,-15.0,-2.0,9.0,27.0,13.0,-4.0,1650821543023909.0
-3.0,10.0,16.0,15.0,23.0,17.0,2.0,-2.0,1650821543047165.0
9.0,15.0,-9.0,-6.0,-6.0,2.0,1.0,0.0,1650821543047165.0
3.0,-11.0,4.0,4.0,1.0,-13.0,0.0,23.0,1650821543047165.0
-14.0,2.0,22.0,0.0,-11.0,-25.0,-15.0,-18.0,1650821543047165.0
-2.0,-5.0,-39.0,-20.0,-24.0,-17.0,-4.0,-13.0,1650821543060886.0
11.0,11.0,4.0,8.0,6.0,27.0,6.0,39.0,1650821543060886.0
8.0,38.0,55.0,21.0,32.0,24.0,6.0,-50.0,1650821543068815.0
1.0,-6.0,-40.0,-3.0,-1.0,-2.0,-2.0,6.0,1650821543068815.0
-22.0,-12.0,10.0,-17.0,-24.0,-20.0,-5.0,-28.0,1650821543083929.0
11.0,-23.0,-27.0,-6.0,-11.0,-19.0,-11.0,3.0,1650821543083929.0
8.0,0.0,-17.0,0.0,6.0,-6.0,-5.0,1.0,1650821543083929.0
-2.0,13.0,9.0,-2.0,-2.0,2.0,-4.0,-10.0,1650821543083929.0
13.0,15.0,2.0,11.0,-3.0,7.0,6.0,-14.0,1650821543107141.0
7.0,-12.0,7.0,-9.0,-7.0,-5.0,-7.0,-11.0,1650821543107141.0
-46.0,-22.0,-13.0,1.0,1.0,-6.0,4.0,31.0,1650821543107141.0
-1.0,0.0,2.0,8.0,23.0,22.0,2.0,-23.0,1650821543107141.0
4.0,10.0,10.0,-3.0,6.0,3.0,-3.0,21.0,1650821543120861.0
-2.0,-9.0,20.0,15.0,-3.0,1.0,4.0,5.0,1650821543120861.0
9.0,-25.0,-25.0,-3.0,0.0,3.0,3.0,-8.0,1650821543128865.0
4.0,12.0,-7.0,-8.0,-9.0,-24.0,-6.0,10.0,1650821543128865.0
-12.0,-28.0,29.0,-8.0,-3.0,3.0,1.0,4.0,1650821543143940.0
-2.0,3.0,-19.0,-3.0,5.0,2.0,-3.0,-15.0,1650821543143940.0
4.0,-1.0,-2.0,2.0,-5.0,-6.0,0.0,2.0,1650821543143940.0
3.0,11.0,43.0,13.0,0.0,-3.0,6.0,22.0,1650821543143940.0
-2.0,-5.0,-44.0,-4.0,3.0,10.0,-1.0,-18.0,1650821543167106.0
18.0,15.0,15.0,3.0,11.0,4.0,-1.0,7.0,1650821543167106.0
3.0,20.0,20.0,3.0,-8.0,-3.0,-2.0,-1.0,1650821543167106.0
-2.0,-18.0,-30.0,-15.0,1.0,-1.0,0.0,-1.0,1650821543167106.0
1.0,16.0,25.0,8.0,-3.0,-11.0,-3.0,6.0,1650821543180141.0
-11.0,12.0,-6.0,-2.0,-14.0,-1.0,-2.0,-4.0,1650821543180141.0
13.0,7.0,-8.0,-2.0,10.0,-1.0,0.0,16.0,1650821543188864.0
1.0,31.0,44.0,13.0,8.0,18.0,1.0,-31.0,1650821543188864.0
-1.0,-13.0,-19.0,-1.0,1.0,1.0,2.0,8.0,1650821543203934.0
-8.0,-9.0,2.0,0.0,1.0,-5.0,2.0,-2.0,1650821543203934.0
4.0,0.0,-9.0,-9.0,-15.0,-11.0,-5.0,-5.0,1650821543203934.0
0.0,-10.0,-19.0,-5.0,-4.0,-10.0,-1.0,10.0,1650821543203934.0
1.0,5.0,0.0,-3.0,0.0,1.0,-3.0,3.0,1650821543226839.0
0.0,7.0,27.0,10.0,5.0,14.0,6.0,0.0,1650821543226839.0
-5.0,-11.0,-2.0,0.0,1.0,14.0,4.0,-12.0,1650821543227771.0
4.0,-2.0,-4.0,3.0,20.0,8.0,5.0,12.0,1650821543227771.0
1.0,-14.0,40.0,6.0,2.0,2.0,1.0,1.0,1650821543249712.0
-4.0,-31.0,-18.0,-5.0,-22.0,-23.0,-6.0,0.0,1650821543249712.0
-13.0,-10.0,-11.0,1.0,1.0,0.0,-1.0,-6.0,1650821543249712.0
-1.0,1.0,8.0,4.0,7.0,14.0,0.0,2.0,1650821543249712.0
-2.0,13.0,-11.0,-2.0,2.0,6.0,1.0,3.0,1650821543263783.0
6.0,5.0,11.0,0.0,-5.0,-9.0,-1.0,0.0,1650821543263783.0
4.0,7.0,12.0,-2.0,-8.0,-13.0,-1.0,-1.0,1650821543263783.0
4.0,-5.0,-16.0,-4.0,-6.0,3.0,0.0,1.0,1650821543263783.0
-4.0,-13.0,-32.0,-5.0,-1.0,-6.0,-4.0,-2.0,1650821543287109.0
-10.0,0.0,3.0,-2.0,6.0,7.0,4.0,20.0,1650821543287109.0
-11.0,3.0,-12.0,-3.0,1.0,5.0,-3.0,-44.0,1650821543287109.0
1.0,-4.0,-4.0,-5.0,-10.0,-10.0,-4.0,2.0,1650821543287109.0
4.0,5.0,-1.0,-3.0,-13.0,-9.0,-5.0,-2.0,1650821543309339.0
0.0,-1.0,-1.0,4.0,13.0,18.0,4.0,2.0,1650821543309339.0
5.0,2.0,8.0,2.0,9.0,16.0,5.0,11.0,1650821543310270.0
-4.0,-5.0,-7.0,-3.0,-1.0,-13.0,-1.0,0.0,1650821543310270.0
-1.0,-4.0,1.0,-1.0,-11.0,-19.0,-7.0,-3.0,1650821543323385.0
-3.0,-5.0,-7.0,-5.0,-5.0,-1.0,-2.0,-8.0,1650821543323385.0
-2.0,-2.0,4.0,-2.0,1.0,-1.0,0.0,4.0,1650821543324385.0
0.0,0.0,-2.0,-1.0,-12.0,-9.0,1.0,-1.0,1650821543324385.0
-1.0,3.0,-6.0,1.0,4.0,16.0,1.0,5.0,1650821543346934.0
0.0,4.0,4.0,4.0,19.0,14.0,3.0,-3.0,1650821543346934.0
-2.0,-2.0,-8.0,-4.0,-8.0,-9.0,-3.0,2.0,1650821543347867.0
0.0,-5.0,-8.0,-4.0,-8.0,-12.0,-3.0,0.0,1650821543347867.0
4.0,4.0,1.0,-1.0,-7.0,-7.0,-1.0,-1.0,1650821543368911.0
-4.0,1.0,0.0,2.0,8.0,6.0,-3.0,-4.0,1650821543368911.0
0.0,-2.0,-3.0,-5.0,0.0,2.0,0.0,1.0,1650821543369842.0
0.0,-3.0,-4.0,-1.0,-6.0,-6.0,-1.0,-1.0,1650821543369842.0
1.0,1.0,3.0,1.0,-2.0,0.0,2.0,-1.0,1650821543383873.0
-2.0,0.0,0.0,1.0,2.0,4.0,0.0,-4.0,1650821543383873.0
0.0,1.0,-4.0,-2.0,-2.0,-2.0,-1.0,4.0,1650821543383873.0
-2.0,-6.0,-2.0,1.0,-1.0,1.0,-1.0,1.0,1650821543383873.0
-1.0,1.0,-2.0,-3.0,0.0,-2.0,0.0,-1.0,1650821543406839.0
0.0,0.0,-2.0,-3.0,-9.0,-11.0,-3.0,-3.0,1650821543406839.0
1.0,-3.0,-2.0,2.0,6.0,6.0,-3.0,3.0,1650821543407799.0
0.0,5.0,3.0,1.0,1.0,1.0,2.0,1.0,1650821543407799.0
0.0,-3.0,-1.0,-2.0,2.0,5.0,4.0,-1.0,1650821543428858.0
0.0,0.0,-1.0,2.0,-7.0,-3.0,0.0,-2.0,1650821543428858.0
0.0,1.0,5.0,4.0,5.0,10.0,5.0,3.0,1650821543429857.0
0.0,-2.0,-7.0,0.0,11.0,6.0,-1.0,-1.0,1650821543429857.0
-3.0,-4.0,-3.0,-3.0,-9.0,-14.0,-3.0,-1.0,1650821543443964.0
-2.0,-2.0,0.0,-3.0,-6.0,-7.0,-3.0,-2.0,1650821543443964.0
-1.0,1.0,1.0,0.0,-4.0,-5.0,-1.0,-1.0,1650821543443964.0
-1.0,-1.0,0.0,-1.0,-3.0,0.0,0.0,0.0,1650821543443964.0
0.0,3.0,2.0,0.0,7.0,2.0,-2.0,-1.0,1650821543466977.0
-2.0,-2.0,-2.0,-4.0,-8.0,-9.0,-4.0,-5.0,1650821543466977.0
1.0,0.0,0.0,-1.0,-8.0,-5.0,-2.0,-2.0,1650821543467910.0
-1.0,-3.0,-3.0,-1.0,6.0,15.0,4.0,2.0,1650821543467910.0
1.0,1.0,2.0,3.0,9.0,7.0,2.0,0.0,1650821543497084.0
1.0,0.0,2.0,0.0,-6.0,-13.0,-3.0,1.0,1650821543497084.0
0.0,0.0,-4.0,-2.0,4.0,-1.0,-4.0,0.0,1650821543497084.0
0.0,1.0,0.0,1.0,6.0,12.0,4.0,0.0,1650821543497084.0
1.0,0.0,2.0,0.0,-2.0,0.0,1.0,-1.0,1650821543503003.0
-1.0,-1.0,-1.0,-3.0,0.0,-5.0,-2.0,-1.0,1650821543503003.0
-1.0,-3.0,-3.0,-1.0,-15.0,-16.0,-3.0,-2.0,1650821543504002.0
0.0,3.0,6.0,0.0,-10.0,-3.0,-2.0,0.0,1650821543504002.0
-2.0,-9.0,-12.0,-5.0,12.0,8.0,0.0,1.0,1650821543526433.0
2.0,1.0,-4.0,1.0,4.0,13.0,6.0,1.0,1650821543526433.0
-1.0,0.0,7.0,8.0,1.0,3.0,-1.0,-2.0,1650821543526433.0
0.0,-1.0,-4.0,-2.0,6.0,-4.0,0.0,-2.0,1650821543526433.0
-1.0,1.0,2.0,0.0,-7.0,-15.0,-3.0,-2.0,1650821543548869.0
-1.0,0.0,-1.0,-4.0,-5.0,-4.0,-4.0,-2.0,1650821543548869.0
1.0,-3.0,-7.0,-8.0,-8.0,-1.0,0.0,1.0,1650821543549802.0
-1.0,-2.0,-4.0,-2.0,-7.0,-1.0,1.0,-2.0,1650821543549802.0
0.0,3.0,5.0,2.0,1.0,-2.0,-2.0,-2.0,1650821543563829.0
-2.0,-4.0,0.0,2.0,11.0,8.0,-1.0,1.0,1650821543563829.0
0.0,1.0,0.0,2.0,4.0,2.0,1.0,-2.0,1650821543563829.0
0.0,-1.0,-1.0,-5.0,-15.0,-15.0,-1.0,-1.0,1650821543563829.0
-2.0,0.0,-1.0,-5.0,-13.0,-11.0,-4.0,-2.0,1650821543587109.0
0.0,2.0,4.0,4.0,24.0,24.0,0.0,0.0,1650821543587109.0
3.0,1.0,4.0,3.0,15.0,28.0,10.0,3.0,1650821543587827.0
3.0,0.0,-3.0,1.0,5.0,-4.0,0.0,3.0,1650821543587827.0
0.0,3.0,3.0,-1.0,-14.0,-11.0,1.0,0.0,1650821543608840.0
0.0,1.0,-2.0,-3.0,-15.0,-20.0,-5.0,-3.0,1650821543608840.0
-3.0,-6.0,-8.0,-4.0,-3.0,-4.0,-4.0,-2.0,1650821543609771.0
0.0,0.0,-1.0,2.0,2.0,8.0,-2.0,-1.0,1650821543609771.0
1.0,4.0,-1.0,1.0,1.0,2.0,2.0,0.0,1650821543623909.0
-1.0,-1.0,2.0,-1.0,-1.0,-6.0,-3.0,0.0,1650821543623909.0
-2.0,0.0,-1.0,-1.0,-8.0,-15.0,-3.0,-1.0,1650821543623909.0
-1.0,-1.0,2.0,-2.0,-21.0,-6.0,-3.0,-2.0,1650821543623909.0
1.0,-3.0,-5.0,3.0,16.0,9.0,-3.0,1.0,1650821543647192.0
0.0,1.0,0.0,2.0,17.0,27.0,9.0,2.0,1650821543647192.0
1.0,2.0,2.0,0.0,-7.0,-2.0,2.0,1.0,1650821543647192.0
-1.0,-2.0,-3.0,-1.0,-1.0,-10.0,-3.0,0.0,1650821543647192.0
0.0,1.0,3.0,-1.0,1.0,1.0,-2.0,0.0,1650821543668868.0
-3.0,-2.0,-3.0,-3.0,-12.0,-8.0,-5.0,-4.0,1650821543668868.0
0.0,-2.0,1.0,-1.0,-1.0,-8.0,-4.0,-2.0,1650821543669867.0
-1.0,0.0,5.0,-4.0,-11.0,-5.0,-1.0,-2.0,1650821543669867.0
0.0,0.0,1.0,2.0,14.0,11.0,2.0,1.0,1650821543683963.0
1.0,1.0,2.0,3.0,0.0,-4.0,1.0,3.0,1650821543683963.0
-1.0,2.0,0.0,0.0,11.0,15.0,2.0,1.0,1650821543683963.0
0.0,0.0,0.0,4.0,8.0,7.0,1.0,1.0,1650821543683963.0
-1.0,-2.0,-3.0,-2.0,-8.0,-7.0,-3.0,-1.0,1650821543706325.0
-1.0,1.0,-1.0,-3.0,-20.0,-23.0,-2.0,-2.0,1650821543706325.0
-1.0,-2.0,-2.0,-1.0,2.0,6.0,-3.0,1.0,1650821543707255.0
-1.0,0.0,0.0,2.0,18.0,22.0,3.0,0.0,1650821543707255.0
0.0,1.0,2.0,1.0,-1.0,-1.0,2.0,0.0,1650821543728862.0
-1.0,2.0,1.0,-1.0,-12.0,-19.0,-4.0,-2.0,1650821543728862.0
-1.0,2.0,-1.0,-4.0,-15.0,-20.0,-3.0,-2.0,1650821543729793.0
-1.0,-4.0,-8.0,-3.0,6.0,17.0,1.0,0.0,1650821543729793.0
1.0,0.0,3.0,2.0,9.0,19.0,5.0,3.0,1650821543743883.0
-1.0,1.0,2.0,1.0,1.0,0.0,0.0,1.0,1650821543743883.0
-2.0,-4.0,-1.0,-1.0,-1.0,-8.0,-1.0,-1.0,1650821543743883.0
-3.0,-2.0,-1.0,-2.0,-8.0,-14.0,-4.0,-2.0,1650821543743883.0
-2.0,-2.0,-3.0,-5.0,-7.0,-10.0,-4.0,-3.0,1650821543774010.0
0.0,-2.0,-3.0,-1.0,7.0,14.0,2.0,1.0,1650821543774010.0
1.0,2.0,1.0,1.0,-1.0,6.0,3.0,2.0,1650821543775020.0
1.0,0.0,-2.0,3.0,8.0,-4.0,-1.0,0.0,1650821543775020.0
-1.0,0.0,-2.0,0.0,-6.0,-7.0,-1.0,0.0,1650821543789159.0
-1.0,-1.0,-1.0,-1.0,-5.0,-3.0,-2.0,-1.0,1650821543789159.0
-2.0,1.0,3.0,2.0,1.0,6.0,0.0,-1.0,1650821543790088.0
0.0,-1.0,0.0,-1.0,6.0,2.0,3.0,1.0,1650821543790088.0
0.0,-2.0,-2.0,2.0,6.0,5.0,1.0,1.0,1650821543803119.0
0.0,-4.0,-9.0,-9.0,-18.0,-15.0,-3.0,-1.0,1650821543803119.0
-1.0,1.0,4.0,0.0,0.0,-9.0,-3.0,-3.0,1650821543811098.0
-2.0,4.0,6.0,0.0,2.0,9.0,-2.0,0.0,1650821543811098.0
-2.0,-8.0,-4.0,1.0,6.0,1.0,2.0,-1.0,1650821543827167.0
0.0,-1.0,4.0,2.0,2.0,1.0,-1.0,-1.0,1650821543827167.0
0.0,-3.0,-7.0,-2.0,-10.0,-11.0,-2.0,0.0,1650821543827167.0
-2.0,-5.0,1.0,-1.0,-7.0,1.0,0.0,0.0,1650821543827167.0
1.0,4.0,1.0,-1.0,6.0,9.0,-1.0,2.0,1650821543848873.0
-1.0,-1.0,-1.0,3.0,2.0,1.0,1.0,1.0,1650821543848873.0
1.0,-4.0,-2.0,-3.0,3.0,-4.0,1.0,1.0,1650821543849873.0
-1.0,0.0,-1.0,-1.0,-1.0,-13.0,-6.0,-2.0,1650821543849873.0
1.0,2.0,0.0,-2.0,-15.0,-7.0,-2.0,-2.0,1650821543863318.0
0.0,-1.0,-1.0,3.0,9.0,16.0,1.0,-1.0,1650821543863318.0
1.0,2.0,0.0,2.0,16.0,15.0,5.0,0.0,1650821543871365.0
1.0,2.0,-1.0,1.0,6.0,3.0,3.0,-1.0,1650821543871365.0
-1.0,0.0,-1.0,-2.0,-7.0,-8.0,0.0,-2.0,1650821543886435.0
-2.0,0.0,-1.0,-4.0,-7.0,-14.0,-3.0,-2.0,1650821543886435.0
-3.0,-1.0,-4.0,-3.0,-2.0,4.0,-2.0,1.0,1650821543887365.0
-1.0,0.0,-2.0,-3.0,-8.0,-6.0,0.0,0.0,1650821543887365.0
-2.0,-3.0,0.0,-1.0,-8.0,-13.0,-4.0,-1.0,1650821543909022.0
1.0,0.0,1.0,1.0,13.0,14.0,4.0,-2.0,1650821543909022.0
-1.0,2.0,-1.0,3.0,7.0,9.0,2.0,0.0,1650821543909953.0
-1.0,-1.0,2.0,2.0,2.0,-3.0,0.0,0.0,1650821543909953.0
2.0,3.0,0.0,-3.0,-5.0,-5.0,-4.0,-1.0,1650821543922984.0
-2.0,-3.0,-5.0,-3.0,-6.0,-3.0,0.0,1.0,1650821543922984.0
-2.0,0.0,0.0,-5.0,-20.0,-23.0,-6.0,-3.0,1650821543930963.0
0.0,-1.0,1.0,0.0,16.0,15.0,-2.0,-2.0,1650821543930963.0
-1.0,-1.0,0.0,2.0,9.0,15.0,3.0,0.0,1650821543947178.0
0.0,0.0,2.0,1.0,6.0,6.0,1.0,0.0,1650821543947178.0
-1.0,0.0,-1.0,0.0,-5.0,1.0,-1.0,1.0,1650821543947178.0
1.0,-1.0,-3.0,1.0,-1.0,-1.0,0.0,-1.0,1650821543947178.0
-2.0,-1.0,0.0,-1.0,1.0,-3.0,1.0,0.0,1650821543968860.0
0.0,-1.0,3.0,3.0,-2.0,-3.0,-1.0,0.0,1650821543968860.0
-1.0,0.0,0.0,-4.0,-3.0,-6.0,-3.0,-2.0,1650821543969792.0
-1.0,-7.0,-5.0,-3.0,-12.0,-6.0,0.0,-3.0,1650821543969792.0
0.0,1.0,-1.0,2.0,8.0,6.0,0.0,-1.0,1650821543983343.0
3.0,4.0,3.0,2.0,0.0,-1.0,1.0,-1.0,1650821543983343.0
-2.0,-3.0,-4.0,1.0,3.0,-6.0,-3.0,-2.0,1650821543990924.0
1.0,2.0,2.0,1.0,-2.0,-2.0,-4.0,0.0,1650821543990924.0
-2.0,-2.0,-1.0,0.0,0.0,7.0,1.0,2.0,1650821544006060.0
-2.0,-1.0,-4.0,-5.0,-4.0,-4.0,0.0,0.0,1650821544006060.0
0.0,0.0,1.0,0.0,-2.0,-5.0,0.0,0.0,1650821544006992.0
1.0,1.0,-3.0,-1.0,-2.0,-2.0,-1.0,-1.0,1650821544006992.0
1.0,-3.0,-2.0,0.0,0.0,7.0,2.0,-2.0,1650821544028870.0
-2.0,-1.0,0.0,-4.0,-1.0,1.0,0.0,-1.0,1650821544028870.0
0.0,-3.0,-4.0,-1.0,-2.0,-1.0,0.0,0.0,1650821544029800.0
-2.0,1.0,-1.0,-3.0,-14.0,-15.0,-2.0,-2.0,1650821544029800.0
-1.0,1.0,1.0,1.0,19.0,9.0,1.0,1.0,1650821544051853.0
-1.0,0.0,-1.0,3.0,4.0,8.0,-2.0,-2.0,1650821544051853.0
1.0,-1.0,1.0,2.0,-4.0,-1.0,0.0,-1.0,1650821544052811.0
0.0,-1.0,-2.0,-2.0,-7.0,-2.0,1.0,0.0,1650821544052811.0
1.0,3.0,3.0,2.0,0.0,-2.0,1.0,0.0,1650821544065776.0
-2.0,-2.0,0.0,1.0,2.0,-1.0,-2.0,-1.0,1650821544065776.0
0.0,-1.0,0.0,-5.0,1.0,-6.0,-2.0,-1.0,1650821544066746.0
0.0,0.0,0.0,1.0,-5.0,-5.0,-1.0,-2.0,1650821544066746.0
-1.0,0.0,-7.0,-4.0,-14.0,5.0,-2.0,-2.0,1650821544088857.0
0.0,-2.0,-5.0,-8.0,10.0,3.0,2.0,0.0,1650821544088857.0
1.0,1.0,3.0,8.0,4.0,0.0,-2.0,-1.0,1650821544089858.0
-2.0,-1.0,2.0,2.0,1.0,6.0,1.0,1.0,1650821544089858.0
0.0,-2.0,-3.0,-4.0,-2.0,-11.0,-3.0,-2.0,1650821544112014.0
-2.0,-2.0,-2.0,0.0,-18.0,-17.0,-3.0,0.0,1650821544112014.0
-1.0,-1.0,-3.0,-3.0,-6.0,6.0,1.0,0.0,1650821544112944.0
0.0,2.0,-1.0,2.0,36.0,20.0,0.0,2.0,1650821544112944.0
1.0,1.0,3.0,2.0,-3.0,5.0,1.0,3.0,1650821544126443.0
1.0,1.0,1.0,1.0,-5.0,-10.0,-2.0,-2.0,1650821544126443.0
-3.0,0.0,-1.0,-2.0,-9.0,-4.0,-1.0,-2.0,1650821544126443.0
0.0,-2.0,-6.0,-7.0,-3.0,-2.0,-2.0,0.0,1650821544126443.0
-3.0,-2.0,0.0,-1.0,-2.0,-12.0,-3.0,1.0,1650821544149448.0
-2.0,0.0,2.0,1.0,-1.0,8.0,0.0,-1.0,1650821544149448.0
-1.0,-2.0,1.0,1.0,7.0,18.0,3.0,1.0,1650821544150381.0
-1.0,-1.0,-2.0,-4.0,-3.0,1.0,1.0,-3.0,1650821544150381.0
1.0,0.0,-5.0,-4.0,-9.0,-15.0,-1.0,-1.0,1650821544171403.0
-1.0,0.0,4.0,7.0,4.0,-5.0,-2.0,-1.0,1650821544171403.0
0.0,0.0,-2.0,-1.0,-2.0,-3.0,2.0,1.0,1650821544172334.0
-1.0,-2.0,-5.0,-5.0,-10.0,-10.0,-2.0,-1.0,1650821544172334.0
-3.0,-2.0,2.0,2.0,3.0,7.0,-2.0,-2.0,1650821544186362.0
1.0,1.0,-1.0,-2.0,-2.0,1.0,-2.0,0.0,1650821544186362.0
1.0,1.0,-2.0,-4.0,-10.0,-3.0,1.0,1.0,1650821544186362.0
-1.0,-2.0,1.0,2.0,11.0,1.0,-1.0,-1.0,1650821544186362.0
0.0,3.0,9.0,6.0,1.0,-1.0,-2.0,-1.0,1650821544209400.0
4.0,0.0,1.0,3.0,1.0,12.0,4.0,-1.0,1650821544209400.0
0.0,-1.0,-3.0,-2.0,5.0,10.0,0.0,1.0,1650821544210333.0
1.0,0.0,0.0,0.0,1.0,4.0,5.0,2.0,1650821544210333.0
2.0,1.0,-3.0,-2.0,-1.0,-1.0,2.0,-1.0,1650821544231494.0
0.0,-2.0,-5.0,-6.0,-3.0,-8.0,-3.0,-1.0,1650821544231494.0
-2.0,1.0,3.0,-4.0,-4.0,-9.0,-2.0,-2.0,1650821544232435.0
-1.0,-8.0,-2.0,-3.0,-12.0,-12.0,-2.0,-1.0,1650821544232435.0
-2.0,-1.0,-3.0,1.0,-5.0,-2.0,-5.0,-1.0,1650821544246947.0
-1.0,0.0,-3.0,-1.0,9.0,11.0,1.0,0.0,1650821544246947.0
0.0,-1.0,-2.0,1.0,0.0,-4.0,-2.0,0.0,1650821544246947.0
-1.0,1.0,6.0,3.0,-6.0,-7.0,-4.0,-2.0,1650821544246947.0
0.0,-1.0,2.0,1.0,4.0,5.0,2.0,-1.0,1650821544269636.0
-2.0,0.0,-4.0,-3.0,-6.0,-3.0,-1.0,0.0,1650821544269636.0
-5.0,-4.0,-4.0,-3.0,2.0,2.0,-2.0,-1.0,1650821544269636.0
6.0,2.0,0.0,-2.0,-5.0,-5.0,-3.0,0.0,1650821544269636.0
-3.0,-3.0,-1.0,-2.0,-11.0,-12.0,-4.0,-2.0,1650821544291787.0
0.0,-1.0,4.0,6.0,27.0,20.0,-1.0,0.0,1650821544291787.0
-1.0,0.0,2.0,3.0,5.0,7.0,4.0,-1.0,1650821544292718.0
-2.0,1.0,1.0,2.0,2.0,4.0,3.0,3.0,1650821544292718.0
0.0,0.0,-7.0,-5.0,6.0,5.0,6.0,-1.0,1650821544305815.0
-1.0,0.0,-2.0,-5.0,-12.0,-15.0,-2.0,-1.0,1650821544305815.0
5.0,-1.0,-2.0,0.0,-1.0,-4.0,-5.0,-1.0,1650821544306787.0
-13.0,-3.0,-2.0,-4.0,-10.0,-9.0,-2.0,-3.0,1650821544306787.0
2.0,1.0,-6.0,-10.0,-11.0,-7.0,-3.0,0.0,1650821544329938.0
-2.0,-1.0,-2.0,3.0,-2.0,-3.0,-2.0,-3.0,1650821544329938.0
1.0,-1.0,7.0,4.0,6.0,-3.0,-2.0,0.0,1650821544330875.0
3.0,0.0,-2.0,-1.0,-2.0,13.0,3.0,0.0,1650821544330875.0
-2.0,-3.0,3.0,2.0,13.0,15.0,1.0,0.0,1650821544352008.0
0.0,-2.0,-4.0,-3.0,-2.0,-3.0,3.0,2.0,1650821544352008.0
-3.0,0.0,-4.0,-5.0,-11.0,-15.0,-5.0,-1.0,1650821544352008.0
0.0,1.0,7.0,3.0,0.0,-10.0,-3.0,-2.0,1650821544352008.0
-1.0,-2.0,0.0,-3.0,-23.0,4.0,2.0,-1.0,1650821544365975.0
2.0,-1.0,-1.0,0.0,26.0,17.0,2.0,1.0,1650821544365975.0
1.0,2.0,-2.0,1.0,13.0,13.0,4.0,1.0,1650821544366903.0
0.0,0.0,2.0,-1.0,4.0,-6.0,-1.0,2.0,1650821544366903.0
-2.0,0.0,-7.0,-1.0,-8.0,-12.0,-5.0,-2.0,1650821544389063.0
0.0,-4.0,0.0,-3.0,-23.0,-15.0,-1.0,-1.0,1650821544389063.0
-3.0,-1.0,4.0,2.0,-1.0,0.0,-2.0,-2.0,1650821544389994.0
2.0,1.0,-6.0,-2.0,9.0,8.0,1.0,1.0,1650821544389994.0
0.0,-1.0,0.0,-5.0,-10.0,-17.0,-4.0,0.0,1650821544412139.0
-1.0,0.0,-4.0,0.0,0.0,12.0,2.0,0.0,1650821544412139.0
-1.0,2.0,4.0,5.0,9.0,11.0,3.0,0.0,1650821544412139.0
1.0,0.0,1.0,0.0,-12.0,-9.0,-4.0,-1.0,1650821544412139.0
0.0,0.0,2.0,-1.0,-1.0,-10.0,-1.0,-1.0,1650821544425899.0
-1.0,-2.0,-3.0,1.0,7.0,7.0,-1.0,-1.0,1650821544425899.0
2.0,1.0,4.0,1.0,5.0,11.0,4.0,2.0,1650821544426878.0
0.0,-2.0,-3.0,3.0,-3.0,3.0,4.0,0.0,1650821544426878.0
-1.0,0.0,4.0,4.0,1.0,-11.0,-3.0,0.0,1650821544448874.0
3.0,2.0,2.0,-2.0,-7.0,-7.0,-3.0,-1.0,1650821544448874.0
-11.0,-5.0,-4.0,-4.0,-6.0,-2.0,-3.0,-3.0,1650821544449884.0
0.0,-1.0,-2.0,-3.0,3.0,1.0,1.0,0.0,1650821544449884.0
-2.0,-2.0,-3.0,1.0,8.0,7.0,3.0,0.0,1650821544471920.0
1.0,1.0,3.0,7.0,-6.0,-4.0,0.0,0.0,1650821544471920.0
1.0,-2.0,-6.0,-7.0,-8.0,-3.0,0.0,0.0,1650821544472850.0
2.0,0.0,4.0,7.0,15.0,11.0,0.0,-1.0,1650821544472850.0
-2.0,-2.0,0.0,-1.0,3.0,5.0,1.0,0.0,1650821544486026.0
-2.0,0.0,-4.0,-4.0,-9.0,-12.0,-1.0,-1.0,1650821544486026.0
0.0,-2.0,-5.0,-4.0,-9.0,-13.0,-1.0,-1.0,1650821544487026.0
-2.0,0.0,-1.0,-2.0,-5.0,-5.0,-3.0,-3.0,1650821544487026.0
-4.0,1.0,1.0,-1.0,-8.0,-2.0,-2.0,-2.0,1650821544509049.0
7.0,-1.0,-1.0,-3.0,8.0,1.0,-4.0,0.0,1650821544509049.0
0.0,1.0,0.0,1.0,4.0,9.0,1.0,1.0,1650821544511007.0
-1.0,1.0,-5.0,-5.0,-3.0,0.0,2.0,0.0,1650821544511007.0
-1.0,1.0,4.0,4.0,13.0,4.0,-1.0,2.0,1650821544531920.0
-3.0,-1.0,10.0,7.0,-3.0,-1.0,2.0,1.0,1650821544531920.0
1.0,-1.0,-6.0,-4.0,-6.0,-12.0,-3.0,0.0,1650821544532850.0
1.0,-1.0,2.0,3.0,0.0,8.0,-2.0,-2.0,1650821544532850.0
0.0,0.0,-4.0,-2.0,-2.0,4.0,-1.0,0.0,1650821544544872.0
-4.0,-2.0,1.0,-1.0,-11.0,-11.0,-2.0,-1.0,1650821544544872.0
3.0,1.0,-1.0,-2.0,7.0,1.0,-2.0,0.0,1650821544553916.0
-2.0,-2.0,-3.0,-3.0,-8.0,-12.0,0.0,0.0,1650821544553916.0
1.0,0.0,-2.0,2.0,11.0,11.0,1.0,3.0,1650821544569016.0
0.0,1.0,-2.0,-1.0,9.0,16.0,4.0,0.0,1650821544569016.0
0.0,-1.0,6.0,7.0,-4.0,-5.0,1.0,-1.0,1650821544570945.0
0.0,-1.0,-1.0,-4.0,-2.0,-5.0,0.0,2.0,1650821544570945.0
-1.0,-1.0,-3.0,-5.0,-11.0,-7.0,-2.0,-2.0,1650821544591955.0
-3.0,-2.0,-5.0,-4.0,-7.0,-11.0,-2.0,-2.0,1650821544591955.0
-2.0,-1.0,-3.0,-1.0,8.0,8.0,0.0,1.0,1650821544592916.0
3.0,3.0,2.0,1.0,-4.0,1.0,3.0,1.0,1650821544592916.0
2.0,2.0,6.0,7.0,7.0,-5.0,0.0,0.0,1650821544606233.0
-5.0,-2.0,-2.0,-4.0,1.0,4.0,-2.0,-1.0,1650821544606233.0
1.0,-1.0,-2.0,-3.0,-7.0,2.0,0.0,-3.0,1650821544613936.0
-1.0,0.0,-1.0,0.0,0.0,-6.0,-5.0,-1.0,1650821544613936.0
0.0,-1.0,0.0,-5.0,-3.0,-4.0,1.0,-1.0,1650821544628859.0
-1.0,0.0,0.0,0.0,-3.0,-2.0,-1.0,0.0,1650821544628859.0
-2.0,0.0,-1.0,0.0,2.0,4.0,0.0,-1.0,1650821544630885.0
0.0,-2.0,-3.0,-1.0,3.0,-1.0,-2.0,-1.0,1650821544630885.0
-2.0,-1.0,-5.0,-3.0,-2.0,1.0,-2.0,-1.0,1650821544652016.0
-1.0,-1.0,0.0,-5.0,-6.0,-9.0,-2.0,-1.0,1650821544652016.0
-2.0,-1.0,1.0,6.0,8.0,9.0,1.0,1.0,1650821544652949.0
-2.0,0.0,1.0,3.0,-1.0,4.0,1.0,-2.0,1650821544652949.0
-4.0,-1.0,-2.0,3.0,7.0,-3.0,0.0,0.0,1650821544665035.0
5.0,-1.0,-3.0,-1.0,-3.0,-5.0,-3.0,-1.0,1650821544665035.0
0.0,-3.0,-3.0,-7.0,-12.0,-11.0,-4.0,-3.0,1650821544674807.0
-3.0,-2.0,-2.0,-1.0,-16.0,-5.0,-2.0,2.0,1650821544674807.0
0.0,-1.0,-2.0,-1.0,13.0,7.0,2.0,0.0,1650821544688858.0
1.0,0.0,0.0,2.0,10.0,19.0,4.0,0.0,1650821544688858.0
1.0,2.0,2.0,2.0,0.0,-7.0,1.0,1.0,1650821544690883.0
-2.0,0.0,1.0,1.0,7.0,-3.0,-2.0,-3.0,1650821544690883.0
7.0,0.0,2.0,-1.0,-14.0,-5.0,-3.0,-1.0,1650821544711949.0
-14.0,-1.0,-3.0,-4.0,-5.0,-2.0,1.0,0.0,1650821544711949.0
-1.0,-5.0,-3.0,-3.0,-2.0,-6.0,-3.0,-1.0,1650821544712904.0
-1.0,0.0,2.0,1.0,2.0,8.0,-1.0,0.0,1650821544712904.0
1.0,1.0,-3.0,1.0,4.0,7.0,4.0,1.0,1650821544725012.0
1.0,0.0,2.0,5.0,5.0,-3.0,0.0,0.0,1650821544725012.0
0.0,1.0,0.0,-3.0,-12.0,-11.0,-2.0,-1.0,1650821544733999.0
-2.0,-4.0,-8.0,-7.0,1.0,5.0,0.0,0.0,1650821544733999.0
-1.0,0.0,-1.0,-2.0,-3.0,5.0,-1.0,0.0,1650821544748869.0
3.0,-1.0,7.0,10.0,-1.0,3.0,1.0,0.0,1650821544748869.0
0.0,0.0,2.0,2.0,3.0,-1.0,1.0,1.0,1650821544750798.0
0.0,-1.0,-1.0,-1.0,-2.0,-3.0,2.0,0.0,1650821544750798.0
-1.0,-2.0,-4.0,-3.0,-7.0,-13.0,-5.0,-2.0,1650821544772124.0
-1.0,-1.0,-3.0,-5.0,2.0,6.0,0.0,0.0,1650821544772124.0
-1.0,0.0,-2.0,0.0,1.0,6.0,0.0,0.0,1650821544773123.0
2.0,1.0,2.0,1.0,0.0,-3.0,0.0,1.0,1650821544773123.0
1.0,-1.0,1.0,2.0,2.0,7.0,1.0,-1.0,1650821544784870.0
-1.0,0.0,-1.0,-1.0,0.0,0.0,0.0,-1.0,1650821544784870.0
0.0,-2.0,-2.0,-2.0,-9.0,-3.0,0.0,-1.0,1650821544793958.0
-1.0,0.0,-3.0,-1.0,1.0,-14.0,-3.0,-2.0,1650821544793958.0
-3.0,0.0,1.0,1.0,-2.0,9.0,-2.0,-2.0,1650821544808911.0
2.0,0.0,-1.0,0.0,14.0,5.0,4.0,1.0,1650821544808911.0
3.0,2.0,1.0,4.0,6.0,7.0,2.0,1.0,1650821544810841.0
-8.0,-2.0,-3.0,-4.0,-3.0,-8.0,-2.0,0.0,1650821544810841.0
-1.0,-3.0,5.0,2.0,-3.0,-6.0,-2.0,-2.0,1650821544832001.0
-5.0,-2.0,-6.0,-7.0,-10.0,-6.0,-2.0,-1.0,1650821544832001.0
2.0,-1.0,1.0,0.0,3.0,2.0,1.0,-1.0,1650821544832963.0
1.0,-1.0,-4.0,-5.0,-7.0,-4.0,0.0,-2.0,1650821544832963.0
-1.0,1.0,5.0,8.0,-2.0,-1.0,-2.0,2.0,1650821544844965.0
-2.0,2.0,5.0,1.0,0.0,0.0,0.0,1.0,1650821544844965.0
0.0,0.0,-5.0,-3.0,5.0,9.0,2.0,-1.0,1650821544854818.0
1.0,-2.0,-5.0,-4.0,2.0,5.0,-2.0,1.0,1650821544854818.0
0.0,3.0,3.0,5.0,5.0,1.0,1.0,-3.0,1650821544869441.0
4.0,-1.0,-2.0,-4.0,-13.0,-16.0,-4.0,0.0,1650821544869441.0
-1.0,-3.0,-9.0,-7.0,-14.0,-12.0,-1.0,-1.0,1650821544870371.0
1.0,1.0,11.0,5.0,-2.0,7.0,2.0,0.0,1650821544870371.0
-1.0,-3.0,-5.0,1.0,18.0,5.0,2.0,0.0,1650821544891530.0
2.0,3.0,5.0,5.0,5.0,8.0,-1.0,0.0,1650821544891530.0
-2.0,-2.0,-3.0,-3.0,3.0,10.0,1.0,-1.0,1650821544893486.0
-2.0,-3.0,-14.0,-7.0,1.0,4.0,-2.0,-2.0,1650821544893486.0
3.0,0.0,-1.0,-4.0,-21.0,-14.0,1.0,2.0,1650821544904870.0
1.0,-2.0,-2.0,-1.0,8.0,-7.0,-2.0,2.0,1650821544904870.0
-11.0,-2.0,14.0,16.0,1.0,-1.0,-1.0,2.0,1650821544913961.0
2.0,-5.0,-7.0,-4.0,-3.0,-5.0,-4.0,-1.0,1650821544913961.0
2.0,0.0,-4.0,-4.0,-6.0,-2.0,-3.0,-2.0,1650821544928876.0
1.0,4.0,8.0,-2.0,-5.0,1.0,0.0,-1.0,1650821544928876.0
0.0,1.0,-1.0,0.0,3.0,0.0,-1.0,2.0,1650821544930873.0
-4.0,-6.0,-15.0,-10.0,-5.0,-6.0,-1.0,-1.0,1650821544930873.0
-3.0,-2.0,2.0,5.0,4.0,7.0,1.0,3.0,1650821544951999.0
2.0,0.0,-5.0,-4.0,2.0,2.0,2.0,1.0,1650821544951999.0
4.0,6.0,7.0,0.0,4.0,10.0,3.0,1.0,1650821544952935.0
-1.0,1.0,9.0,8.0,0.0,-1.0,-1.0,-4.0,1650821544952935.0
-4.0,-3.0,-8.0,-9.0,-4.0,-11.0,-5.0,-5.0,1650821544965019.0
-1.0,-4.0,-2.0,-7.0,-18.0,-11.0,-4.0,-2.0,1650821544965019.0
2.0,-3.0,7.0,4.0,-4.0,-1.0,-3.0,0.0,1650821544974019.0
-4.0,-2.0,-9.0,1.0,20.0,17.0,2.0,-1.0,1650821544974019.0
-2.0,1.0,13.0,7.0,5.0,6.0,2.0,1.0,1650821544988886.0
-8.0,-1.0,-4.0,-4.0,-9.0,-20.0,-4.0,-4.0,1650821544988886.0
1.0,-5.0,-24.0,-22.0,-14.0,-10.0,-4.0,-10.0,1650821544990814.0
6.0,8.0,5.0,-10.0,-8.0,6.0,-2.0,3.0,1650821544990814.0
5.0,-1.0,7.0,18.0,19.0,11.0,2.0,-1.0,1650821545011846.0
-12.0,-2.0,6.0,5.0,1.0,2.0,1.0,-2.0,1650821545011846.0
-2.0,-3.0,1.0,10.0,3.0,-4.0,-3.0,2.0,1650821545012805.0
0.0,5.0,4.0,-9.0,-17.0,-18.0,-3.0,-2.0,1650821545012805.0
-3.0,-12.0,-38.0,-18.0,3.0,1.0,-5.0,-3.0,1650821545025749.0
3.0,8.0,16.0,18.0,5.0,12.0,6.0,6.0,1650821545025749.0
7.0,6.0,-9.0,-11.0,7.0,-2.0,1.0,3.0,1650821545034838.0
-2.0,0.0,40.0,30.0,7.0,6.0,2.0,13.0,1650821545034838.0
2.0,4.0,1.0,-8.0,-6.0,0.0,3.0,-4.0,1650821545048876.0
4.0,-14.0,-28.0,-9.0,-5.0,2.0,3.0,2.0,1650821545048876.0
0.0,7.0,8.0,-2.0,-5.0,-6.0,0.0,-2.0,1650821545050873.0
5.0,5.0,8.0,12.0,24.0,12.0,7.0,1.0,1650821545050873.0
-4.0,-18.0,-9.0,-21.0,-10.0,-10.0,-6.0,5.0,1650821545072079.0
1.0,13.0,24.0,18.0,2.0,-3.0,-2.0,4.0,1650821545072079.0
5.0,-9.0,-2.0,6.0,-4.0,4.0,5.0,15.0,1650821545073010.0
-8.0,-7.0,-8.0,-8.0,-4.0,-5.0,-5.0,-37.0,1650821545073010.0
4.0,6.0,-11.0,-2.0,8.0,8.0,3.0,6.0,1650821545093876.0
-8.0,2.0,12.0,1.0,-6.0,-3.0,0.0,14.0,1650821545093876.0
0.0,-3.0,-20.0,-9.0,-1.0,-13.0,-9.0,-20.0,1650821545095873.0
0.0,10.0,-3.0,-14.0,-7.0,1.0,2.0,22.0,1650821545095873.0
4.0,22.0,49.0,17.0,5.0,3.0,-1.0,-16.0,1650821545109011.0
9.0,-13.0,-44.0,-13.0,-5.0,-12.0,-3.0,9.0,1650821545109011.0
-4.0,0.0,-4.0,5.0,3.0,17.0,1.0,6.0,1650821545110939.0
-2.0,-10.0,-10.0,-5.0,2.0,8.0,5.0,14.0,1650821545110939.0
-2.0,5.0,8.0,-5.0,-10.0,-13.0,-7.0,-13.0,1650821545131959.0
-2.0,-12.0,-22.0,-16.0,-9.0,-9.0,-6.0,-1.0,1650821545131959.0
-8.0,9.0,36.0,18.0,-5.0,-11.0,3.0,9.0,1650821545132935.0
5.0,-4.0,-22.0,-10.0,4.0,-1.0,-4.0,-7.0,1650821545132935.0
-10.0,-13.0,-36.0,-9.0,3.0,15.0,1.0,-45.0,1650821545153743.0
5.0,6.0,-23.0,-22.0,12.0,12.0,1.0,-12.0,1650821545153743.0
-11.0,-24.0,-8.0,0.0,10.0,1.0,1.0,-6.0,1650821545169926.0
30.0,26.0,82.0,68.0,4.0,-2.0,5.0,44.0,1650821545169926.0
-38.0,-33.0,-88.0,-67.0,-22.0,-16.0,-10.0,-44.0,1650821545170885.0
6.0,7.0,1.0,-10.0,-20.0,-22.0,-13.0,-22.0,1650821545170885.0
3.0,7.0,1.0,-5.0,-14.0,7.0,1.0,19.0,1650821545171899.0
17.0,25.0,45.0,9.0,18.0,12.0,3.0,7.0,1650821545171899.0
-2.0,-39.0,29.0,61.0,39.0,16.0,10.0,24.0,1650821545192020.0
-11.0,-9.0,-16.0,-19.0,-15.0,-5.0,-5.0,-14.0,1650821545192020.0
1.0,6.0,-13.0,-14.0,-6.0,-15.0,-5.0,3.0,1650821545192951.0
-16.0,-20.0,-2.0,-28.0,-11.0,0.0,-1.0,-14.0,1650821545192951.0
11.0,30.0,48.0,31.0,4.0,-1.0,1.0,5.0,1650821545214176.0
-11.0,-17.0,-8.0,-5.0,-16.0,-15.0,-5.0,-8.0,1650821545214176.0
-1.0,-12.0,-25.0,-26.0,1.0,-8.0,-8.0,-5.0,1650821545216132.0
-1.0,3.0,-28.0,-3.0,0.0,14.0,8.0,30.0,1650821545216132.0
-11.0,6.0,2.0,3.0,-3.0,-8.0,-7.0,-37.0,1650821545229071.0
37.0,1.0,-1.0,-2.0,8.0,9.0,17.0,81.0,1650821545229071.0
-18.0,16.0,41.0,26.0,11.0,6.0,-5.0,-84.0,1650821545235120.0
-27.0,-5.0,-21.0,-4.0,7.0,1.0,3.0,30.0,1650821545235120.0
40.0,13.0,34.0,38.0,-17.0,-13.0,3.0,29.0,1650821545252168.0
1.0,5.0,-8.0,-21.0,-7.0,-9.0,-6.0,-12.0,1650821545252168.0
-5.0,-43.0,-95.0,-32.0,-5.0,2.0,-6.0,2.0,1650821545253156.0
-17.0,-3.0,-32.0,-10.0,-1.0,-6.0,-4.0,-15.0,1650821545253156.0
7.0,17.0,54.0,50.0,16.0,21.0,9.0,5.0,1650821545273999.0
-6.0,9.0,30.0,28.0,22.0,19.0,4.0,-10.0,1650821545273999.0
0.0,18.0,25.0,-21.0,-11.0,-9.0,4.0,32.0,1650821545276023.0
-12.0,-35.0,-77.0,-30.0,-15.0,-25.0,-15.0,-68.0,1650821545276023.0
-8.0,9.0,-9.0,-33.0,-16.0,-2.0,-2.0,31.0,1650821545288077.0
3.0,7.0,31.0,35.0,2.0,8.0,4.0,-5.0,1650821545288077.0
8.0,21.0,9.0,13.0,23.0,12.0,7.0,22.0,1650821545303292.0
0.0,-6.0,27.0,27.0,7.0,3.0,1.0,-4.0,1650821545303292.0
-30.0,-12.0,-32.0,-50.0,-17.0,-16.0,-12.0,-63.0,1650821545311340.0
7.0,-1.0,20.0,18.0,7.0,5.0,-4.0,-17.0,1650821545311340.0
1.0,-11.0,21.0,21.0,-2.0,5.0,8.0,41.0,1650821545313268.0
4.0,-8.0,-24.0,-43.0,-19.0,-10.0,-5.0,-11.0,1650821545313268.0
3.0,-10.0,10.0,33.0,11.0,0.0,5.0,22.0,1650821545334584.0
-7.0,2.0,-9.0,-39.0,3.0,-7.0,-3.0,12.0,1650821545334584.0
-33.0,-18.0,-13.0,11.0,-23.0,-18.0,-17.0,-34.0,1650821545335840.0
15.0,6.0,11.0,12.0,4.0,3.0,0.0,12.0,1650821545335840.0
9.0,-1.0,-23.0,-36.0,-1.0,5.0,7.0,24.0,1650821545349804.0
0.0,1.0,17.0,42.0,13.0,6.0,5.0,5.0,1650821545349804.0
16.0,13.0,41.0,7.0,16.0,12.0,10.0,6.0,1650821545355787.0
-30.0,-24.0,-38.0,-53.0,-18.0,-11.0,-7.0,10.0,1650821545355787.0
-1.0,-2.0,-10.0,-20.0,-29.0,-27.0,-10.0,-59.0,1650821545371974.0
31.0,0.0,-5.0,5.0,8.0,-6.0,-4.0,0.0,1650821545371974.0
-31.0,5.0,-1.0,4.0,2.0,28.0,4.0,6.0,1650821545372922.0
9.0,17.0,38.0,28.0,22.0,27.0,9.0,-38.0,1650821545372922.0
16.0,24.0,65.0,50.0,33.0,15.0,14.0,59.0,1650821545394583.0
-33.0,-24.0,-52.0,-24.0,-33.0,-29.0,-18.0,-62.0,1650821545394583.0
28.0,3.0,2.0,13.0,-10.0,-24.0,-8.0,15.0,1650821545395812.0
24.0,13.0,26.0,12.0,-5.0,-1.0,4.0,20.0,1650821545395812.0
-2.0,11.0,-7.0,4.0,1.0,-9.0,-3.0,17.0,1650821545408931.0
-12.0,2.0,-5.0,1.0,7.0,18.0,3.0,-4.0,1650821545408931.0
7.0,9.0,-37.0,-30.0,-6.0,1.0,-3.0,3.0,1650821545415885.0
0.0,-5.0,7.0,9.0,-12.0,-14.0,-4.0,13.0,1650821545415885.0
14.0,13.0,26.0,11.0,11.0,8.0,7.0,6.0,1650821545439175.0
4.0,-3.0,-1.0,-9.0,15.0,21.0,6.0,2.0,1650821545439175.0
-2.0,-22.0,-69.0,-40.0,-14.0,-16.0,-3.0,-4.0,1650821545441130.0
6.0,10.0,28.0,23.0,-5.0,-9.0,-5.0,1.0,1650821545441130.0
8.0,-2.0,-21.0,-18.0,-4.0,12.0,5.0,12.0,1650821545454135.0
-10.0,21.0,29.0,27.0,9.0,11.0,-1.0,16.0,1650821545454135.0
0.0,-11.0,20.0,22.0,0.0,-13.0,-2.0,0.0,1650821545456091.0
20.0,2.0,-4.0,-38.0,-1.0,-5.0,2.0,-20.0,1650821545456091.0
-12.0,-4.0,-17.0,-14.0,-19.0,-4.0,-4.0,18.0,1650821545468873.0
-12.0,-9.0,-55.0,-54.0,-6.0,1.0,0.0,-17.0,1650821545468873.0
13.0,10.0,44.0,15.0,11.0,8.0,6.0,12.0,1650821545475794.0
-5.0,-10.0,13.0,11.0,-10.0,-11.0,-1.0,-4.0,1650821545475794.0
-8.0,-12.0,15.0,16.0,7.0,-10.0,-11.0,-4.0,1650821545491936.0
22.0,17.0,35.0,17.0,12.0,16.0,9.0,48.0,1650821545491936.0
-21.0,-18.0,-20.0,-18.0,-6.0,0.0,-2.0,-1.0,1650821545492896.0
5.0,8.0,-23.0,-9.0,-1.0,-3.0,1.0,-35.0,1650821545492896.0
9.0,10.0,-4.0,-1.0,-2.0,-2.0,-3.0,24.0,1650821545514070.0
-9.0,-5.0,26.0,18.0,-3.0,-8.0,-4.0,-8.0,1650821545514070.0
23.0,-29.0,-36.0,-9.0,2.0,-4.0,-3.0,4.0,1650821545516101.0
-53.0,25.0,52.0,55.0,12.0,10.0,2.0,-3.0,1650821545516101.0
-17.0,-11.0,-84.0,-82.0,-25.0,-9.0,-6.0,-2.0,1650821545529035.0
27.0,3.0,31.0,47.0,-7.0,-12.0,-3.0,0.0,1650821545529035.0
17.0,25.0,50.0,24.0,17.0,20.0,6.0,9.0,1650821545535791.0
-32.0,-21.0,-33.0,-23.0,-15.0,-6.0,-7.0,-44.0,1650821545535791.0
4.0,4.0,0.0,8.0,-6.0,-4.0,2.0,-5.0,1650821545552042.0
-12.0,7.0,25.0,7.0,20.0,10.0,1.0,-3.0,1650821545552042.0
-6.0,10.0,32.0,36.0,6.0,2.0,-3.0,-30.0,1650821545552986.0
16.0,3.0,-6.0,4.0,-6.0,-10.0,3.0,32.0,1650821545552986.0
-4.0,-1.0,1.0,-6.0,-9.0,-8.0,-3.0,-12.0,1650821545574001.0
-11.0,-10.0,-14.0,-15.0,-19.0,-16.0,-8.0,-6.0,1650821545574001.0
17.0,16.0,13.0,11.0,5.0,13.0,8.0,5.0,1650821545575997.0
-8.0,-12.0,-25.0,-11.0,11.0,11.0,1.0,24.0,1650821545575997.0
32.0,-3.0,17.0,26.0,14.0,2.0,-1.0,-19.0,1650821545588156.0
-20.0,-7.0,-43.0,-55.0,-13.0,-8.0,-4.0,-1.0,1650821545588156.0
-12.0,11.0,-7.0,-15.0,-4.0,-5.0,-7.0,-21.0,1650821545597161.0
10.0,-13.0,-36.0,-23.0,-1.0,11.0,3.0,9.0,1650821545597161.0
1.0,10.0,72.0,59.0,12.0,7.0,4.0,14.0,1650821545611852.0
7.0,-19.0,-49.0,-56.0,-7.0,-8.0,0.0,-11.0,1650821545611852.0
-19.0,-4.0,-4.0,-14.0,-4.0,-5.0,-2.0,7.0,1650821545612848.0
52.0,21.0,48.0,65.0,14.0,7.0,-3.0,-17.0,1650821545612848.0
-14.0,-13.0,-17.0,-11.0,-16.0,-11.0,-3.0,5.0,1650821545633980.0
8.0,-10.0,-5.0,-7.0,2.0,4.0,-5.0,-8.0,1650821545633980.0
3.0,11.0,14.0,5.0,6.0,10.0,14.0,12.0,1650821545635909.0
4.0,1.0,8.0,12.0,10.0,-1.0,4.0,18.0,1650821545635909.0
-3.0,-2.0,-3.0,-6.0,6.0,13.0,4.0,2.0,1650821545648259.0
-7.0,5.0,-28.0,-10.0,-19.0,-10.0,-5.0,-1.0,1650821545648259.0
-12.0,-25.0,3.0,4.0,-16.0,-19.0,-8.0,-17.0,1650821545656900.0
3.0,-7.0,-8.0,-17.0,10.0,7.0,-7.0,11.0,1650821545656900.0
10.0,9.0,18.0,-6.0,1.0,3.0,7.0,11.0,1650821545671970.0
-26.0,-10.0,7.0,35.0,2.0,-3.0,-6.0,-76.0,1650821545671970.0
5.0,1.0,-23.0,-28.0,-8.0,-2.0,-2.0,-2.0,1650821545672902.0
-9.0,8.0,-9.0,0.0,-8.0,-9.0,-3.0,1.0,1650821545672902.0
-10.0,-20.0,-17.0,-16.0,-17.0,-6.0,-11.0,-7.0,1650821545694612.0
1.0,2.0,1.0,-12.0,3.0,-5.0,5.0,20.0,1650821545694612.0
5.0,4.0,40.0,43.0,1.0,2.0,1.0,-8.0,1650821545695802.0
6.0,4.0,33.0,30.0,22.0,25.0,7.0,-9.0,1650821545695802.0
-23.0,0.0,-7.0,10.0,20.0,11.0,4.0,16.0,1650821545716982.0
20.0,1.0,-18.0,-16.0,-10.0,-6.0,3.0,10.0,1650821545716982.0
0.0,-3.0,3.0,-8.0,-4.0,-5.0,-7.0,-18.0,1650821545717995.0
-5.0,-7.0,0.0,-11.0,-10.0,-6.0,6.0,18.0,1650821545717995.0
2.0,1.0,-5.0,-9.0,0.0,2.0,-3.0,-1.0,1650821545732013.0
-8.0,-11.0,33.0,30.0,10.0,4.0,6.0,11.0,1650821545732013.0
10.0,11.0,9.0,14.0,7.0,1.0,3.0,4.0,1650821545732963.0
-10.0,5.0,5.0,-14.0,-13.0,-11.0,-10.0,-12.0,1650821545732963.0
-9.0,-12.0,-55.0,-27.0,-5.0,1.0,4.0,13.0,1650821545754583.0
33.0,4.0,24.0,19.0,4.0,9.0,-2.0,-3.0,1650821545754583.0
-11.0,0.0,11.0,2.0,-3.0,-10.0,-2.0,-34.0,1650821545755802.0
-28.0,-13.0,-33.0,-1.0,3.0,1.0,-1.0,3.0,1650821545755802.0
8.0,-30.0,-30.0,-23.0,-7.0,-8.0,-11.0,-14.0,1650821545768258.0
1.0,28.0,4.0,14.0,5.0,-3.0,3.0,-8.0,1650821545768258.0
11.0,2.0,-6.0,-13.0,1.0,12.0,-1.0,16.0,1650821545776887.0
10.0,11.0,-38.0,-44.0,-4.0,1.0,3.0,-1.0,1650821545776887.0
-8.0,8.0,57.0,35.0,-1.0,-11.0,-3.0,-11.0,1650821545791920.0
-14.0,-6.0,-12.0,15.0,-5.0,-4.0,-7.0,3.0,1650821545791920.0
0.0,-10.0,-19.0,-26.0,-5.0,-5.0,2.0,5.0,1650821545792850.0
-1.0,4.0,23.0,30.0,2.0,-3.0,3.0,4.0,1650821545792850.0
11.0,5.0,-24.0,-14.0,8.0,15.0,2.0,-5.0,1650821545814009.0
-34.0,1.0,7.0,-7.0,0.0,4.0,2.0,3.0,1650821545814009.0
21.0,5.0,-7.0,6.0,10.0,-5.0,-3.0,9.0,1650821545815937.0
4.0,-8.0,-3.0,-9.0,-15.0,-10.0,-12.0,-5.0,1650821545815937.0
4.0,2.0,-1.0,10.0,-3.0,-5.0,4.0,5.0,1650821545827970.0
15.0,18.0,63.0,49.0,10.0,-1.0,10.0,47.0,1650821545827970.0
-17.0,-26.0,-58.0,-48.0,-12.0,2.0,-5.0,-56.0,1650821545836881.0
-11.0,-6.0,15.0,8.0,-3.0,0.0,4.0,20.0,1650821545836881.0
-1.0,8.0,25.0,18.0,4.0,7.0,5.0,2.0,1650821545851920.0
8.0,10.0,11.0,-10.0,15.0,12.0,1.0,20.0,1650821545851920.0
-2.0,1.0,10.0,34.0,4.0,-11.0,0.0,21.0,1650821545852878.0
-7.0,-9.0,-8.0,-12.0,-6.0,-6.0,-6.0,-8.0,1650821545852878.0
5.0,2.0,-25.0,-27.0,-9.0,11.0,2.0,2.0,1650821545873959.0
6.0,1.0,19.0,39.0,13.0,18.0,17.0,15.0,1650821545873959.0
-6.0,1.0,-7.0,-38.0,-5.0,-5.0,-2.0,0.0,1650821545875983.0
12.0,6.0,7.0,16.0,-4.0,-12.0,-6.0,-17.0,1650821545875983.0
-4.0,-7.0,-3.0,-6.0,-2.0,-11.0,-8.0,7.0,1650821545888284.0
-6.0,7.0,-2.0,-35.0,-20.0,-9.0,-7.0,-15.0,1650821545888284.0
1.0,2.0,20.0,33.0,7.0,8.0,3.0,7.0,1650821545896773.0
1.0,-11.0,-56.0,-33.0,0.0,4.0,1.0,10.0,1650821545896773.0
0.0,8.0,9.0,-1.0,3.0,0.0,3.0,11.0,1650821545911919.0
-6.0,-14.0,-3.0,-4.0,-7.0,-11.0,-7.0,-40.0,1650821545911919.0
-4.0,-4.0,17.0,7.0,0.0,12.0,-6.0,0.0,1650821545912877.0
3.0,-8.0,-26.0,-23.0,1.0,5.0,7.0,4.0,1650821545912877.0
-3.0,0.0,27.0,26.0,3.0,-6.0,3.0,24.0,1650821545934633.0
14.0,-18.0,-63.0,-32.0,-16.0,-12.0,-9.0,-43.0,1650821545934633.0
-7.0,7.0,25.0,16.0,7.0,-8.0,-3.0,11.0,1650821545935846.0
12.0,11.0,17.0,16.0,-1.0,-1.0,-2.0,-3.0,1650821545935846.0
-2.0,-3.0,5.0,1.0,-2.0,8.0,0.0,-5.0,1650821545947880.0
-16.0,-6.0,-7.0,-41.0,-9.0,-5.0,1.0,8.0,1650821545947880.0
23.0,30.0,60.0,29.0,10.0,9.0,3.0,-2.0,1650821545956911.0
-23.0,-47.0,-65.0,-13.0,-3.0,-5.0,-4.0,18.0,1650821545956911.0
5.0,1.0,-22.0,-33.0,-10.0,-8.0,-5.0,-31.0,1650821545971958.0
1.0,-1.0,12.0,29.0,6.0,13.0,9.0,32.0,1650821545971958.0
-2.0,-5.0,-11.0,-1.0,11.0,7.0,2.0,3.0,1650821545972909.0
4.0,16.0,28.0,-11.0,-15.0,-14.0,-8.0,-2.0,1650821545972909.0
-10.0,-9.0,5.0,39.0,-5.0,-22.0,-7.0,-19.0,1650821545994583.0
7.0,4.0,-10.0,4.0,13.0,19.0,8.0,18.0,1650821545994583.0
-10.0,-19.0,-31.0,-6.0,0.0,9.0,3.0,26.0,1650821545995841.0
5.0,13.0,12.0,17.0,7.0,5.0,1.0,-23.0,1650821545995841.0
12.0,6.0,-10.0,-19.0,0.0,5.0,8.0,32.0,1650821546017108.0
-7.0,11.0,11.0,13.0,6.0,-6.0,-2.0,-4.0,1650821546017108.0
-18.0,-2.0,9.0,5.0,-10.0,-16.0,-6.0,-6.0,1650821546018074.0
10.0,20.0,-11.0,-10.0,-2.0,1.0,-7.0,-18.0,1650821546018074.0
-20.0,1.0,4.0,8.0,-4.0,-2.0,-7.0,-24.0,1650821546032107.0
10.0,-1.0,20.0,2.0,7.0,8.0,9.0,24.0,1650821546032107.0
10.0,14.0,-16.0,-23.0,-10.0,-2.0,1.0,-4.0,1650821546033037.0
-5.0,-15.0,-8.0,-17.0,5.0,9.0,3.0,-2.0,1650821546033037.0
4.0,12.0,15.0,11.0,9.0,7.0,2.0,-7.0,1650821546054239.0
-11.0,-15.0,-18.0,-16.0,-10.0,-6.0,-10.0,-21.0,1650821546054239.0
-1.0,2.0,-7.0,-15.0,-21.0,-15.0,0.0,21.0,1650821546055806.0
-3.0,5.0,31.0,26.0,-1.0,-13.0,-5.0,-16.0,1650821546055806.0
1.0,-14.0,-31.0,-5.0,-3.0,-7.0,-4.0,31.0,1650821546077079.0
3.0,1.0,11.0,12.0,12.0,14.0,2.0,-8.0,1650821546077079.0
0.0,11.0,15.0,-1.0,2.0,2.0,-1.0,-22.0,1650821546078079.0
-9.0,-10.0,-8.0,-8.0,-12.0,8.0,1.0,1.0,1650821546078079.0
-9.0,-3.0,-9.0,-16.0,17.0,19.0,8.0,6.0,1650821546091922.0
6.0,-8.0,-1.0,16.0,3.0,-8.0,-5.0,-9.0,1650821546091922.0
-2.0,1.0,2.0,5.0,-1.0,-8.0,0.0,6.0,1650821546092879.0
-3.0,1.0,16.0,-6.0,-3.0,-11.0,-1.0,5.0,1650821546092879.0
10.0,15.0,44.0,38.0,-13.0,-9.0,1.0,-10.0,1650821546113863.0
0.0,-23.0,-74.0,-47.0,-14.0,-9.0,-6.0,2.0,1650821546113863.0
-35.0,-10.0,1.0,6.0,19.0,16.0,1.0,-25.0,1650821546115804.0
27.0,5.0,9.0,-6.0,0.0,2.0,9.0,33.0,1650821546115804.0
20.0,7.0,19.0,8.0,-1.0,3.0,3.0,-11.0,1650821546137113.0
-16.0,-16.0,6.0,-3.0,-8.0,-10.0,-7.0,-4.0,1650821546137113.0
8.0,-14.0,-27.0,-20.0,-10.0,-2.0,-1.0,15.0,1650821546138049.0
-16.0,-1.0,17.0,46.0,15.0,8.0,-3.0,-32.0,1650821546138049.0
-6.0,13.0,-8.0,-26.0,1.0,-1.0,-1.0,-1.0,1650821546152066.0
-7.0,-4.0,-9.0,-2.0,-4.0,-1.0,2.0,6.0,1650821546152066.0
21.0,-6.0,-3.0,10.0,-4.0,-10.0,-3.0,-3.0,1650821546152996.0
-20.0,-6.0,-40.0,-56.0,-6.0,10.0,-2.0,-8.0,1650821546152996.0
11.0,7.0,-1.0,0.0,3.0,-2.0,2.0,7.0,1650821546174608.0
-5.0,-6.0,6.0,7.0,-2.0,-6.0,-2.0,-2.0,1650821546174608.0
-11.0,-3.0,11.0,19.0,0.0,-6.0,-4.0,-13.0,1650821546175828.0
14.0,0.0,1.0,-15.0,12.0,23.0,10.0,11.0,1650821546175828.0
-7.0,-11.0,5.0,-4.0,-2.0,3.0,-4.0,-15.0,1650821546196860.0
-3.0,-5.0,-25.0,-10.0,-4.0,-4.0,-1.0,-4.0,1650821546196860.0
8.0,9.0,4.0,-2.0,-2.0,-3.0,8.0,7.0,1650821546197851.0
7.0,15.0,41.0,44.0,2.0,-12.0,2.0,18.0,1650821546197851.0
-9.0,-9.0,-32.0,-30.0,1.0,1.0,-5.0,-3.0,1650821546210956.0
-2.0,16.0,25.0,13.0,3.0,6.0,0.0,2.0,1650821546210956.0
13.0,2.0,-2.0,-14.0,1.0,3.0,3.0,4.0,1650821546217939.0
-21.0,-17.0,17.0,30.0,-11.0,-17.0,-9.0,-24.0,1650821546217939.0
-15.0,-13.0,-18.0,-13.0,-6.0,-4.0,-4.0,-4.0,1650821546233957.0
14.0,-4.0,-9.0,-5.0,1.0,2.0,5.0,9.0,1650821546233957.0
13.0,17.0,17.0,6.0,1.0,6.0,3.0,26.0,1650821546235873.0
0.0,13.0,25.0,-4.0,-1.0,2.0,0.0,-23.0,1650821546235873.0
-1.0,-12.0,-32.0,-14.0,-5.0,-17.0,-1.0,5.0,1650821546257108.0
14.0,12.0,17.0,9.0,-8.0,-4.0,-6.0,-13.0,1650821546257108.0
-10.0,4.0,-17.0,-6.0,16.0,25.0,3.0,12.0,1650821546258014.0
17.0,4.0,38.0,18.0,4.0,-1.0,3.0,5.0,1650821546258014.0
-10.0,-5.0,-11.0,2.0,-5.0,-13.0,-9.0,-16.0,1650821546271865.0
18.0,21.0,21.0,19.0,-4.0,-2.0,10.0,23.0,1650821546271865.0
-1.0,-4.0,-24.0,-35.0,1.0,2.0,-3.0,-9.0,1650821546278234.0
-4.0,6.0,6.0,7.0,7.0,13.0,6.0,11.0,1650821546278234.0
3.0,1.0,4.0,9.0,5.0,7.0,0.0,0.0,1650821546294295.0
-12.0,-3.0,7.0,-4.0,5.0,-3.0,-8.0,-19.0,1650821546294295.0
-9.0,-4.0,2.0,4.0,-10.0,-7.0,3.0,0.0,1650821546296222.0
4.0,-8.0,-18.0,-8.0,-8.0,-13.0,-4.0,1.0,1650821546296222.0
-4.0,2.0,-1.0,-5.0,-6.0,-2.0,2.0,14.0,1650821546317131.0
16.0,7.0,11.0,3.0,4.0,9.0,1.0,-15.0,1650821546317131.0
-4.0,-22.0,-10.0,0.0,0.0,-6.0,-4.0,-10.0,1650821546318131.0
-5.0,-13.0,-39.0,-21.0,-13.0,-11.0,-5.0,8.0,1650821546318131.0
14.0,4.0,11.0,13.0,2.0,9.0,3.0,-1.0,1650821546330923.0
-11.0,7.0,17.0,15.0,19.0,11.0,-1.0,-3.0,1650821546330923.0
-14.0,-1.0,-7.0,-13.0,-8.0,-9.0,-6.0,-9.0,1650821546338112.0
-3.0,-14.0,-14.0,3.0,-9.0,-13.0,-2.0,-1.0,1650821546338112.0
-5.0,-2.0,2.0,-1.0,-1.0,2.0,1.0,0.0,1650821546353938.0
-9.0,5.0,6.0,5.0,3.0,7.0,4.0,7.0,1650821546353938.0
9.0,-1.0,0.0,-2.0,3.0,2.0,-4.0,-2.0,1650821546355936.0
-1.0,6.0,-7.0,3.0,3.0,2.0,1.0,2.0,1650821546355936.0
-2.0,11.0,20.0,4.0,-3.0,5.0,-2.0,-4.0,1650821546377093.0
-2.0,-5.0,-15.0,-23.0,-3.0,-1.0,-1.0,0.0,1650821546377093.0
-1.0,-3.0,1.0,1.0,-6.0,-12.0,-2.0,-5.0,1650821546378034.0
0.0,3.0,2.0,4.0,2.0,0.0,-2.0,4.0,1650821546378034.0
-2.0,-1.0,-6.0,-9.0,-2.0,-4.0,-3.0,-7.0,1650821546390922.0
-4.0,-1.0,-1.0,0.0,-11.0,-6.0,0.0,1.0,1650821546390922.0
-1.0,-3.0,-8.0,10.0,2.0,-1.0,0.0,-3.0,1650821546397904.0
1.0,3.0,11.0,2.0,11.0,6.0,2.0,0.0,1650821546397904.0
3.0,-4.0,-3.0,-10.0,-11.0,7.0,2.0,-1.0,1650821546413861.0
-7.0,-2.0,0.0,6.0,10.0,-4.0,-1.0,0.0,1650821546413861.0
-1.0,0.0,0.0,-6.0,-6.0,7.0,0.0,1.0,1650821546415817.0
5.0,4.0,-2.0,3.0,13.0,9.0,2.0,1.0,1650821546415817.0
-1.0,0.0,-1.0,-9.0,0.0,-6.0,-2.0,-9.0,1650821546437086.0
-10.0,-2.0,1.0,2.0,-8.0,-6.0,-3.0,2.0,1650821546437086.0
11.0,-1.0,-2.0,8.0,3.0,-4.0,-2.0,-1.0,1650821546438086.0
-1.0,0.0,-7.0,-7.0,-6.0,-4.0,-1.0,-2.0,1650821546438086.0
-2.0,-6.0,3.0,5.0,-2.0,0.0,1.0,3.0,1650821546451119.0
-3.0,-2.0,-1.0,0.0,-3.0,0.0,-1.0,0.0,1650821546451119.0
0.0,1.0,-3.0,1.0,-1.0,6.0,0.0,-3.0,1650821546458260.0
2.0,0.0,-4.0,-10.0,-1.0,-3.0,0.0,2.0,1650821546458260.0
1.0,4.0,7.0,7.0,8.0,2.0,0.0,0.0,1650821546474011.0
2.0,-1.0,-5.0,-4.0,-2.0,-2.0,-1.0,0.0,1650821546474011.0
-4.0,0.0,3.0,1.0,-7.0,-9.0,-1.0,-2.0,1650821546476036.0
0.0,1.0,-1.0,-2.0,-6.0,3.0,-3.0,-3.0,1650821546476036.0
-1.0,0.0,-2.0,3.0,4.0,8.0,2.0,0.0,1650821546497082.0
1.0,0.0,2.0,1.0,7.0,5.0,4.0,-1.0,1650821546497082.0
0.0,2.0,2.0,5.0,4.0,-2.0,-1.0,1.0,1650821546498011.0
-2.0,0.0,0.0,-1.0,4.0,-1.0,-3.0,0.0,1650821546498011.0
-1.0,0.0,-2.0,-2.0,-7.0,-4.0,-1.0,0.0,1650821546510048.0
-2.0,-4.0,-3.0,2.0,-3.0,-2.0,-1.0,2.0,1650821546510048.0
-2.0,2.0,4.0,5.0,2.0,0.0,1.0,-2.0,1650821546519860.0
-1.0,-3.0,-8.0,-15.0,-20.0,-21.0,-5.0,-4.0,1650821546519860.0
-2.0,-2.0,-3.0,2.0,-4.0,1.0,-2.0,-2.0,1650821546535953.0
1.0,0.0,-3.0,-3.0,6.0,15.0,0.0,0.0,1650821546535953.0
0.0,-2.0,2.0,2.0,0.0,-2.0,-3.0,-1.0,1650821546536953.0
0.0,1.0,2.0,2.0,0.0,-5.0,1.0,0.0,1650821546536953.0
-2.0,0.0,-3.0,0.0,6.0,13.0,3.0,2.0,1650821546557139.0
-2.0,0.0,3.0,0.0,-1.0,2.0,3.0,1.0,1650821546557139.0
0.0,1.0,0.0,0.0,-2.0,-3.0,-1.0,-1.0,1650821546558139.0
0.0,0.0,2.0,11.0,-5.0,-7.0,-3.0,0.0,1650821546558139.0
1.0,0.0,3.0,-6.0,6.0,-2.0,-3.0,-3.0,1650821546570177.0
-1.0,-4.0,-10.0,-16.0,-4.0,1.0,0.0,-2.0,1650821546570177.0
0.0,0.0,-2.0,1.0,-8.0,0.0,0.0,-1.0,1650821546578898.0
-1.0,-1.0,2.0,0.0,7.0,5.0,1.0,-2.0,1650821546578898.0
0.0,-2.0,-2.0,12.0,2.0,-5.0,1.0,-1.0,1650821546594010.0
1.0,-1.0,2.0,2.0,4.0,-2.0,-1.0,1.0,1650821546594010.0
-1.0,-2.0,-3.0,-5.0,-9.0,-5.0,-2.0,-1.0,1650821546596033.0
-1.0,0.0,-3.0,-6.0,-4.0,-5.0,-2.0,-1.0,1650821546596033.0
0.0,1.0,1.0,5.0,10.0,9.0,0.0,-1.0,1650821546617168.0
-1.0,1.0,1.0,-4.0,-1.0,0.0,0.0,-2.0,1650821546617168.0
1.0,0.0,1.0,0.0,0.0,-1.0,3.0,0.0,1650821546618169.0
-1.0,-4.0,-6.0,-2.0,-3.0,5.0,1.0,0.0,1650821546618169.0
-1.0,-1.0,1.0,-3.0,-5.0,-20.0,-2.0,0.0,1650821546629927.0
-2.0,-1.0,-2.0,1.0,-2.0,2.0,-5.0,-1.0,1650821546629927.0
-2.0,0.0,1.0,4.0,5.0,10.0,4.0,0.0,1650821546639812.0
1.0,1.0,1.0,-2.0,0.0,0.0,-1.0,0.0,1650821546639812.0
1.0,-3.0,-2.0,-2.0,-3.0,-2.0,1.0,1.0,1650821546654612.0
-1.0,-1.0,0.0,0.0,-9.0,-10.0,-2.0,-2.0,1650821546654612.0
-2.0,-2.0,-3.0,-4.0,3.0,-4.0,-2.0,-2.0,1650821546655818.0
-1.0,1.0,1.0,0.0,8.0,19.0,1.0,0.0,1650821546655818.0
1.0,0.0,0.0,3.0,2.0,1.0,3.0,1.0,1650821546676949.0
1.0,-1.0,1.0,3.0,5.0,3.0,3.0,1.0,1650821546676949.0
0.0,1.0,-1.0,-2.0,-3.0,-2.0,0.0,0.0,1650821546677906.0
-2.0,-3.0,0.0,-3.0,-4.0,-9.0,-2.0,-1.0,1650821546677906.0
-1.0,-1.0,-1.0,-1.0,-8.0,-4.0,-4.0,-2.0,1650821546690845.0
-2.0,-2.0,-2.0,-2.0,-7.0,-6.0,-2.0,-3.0,1650821546690845.0
-2.0,-3.0,-1.0,-1.0,3.0,1.0,-1.0,-2.0,1650821546699016.0
-2.0,-1.0,0.0,0.0,1.0,2.0,1.0,-1.0,1650821546699016.0
-3.0,-1.0,-2.0,-4.0,-3.0,-1.0,-3.0,-2.0,1650821546714052.0
-2.0,-1.0,-2.0,-2.0,-4.0,-3.0,0.0,1.0,1650821546714052.0
0.0,-1.0,1.0,3.0,3.0,1.0,-1.0,0.0,1650821546716070.0
0.0,1.0,-1.0,0.0,-2.0,-10.0,-4.0,-1.0,1650821546716070.0
0.0,-1.0,-2.0,-2.0,-1.0,5.0,0.0,-1.0,1650821546737116.0
-1.0,-1.0,-2.0,-1.0,2.0,10.0,2.0,0.0,1650821546737116.0
1.0,0.0,-1.0,-1.0,-7.0,-1.0,1.0,-2.0,1650821546738115.0
1.0,-1.0,3.0,1.0,6.0,-1.0,2.0,0.0,1650821546738115.0
0.0,-1.0,0.0,1.0,5.0,-5.0,-4.0,-1.0,1650821546750839.0
0.0,1.0,1.0,1.0,0.0,-6.0,-3.0,0.0,1650821546750839.0
0.0,-2.0,-2.0,1.0,1.0,10.0,1.0,2.0,1650821546759820.0
-1.0,0.0,1.0,0.0,-2.0,4.0,2.0,0.0,1650821546759820.0
1.0,-1.0,-4.0,-1.0,-1.0,-3.0,0.0,-1.0,1650821546773930.0
-1.0,-1.0,0.0,-4.0,-3.0,-4.0,-3.0,0.0,1650821546773930.0
-2.0,3.0,1.0,-5.0,-6.0,-6.0,-4.0,0.0,1650821546775859.0
-2.0,-9.0,-14.0,-5.0,-7.0,-3.0,-1.0,-2.0,1650821546775859.0
-1.0,2.0,8.0,7.0,1.0,-1.0,0.0,-1.0,1650821546796951.0
0.0,-1.0,-1.0,0.0,4.0,-1.0,-1.0,-1.0,1650821546796951.0
1.0,0.0,2.0,1.0,-3.0,-4.0,-2.0,0.0,1650821546797951.0
-2.0,2.0,0.0,-1.0,4.0,5.0,2.0,1.0,1650821546797951.0
0.0,0.0,-5.0,-5.0,0.0,5.0,1.0,0.0,1650821546809986.0
0.0,0.0,-1.0,2.0,-4.0,-5.0,-1.0,-1.0,1650821546809986.0
-2.0,-2.0,0.0,1.0,10.0,16.0,1.0,-1.0,1650821546825060.0
0.0,0.0,-2.0,-1.0,2.0,10.0,2.0,-1.0,1650821546825060.0
-1.0,-3.0,-5.0,-9.0,-12.0,-14.0,-2.0,0.0,1650821546834136.0
-2.0,-2.0,4.0,-1.0,-13.0,-11.0,-2.0,0.0,1650821546834136.0
-1.0,0.0,1.0,5.0,-1.0,-7.0,-2.0,0.0,1650821546836133.0
1.0,2.0,5.0,6.0,6.0,10.0,3.0,2.0,1650821546836133.0
1.0,1.0,2.0,6.0,17.0,7.0,2.0,0.0,1650821546857242.0
0.0,0.0,-2.0,-5.0,0.0,-2.0,-3.0,-1.0,1650821546857242.0
-1.0,-7.0,-12.0,-8.0,-8.0,-6.0,-2.0,-1.0,1650821546858240.0
-1.0,7.0,6.0,-1.0,-7.0,-4.0,-1.0,0.0,1650821546858240.0
-4.0,-14.0,-12.0,1.0,-6.0,-6.0,0.0,-1.0,1650821546870274.0
0.0,0.0,-1.0,2.0,3.0,3.0,0.0,-1.0,1650821546870274.0
-1.0,0.0,1.0,-2.0,4.0,3.0,3.0,0.0,1650821546879891.0
0.0,1.0,2.0,0.0,-6.0,-12.0,-3.0,0.0,1650821546879891.0
0.0,2.0,1.0,-2.0,1.0,11.0,1.0,0.0,1650821546894001.0
0.0,0.0,-3.0,3.0,13.0,16.0,3.0,2.0,1650821546894001.0
0.0,-1.0,1.0,-2.0,-1.0,-5.0,-3.0,-2.0,1650821546896025.0
0.0,-1.0,-1.0,-2.0,-5.0,-9.0,-1.0,-2.0,1650821546896025.0
0.0,2.0,-2.0,-3.0,0.0,2.0,-1.0,0.0,1650821546917072.0
0.0,-1.0,4.0,0.0,-5.0,-1.0,2.0,0.0,1650821546917072.0
-1.0,2.0,4.0,4.0,0.0,-3.0,-2.0,1.0,1650821546918079.0
-2.0,-6.0,-9.0,-3.0,-3.0,-5.0,-3.0,-2.0,1650821546918079.0
0.0,1.0,1.0,-3.0,-12.0,-9.0,-1.0,-1.0,1650821546930108.0
-1.0,1.0,-1.0,-1.0,-3.0,-2.0,0.0,1.0,1650821546930108.0
-1.0,0.0,-5.0,-1.0,0.0,-3.0,-1.0,0.0,1650821546939015.0
0.0,3.0,2.0,1.0,5.0,7.0,2.0,1.0,1650821546939015.0
0.0,1.0,4.0,7.0,11.0,8.0,3.0,1.0,1650821546954135.0
0.0,-2.0,-1.0,-3.0,-1.0,-9.0,-4.0,-1.0,1650821546954135.0
-1.0,-3.0,-3.0,-1.0,-3.0,15.0,4.0,0.0,1650821546956067.0
-1.0,-2.0,0.0,1.0,0.0,1.0,0.0,0.0,1650821546956067.0
-2.0,2.0,-2.0,-6.0,1.0,-7.0,-1.0,-1.0,1650821546977113.0
-1.0,-1.0,-1.0,-4.0,-10.0,-18.0,-6.0,-1.0,1650821546977113.0
1.0,-2.0,0.0,-1.0,-5.0,-8.0,-3.0,-1.0,1650821546978115.0
2.0,0.0,-1.0,1.0,4.0,20.0,3.0,2.0,1650821546978115.0
1.0,0.0,2.0,4.0,9.0,11.0,6.0,2.0,1650821546999372.0
-1.0,-1.0,0.0,2.0,4.0,1.0,0.0,0.0,1650821546999372.0
-1.0,-3.0,-6.0,-6.0,-11.0,-16.0,-4.0,-3.0,1650821547000396.0
0.0,0.0,0.0,-5.0,-7.0,-14.0,-4.0,-1.0,1650821547000396.0
0.0,-1.0,2.0,0.0,1.0,-1.0,-3.0,0.0,1650821547013773.0
-2.0,-1.0,0.0,3.0,3.0,7.0,0.0,1.0,1650821547013773.0
-2.0,2.0,1.0,2.0,9.0,6.0,2.0,0.0,1650821547021754.0
1.0,-1.0,0.0,0.0,0.0,-3.0,-1.0,-1.0,1650821547021754.0
0.0,-1.0,-3.0,-4.0,-11.0,-15.0,-5.0,-1.0,1650821547037129.0
0.0,-1.0,-3.0,-3.0,-2.0,7.0,1.0,-1.0,1650821547037129.0
0.0,0.0,-1.0,-5.0,-6.0,-2.0,-2.0,0.0,1650821547038130.0
0.0,-2.0,2.0,1.0,3.0,0.0,0.0,0.0,1650821547038130.0
-2.0,-1.0,-7.0,-6.0,0.0,1.0,-1.0,0.0,1650821547058860.0
0.0,0.0,6.0,8.0,-1.0,1.0,2.0,0.0,1650821547058860.0
1.0,0.0,0.0,1.0,1.0,6.0,1.0,-1.0,1650821547060885.0
-1.0,-2.0,-1.0,-2.0,3.0,-2.0,0.0,0.0,1650821547060885.0
-1.0,-1.0,-2.0,0.0,-4.0,-5.0,-4.0,-2.0,1650821547073899.0
-1.0,-1.0,-4.0,-5.0,-9.0,-5.0,-1.0,-1.0,1650821547073899.0
0.0,-1.0,2.0,0.0,3.0,1.0,1.0,1.0,1650821547075827.0
0.0,-1.0,1.0,0.0,3.0,4.0,1.0,-2.0,1650821547075827.0
-1.0,-2.0,0.0,0.0,1.0,1.0,-2.0,-1.0,1650821547104614.0
-1.0,-3.0,-7.0,-2.0,-4.0,-6.0,-1.0,1.0,1650821547104614.0
-1.0,3.0,8.0,1.0,4.0,-1.0,1.0,-1.0,1650821547105555.0
1.0,-1.0,-5.0,-4.0,-2.0,-1.0,-2.0,-1.0,1650821547105555.0
-1.0,1.0,6.0,4.0,-9.0,-7.0,-2.0,-2.0,1650821547119223.0
0.0,0.0,0.0,-1.0,3.0,13.0,2.0,-2.0,1650821547119223.0
1.0,-1.0,-6.0,-5.0,2.0,0.0,-3.0,-1.0,1650821547121178.0
-1.0,-2.0,1.0,2.0,-5.0,-8.0,-2.0,-1.0,1650821547121178.0
0.0,1.0,3.0,0.0,4.0,2.0,-1.0,1.0,1650821547133185.0
-1.0,-1.0,0.0,0.0,8.0,7.0,1.0,1.0,1650821547133185.0
-1.0,1.0,-3.0,-2.0,-3.0,-3.0,0.0,0.0,1650821547140103.0
-2.0,-1.0,-3.0,-3.0,-2.0,-5.0,-1.0,1.0,1650821547140103.0
-1.0,0.0,1.0,3.0,-7.0,-9.0,-3.0,-2.0,1650821547157214.0
0.0,-1.0,-1.0,-2.0,0.0,-4.0,-3.0,-3.0,1650821547157214.0
0.0,-3.0,-1.0,1.0,4.0,8.0,1.0,1.0,1650821547158218.0
-2.0,2.0,1.0,0.0,-3.0,8.0,3.0,-1.0,1650821547158218.0
-1.0,0.0,-1.0,-2.0,-12.0,-19.0,-2.0,0.0,1650821547179471.0
1.0,1.0,-2.0,-2.0,0.0,-8.0,1.0,-1.0,1650821547179471.0
0.0,0.0,4.0,7.0,22.0,31.0,5.0,0.0,1650821547180402.0
0.0,2.0,1.0,5.0,14.0,13.0,4.0,0.0,1650821547180402.0
0.0,1.0,0.0,-2.0,-2.0,-6.0,0.0,-1.0,1650821547193432.0
-2.0,0.0,-11.0,-10.0,-16.0,-20.0,-5.0,-3.0,1650821547193432.0
-5.0,-1.0,7.0,-1.0,-18.0,-24.0,-8.0,-3.0,1650821547200415.0
-1.0,-1.0,2.0,1.0,-1.0,6.0,-1.0,0.0,1650821547200415.0
-2.0,1.0,1.0,0.0,2.0,11.0,4.0,1.0,1650821547217194.0
0.0,-2.0,0.0,2.0,8.0,0.0,-1.0,0.0,1650821547217194.0
1.0,-3.0,-6.0,-2.0,0.0,3.0,-1.0,0.0,1650821547218193.0
0.0,1.0,-1.0,-2.0,-5.0,-3.0,-2.0,0.0,1650821547218193.0
-1.0,-1.0,0.0,0.0,6.0,0.0,-1.0,0.0,1650821547239361.0
-2.0,0.0,-2.0,-3.0,4.0,8.0,2.0,1.0,1650821547239361.0
0.0,-2.0,-5.0,-5.0,-4.0,-3.0,0.0,-1.0,1650821547240291.0
0.0,-2.0,1.0,3.0,-5.0,-5.0,-3.0,-1.0,1650821547240291.0
0.0,0.0,-1.0,1.0,-4.0,-1.0,-2.0,-4.0,1650821547253320.0
-2.0,1.0,1.0,2.0,5.0,1.0,0.0,1.0,1650821547253320.0
0.0,0.0,-3.0,-4.0,-1.0,7.0,2.0,0.0,1650821547262353.0
0.0,-1.0,-3.0,-4.0,-8.0,-9.0,-3.0,-1.0,1650821547262353.0
-1.0,0.0,1.0,0.0,2.0,4.0,1.0,0.0,1650821547276440.0
-1.0,0.0,5.0,6.0,8.0,4.0,3.0,1.0,1650821547276440.0
-4.0,-2.0,-8.0,-4.0,1.0,-7.0,-3.0,0.0,1650821547278371.0
-1.0,0.0,7.0,2.0,-6.0,-3.0,-2.0,-1.0,1650821547278371.0
1.0,-2.0,-1.0,-6.0,-11.0,-6.0,-2.0,-4.0,1650821547298862.0
0.0,-2.0,0.0,-2.0,-5.0,-6.0,-5.0,-3.0,1650821547298862.0
0.0,-1.0,1.0,0.0,-4.0,-1.0,1.0,-2.0,1650821547300859.0
2.0,1.0,-4.0,1.0,12.0,7.0,2.0,1.0,1650821547300859.0
1.0,1.0,1.0,3.0,13.0,8.0,3.0,3.0,1650821547313935.0
1.0,1.0,2.0,2.0,3.0,17.0,5.0,1.0,1650821547313935.0
0.0,2.0,-2.0,-3.0,-9.0,-5.0,-1.0,-2.0,1650821547320837.0
-2.0,-4.0,-2.0,-5.0,-11.0,-19.0,-4.0,-3.0,1650821547320837.0
-2.0,-3.0,-3.0,-5.0,-7.0,-16.0,-6.0,-3.0,1650821547337149.0
-2.0,1.0,-2.0,0.0,-3.0,0.0,-2.0,0.0,1650821547337149.0
0.0,0.0,4.0,9.0,5.0,17.0,4.0,4.0,1650821547338151.0
-1.0,3.0,2.0,5.0,23.0,20.0,8.0,2.0,1650821547338151.0
0.0,3.0,0.0,3.0,8.0,4.0,1.0,3.0,1650821547359473.0
-2.0,-1.0,-4.0,-6.0,-10.0,-13.0,-5.0,-2.0,1650821547359473.0
-2.0,-2.0,0.0,-5.0,-14.0,-21.0,-7.0,-3.0,1650821547360423.0
-1.0,-1.0,-6.0,-5.0,-12.0,-6.0,-2.0,-1.0,1650821547360423.0
-2.0,-3.0,-1.0,0.0,-2.0,-3.0,0.0,-1.0,1650821547381569.0
1.0,1.0,1.0,3.0,13.0,22.0,5.0,2.0,1650821547381569.0
1.0,2.0,5.0,4.0,6.0,3.0,2.0,-1.0,1650821547383525.0
0.0,-1.0,-3.0,-5.0,-8.0,-14.0,-5.0,-2.0,1650821547383525.0
-1.0,-3.0,-4.0,-5.0,-10.0,-9.0,-2.0,-2.0,1650821547396607.0
-2.0,-2.0,-1.0,0.0,-2.0,5.0,-2.0,-1.0,1650821547396607.0
0.0,0.0,1.0,3.0,17.0,9.0,1.0,0.0,1650821547398617.0
0.0,0.0,1.0,-3.0,-8.0,-3.0,1.0,1.0,1650821547398617.0
-1.0,-1.0,2.0,2.0,-9.0,-2.0,0.0,-1.0,1650821547419638.0
1.0,-2.0,-1.0,0.0,4.0,-1.0,-1.0,0.0,1650821547419638.0
-2.0,0.0,4.0,5.0,6.0,-6.0,-3.0,-1.0,1650821547420557.0
-1.0,-1.0,-3.0,-3.0,-2.0,3.0,-1.0,-2.0,1650821547420557.0
0.0,-3.0,-1.0,-3.0,0.0,5.0,2.0,-2.0,1650821547433579.0
1.0,0.0,-1.0,0.0,-17.0,-20.0,-2.0,-3.0,1650821547433579.0
-2.0,-2.0,-4.0,-1.0,4.0,9.0,-2.0,0.0,1650821547440519.0
0.0,1.0,0.0,2.0,11.0,10.0,2.0,0.0,1650821547440519.0
-2.0,0.0,-2.0,-1.0,2.0,17.0,0.0,-1.0,1650821547456667.0
-1.0,-3.0,0.0,-1.0,-3.0,-5.0,-1.0,-2.0,1650821547456667.0
0.0,1.0,-1.0,-3.0,-8.0,-18.0,-4.0,-2.0,1650821547458692.0
-2.0,-2.0,-5.0,-7.0,-13.0,-11.0,-6.0,-3.0,1650821547458692.0
1.0,-3.0,0.0,1.0,5.0,8.0,-1.0,0.0,1650821547478874.0
0.0,0.0,2.0,3.0,5.0,4.0,2.0,-1.0,1650821547478874.0
1.0,1.0,-1.0,0.0,-14.0,-9.0,-1.0,0.0,1650821547480898.0
-1.0,1.0,-1.0,3.0,18.0,1.0,-2.0,0.0,1650821547480898.0
0.0,0.0,-3.0,-2.0,2.0,4.0,0.0,1.0,1650821547492950.0
-2.0,-1.0,-1.0,-3.0,-6.0,1.0,0.0,-3.0,1650821547492950.0
1.0,-2.0,1.0,-2.0,6.0,9.0,3.0,1.0,1650821547501929.0
1.0,0.0,-2.0,1.0,-8.0,-7.0,0.0,-2.0,1650821547501929.0
0.0,0.0,0.0,0.0,-6.0,-3.0,-1.0,-1.0,1650821547516979.0
-1.0,-2.0,4.0,5.0,3.0,2.0,-1.0,0.0,1650821547516979.0
-3.0,-1.0,-4.0,-5.0,-10.0,-9.0,-3.0,-3.0,1650821547517980.0
-1.0,-1.0,2.0,-2.0,8.0,-1.0,-2.0,0.0,1650821547517980.0
0.0,-1.0,-1.0,1.0,2.0,0.0,-2.0,-1.0,1650821547538860.0
0.0,0.0,-2.0,-1.0,-2.0,4.0,1.0,0.0,1650821547538860.0
-2.0,-2.0,0.0,0.0,-1.0,-4.0,2.0,1.0,1650821547540870.0
-1.0,0.0,0.0,1.0,3.0,7.0,1.0,0.0,1650821547540870.0
0.0,1.0,-2.0,-1.0,3.0,2.0,0.0,1.0,1650821547552891.0
-1.0,-3.0,1.0,2.0,-5.0,-14.0,-4.0,-1.0,1650821547552891.0
-1.0,-2.0,-5.0,-6.0,-12.0,-5.0,-4.0,-4.0,1650821547561800.0
0.0,-1.0,-1.0,3.0,-1.0,1.0,0.0,0.0,1650821547561800.0
0.0,-1.0,-2.0,-3.0,10.0,17.0,5.0,1.0,1650821547576826.0
1.0,1.0,0.0,0.0,-10.0,-2.0,-1.0,1.0,1650821547576826.0
1.0,1.0,0.0,4.0,18.0,5.0,3.0,0.0,1650821547578771.0
1.0,-1.0,2.0,2.0,-5.0,-6.0,-1.0,-1.0,1650821547578771.0
-2.0,-1.0,-3.0,-3.0,-3.0,-9.0,-6.0,-2.0,1650821547598912.0
0.0,1.0,-3.0,-4.0,0.0,2.0,0.0,2.0,1650821547598912.0
-1.0,-1.0,4.0,1.0,-8.0,-5.0,-3.0,-1.0,1650821547600843.0
-1.0,-1.0,-1.0,0.0,-2.0,0.0,-1.0,-2.0,1650821547600843.0
-1.0,0.0,-1.0,0.0,-4.0,-7.0,0.0,0.0,1650821547612738.0
-1.0,-2.0,-4.0,-5.0,-1.0,-8.0,-4.0,-2.0,1650821547612738.0
0.0,-1.0,-2.0,0.0,1.0,3.0,-3.0,0.0,1650821547621648.0
0.0,0.0,2.0,0.0,12.0,28.0,5.0,1.0,1650821547621648.0
-1.0,1.0,3.0,2.0,0.0,5.0,2.0,0.0,1650821547636790.0
-2.0,-2.0,-1.0,-4.0,-6.0,-11.0,0.0,0.0,1650821547636790.0
-1.0,-1.0,-2.0,-4.0,0.0,-12.0,-3.0,-3.0,1650821547638744.0
-1.0,-3.0,-3.0,-4.0,-11.0,-13.0,-4.0,-3.0,1650821547638744.0
-1.0,1.0,1.0,2.0,0.0,4.0,1.0,0.0,1650821547659942.0
0.0,1.0,-1.0,0.0,11.0,13.0,5.0,2.0,1650821547659942.0
1.0,0.0,-3.0,2.0,-5.0,-12.0,-1.0,2.0,1650821547660872.0
-1.0,2.0,3.0,3.0,-1.0,0.0,1.0,-1.0,1650821547660872.0
1.0,0.0,0.0,2.0,4.0,2.0,1.0,0.0,1650821547672951.0
0.0,0.0,-1.0,0.0,3.0,3.0,-1.0,0.0,1650821547672951.0
-2.0,1.0,-3.0,-2.0,0.0,1.0,-4.0,-3.0,1650821547681903.0
-1.0,-2.0,-4.0,-4.0,-16.0,-13.0,-1.0,1.0,1650821547681903.0
-1.0,-1.0,0.0,-2.0,-8.0,-10.0,-4.0,-2.0,1650821547697089.0
4.0,0.0,2.0,3.0,24.0,24.0,4.0,0.0,1650821547697089.0
-1.0,1.0,0.0,2.0,2.0,2.0,4.0,1.0,1650821547698036.0
-2.0,-2.0,-1.0,-1.0,-6.0,-4.0,-2.0,-3.0,1650821547698036.0
2.0,-2.0,-4.0,-4.0,-22.0,-22.0,-5.0,-2.0,1650821547719048.0
-3.0,-3.0,2.0,1.0,-5.0,-14.0,-6.0,-2.0,1650821547719048.0
2.0,-1.0,-1.0,0.0,11.0,23.0,0.0,1.0,1650821547721003.0
-1.0,0.0,0.0,-1.0,2.0,8.0,5.0,2.0,1650821547721003.0
5.0,2.0,0.0,2.0,11.0,4.0,3.0,1.0,1650821547733010.0
-1.0,0.0,-1.0,-2.0,-8.0,-10.0,-1.0,-1.0,1650821547733010.0
-1.0,-4.0,0.0,-3.0,-15.0,-12.0,-4.0,-2.0,1650821547747932.0
-1.0,0.0,-2.0,-1.0,0.0,-4.0,-4.0,-2.0,1650821547747932.0
-3.0,0.0,-3.0,-3.0,7.0,16.0,1.0,0.0,1650821547756955.0
1.0,0.0,-7.0,-6.0,-4.0,5.0,2.0,0.0,1650821547756955.0
1.0,2.0,4.0,3.0,2.0,-5.0,0.0,1.0,1650821547757961.0
-2.0,-1.0,5.0,3.0,0.0,-6.0,-2.0,1.0,1650821547757961.0
0.0,-3.0,0.0,0.0,-15.0,-9.0,-2.0,-1.0,1650821547778858.0
2.0,0.0,-3.0,1.0,8.0,3.0,0.0,0.0,1650821547778858.0
0.0,0.0,-4.0,-3.0,11.0,18.0,3.0,0.0,1650821547780885.0
1.0,1.0,-4.0,-2.0,5.0,1.0,1.0,-1.0,1650821547780885.0
-5.0,-2.0,-1.0,-4.0,-10.0,-25.0,-7.0,-2.0,1650821547792892.0
-5.0,-6.0,-4.0,-4.0,-6.0,7.0,0.0,-4.0,1650821547792892.0
0.0,-1.0,5.0,6.0,3.0,8.0,3.0,0.0,1650821547801800.0
1.0,1.0,4.0,4.0,13.0,8.0,4.0,0.0,1650821547801800.0
2.0,0.0,2.0,3.0,1.0,3.0,1.0,-1.0,1650821547817128.0
-2.0,0.0,-5.0,-9.0,-23.0,-26.0,-6.0,-1.0,1650821547817128.0
-3.0,-4.0,-3.0,1.0,2.0,-5.0,-3.0,-2.0,1650821547817833.0
0.0,-1.0,4.0,3.0,1.0,5.0,-4.0,0.0,1650821547817833.0
-4.0,-2.0,-6.0,-5.0,3.0,7.0,4.0,0.0,1650821547839084.0
1.0,1.0,4.0,4.0,1.0,2.0,0.0,0.0,1650821547839084.0
1.0,-1.0,2.0,0.0,0.0,-4.0,2.0,4.0,1650821547841018.0
-4.0,0.0,-4.0,0.0,-13.0,-11.0,-2.0,-7.0,1650821547841018.0
-1.0,-6.0,-3.0,-4.0,10.0,2.0,-5.0,-3.0,1650821547853092.0
-4.0,-5.0,-6.0,-6.0,4.0,2.0,-4.0,-1.0,1650821547853092.0
0.0,-2.0,-8.0,-12.0,-24.0,-12.0,-1.0,-1.0,1650821547862046.0
-2.0,-1.0,1.0,3.0,4.0,3.0,0.0,1.0,1650821547862046.0
7.0,3.0,4.0,4.0,14.0,20.0,5.0,-2.0,1650821547876459.0
-15.0,-1.0,1.0,0.0,9.0,5.0,6.0,1.0,1650821547876459.0
4.0,-1.0,-2.0,0.0,-5.0,-13.0,-2.0,1.0,1650821547878415.0
1.0,-1.0,-6.0,-11.0,-22.0,-23.0,-6.0,-2.0,1650821547878415.0
-2.0,0.0,2.0,5.0,1.0,2.0,-2.0,-2.0,1650821547899686.0
5.0,3.0,5.0,9.0,18.0,15.0,1.0,-1.0,1650821547899686.0
0.0,-4.0,3.0,1.0,5.0,9.0,2.0,0.0,1650821547900677.0
0.0,-2.0,-7.0,-10.0,-4.0,-5.0,-1.0,1.0,1650821547900677.0
0.0,-1.0,2.0,3.0,-10.0,-17.0,-4.0,-1.0,1650821547921959.0
1.0,3.0,7.0,2.0,-5.0,10.0,1.0,4.0,1650821547921959.0
-2.0,3.0,8.0,7.0,12.0,14.0,4.0,1.0,1650821547922903.0
4.0,-3.0,-9.0,-6.0,9.0,7.0,3.0,0.0,1650821547922903.0
-4.0,-2.0,-10.0,-5.0,-9.0,-15.0,-3.0,3.0,1650821547944608.0
-1.0,3.0,13.0,5.0,-11.0,-24.0,-8.0,-8.0,1650821547944608.0
-9.0,-8.0,-22.0,-11.0,-15.0,-6.0,-4.0,-2.0,1650821547945821.0
10.0,1.0,12.0,10.0,6.0,17.0,5.0,2.0,1650821547945821.0
9.0,2.0,10.0,14.0,39.0,35.0,9.0,30.0,1650821547958867.0
-10.0,0.0,-10.0,-5.0,1.0,4.0,0.0,-52.0,1650821547958867.0
-1.0,0.0,3.0,-7.0,-20.0,-25.0,-5.0,-2.0,1650821547960865.0
-9.0,-8.0,-14.0,-11.0,-17.0,-28.0,-8.0,-4.0,1650821547960865.0
1.0,6.0,8.0,0.0,1.0,7.0,0.0,0.0,1650821547982117.0
9.0,3.0,10.0,11.0,11.0,16.0,4.0,17.0,1650821547982117.0
-3.0,6.0,15.0,7.0,17.0,12.0,4.0,-2.0,1650821547983070.0
-1.0,-15.0,-42.0,-21.0,-13.0,-5.0,1.0,0.0,1650821547983070.0
1.0,2.0,14.0,-2.0,-9.0,-8.0,-4.0,-15.0,1650821547997062.0
-3.0,1.0,-16.0,-3.0,-3.0,-10.0,-2.0,11.0,1650821547997062.0
4.0,0.0,-10.0,-6.0,-3.0,-1.0,-2.0,-3.0,1650821547997992.0
5.0,18.0,40.0,20.0,7.0,-3.0,0.0,9.0,1650821547997992.0
0.0,-14.0,-1.0,1.0,-1.0,-3.0,0.0,20.0,1650821548019050.0
-4.0,2.0,0.0,-4.0,-13.0,2.0,1.0,-21.0,1650821548019050.0
28.0,5.0,16.0,14.0,13.0,13.0,5.0,5.0,1650821548021009.0
-31.0,-4.0,-13.0,-11.0,17.0,9.0,1.0,-5.0,1650821548021009.0
-11.0,1.0,-15.0,-9.0,-10.0,-8.0,0.0,7.0,1650821548041959.0
0.0,-1.0,3.0,-6.0,4.0,-4.0,2.0,26.0,1650821548041959.0
13.0,15.0,34.0,24.0,1.0,3.0,-3.0,-3.0,1650821548042919.0
7.0,-15.0,12.0,34.0,-7.0,-6.0,-2.0,-1.0,1650821548042919.0
24.0,2.0,-2.0,-13.0,6.0,-6.0,-10.0,-34.0,1650821548055984.0
-19.0,-5.0,-10.0,-9.0,3.0,7.0,5.0,48.0,1650821548055984.0
-12.0,-18.0,-53.0,-30.0,-17.0,-8.0,-7.0,-46.0,1650821548062967.0
-14.0,17.0,32.0,11.0,15.0,15.0,7.0,5.0,1650821548062967.0
5.0,-5.0,-11.0,-1.0,-23.0,-13.0,5.0,-28.0,1650821548078861.0
23.0,6.0,18.0,11.0,1.0,-5.0,-9.0,16.0,1650821548078861.0
13.0,-7.0,-35.0,-33.0,0.0,-1.0,-2.0,13.0,1650821548080886.0
-10.0,-9.0,-2.0,8.0,-6.0,-4.0,-7.0,-14.0,1650821548080886.0
-17.0,-1.0,23.0,13.0,1.0,3.0,3.0,-6.0,1650821548101973.0
12.0,-4.0,20.0,4.0,-1.0,-10.0,-2.0,0.0,1650821548101973.0
5.0,4.0,25.0,36.0,-2.0,6.0,-1.0,-4.0,1650821548102905.0
-5.0,21.0,-1.0,-25.0,12.0,20.0,9.0,0.0,1650821548102905.0
-26.0,-31.0,-60.0,-71.0,-19.0,-10.0,-6.0,73.0,1650821548115957.0
-4.0,-7.0,0.0,38.0,-7.0,-11.0,-5.0,-76.0,1650821548115957.0
41.0,13.0,21.0,-40.0,-11.0,-16.0,5.0,52.0,1650821548123004.0
-40.0,10.0,59.0,48.0,3.0,-9.0,-4.0,-48.0,1650821548123004.0
29.0,3.0,-1.0,30.0,38.0,38.0,-4.0,3.0,1650821548139116.0
-53.0,-33.0,-82.0,-47.0,-11.0,2.0,-1.0,19.0,1650821548139116.0
10.0,17.0,63.0,37.0,7.0,-2.0,0.0,-1.0,1650821548141068.0
15.0,-18.0,-54.0,-47.0,-26.0,-19.0,-8.0,5.0,1650821548141068.0
-5.0,18.0,28.0,13.0,-6.0,-15.0,-1.0,-17.0,1650821548161921.0
15.0,35.0,68.0,49.0,9.0,4.0,6.0,17.0,1650821548161921.0
-26.0,-31.0,-47.0,-17.0,2.0,4.0,-2.0,-8.0,1650821548162878.0
19.0,-11.0,-22.0,-27.0,-14.0,5.0,-2.0,4.0,1650821548162878.0
-11.0,23.0,54.0,40.0,19.0,10.0,3.0,-4.0,1650821548175817.0
12.0,-9.0,-14.0,0.0,3.0,0.0,2.0,9.0,1650821548175817.0
-21.0,15.0,27.0,10.0,2.0,-7.0,0.0,-28.0,1650821548182866.0
15.0,-15.0,-84.0,-60.0,-20.0,-19.0,-7.0,4.0,1650821548182866.0
21.0,12.0,46.0,-1.0,-8.0,0.0,8.0,80.0,1650821548198908.0
7.0,-4.0,-37.0,-24.0,12.0,12.0,-5.0,-50.0,1650821548198908.0
-7.0,15.0,72.0,45.0,13.0,5.0,2.0,18.0,1650821548200863.0
2.0,5.0,-26.0,1.0,5.0,-5.0,-1.0,13.0,1650821548200863.0
2.0,-60.0,-111.0,-60.0,-36.0,-8.0,-10.0,-43.0,1650821548221950.0
8.0,21.0,40.0,22.0,5.0,4.0,9.0,34.0,1650821548221950.0
-10.0,-21.0,-53.0,-6.0,0.0,-6.0,-5.0,-3.0,1650821548222982.0
24.0,36.0,102.0,66.0,20.0,10.0,3.0,8.0,1650821548222982.0
-27.0,-8.0,-52.0,-42.0,-19.0,-18.0,-3.0,-6.0,1650821548236131.0
10.0,9.0,21.0,-2.0,1.0,5.0,-5.0,-66.0,1650821548236131.0
-1.0,3.0,9.0,14.0,10.0,12.0,1.0,-8.0,1650821548250858.0
-2.0,-30.0,-58.0,-16.0,2.0,7.0,6.0,2.0,1650821548250858.0
-17.0,10.0,41.0,41.0,-7.0,-22.0,-4.0,20.0,1650821548258859.0
-8.0,-33.0,-59.0,-42.0,-21.0,-12.0,-9.0,-20.0,1650821548258859.0
-36.0,-4.0,-21.0,-10.0,12.0,17.0,-2.0,-22.0,1650821548260857.0
22.0,53.0,104.0,42.0,18.0,8.0,4.0,6.0,1650821548260857.0
-13.0,-50.0,-104.0,-61.0,-8.0,-1.0,0.0,-2.0,1650821548282951.0
25.0,13.0,43.0,27.0,2.0,-5.0,13.0,52.0,1650821548282951.0
-52.0,3.0,8.0,-7.0,-16.0,-9.0,-8.0,-12.0,1650821548284945.0
34.0,-27.0,-4.0,-1.0,2.0,8.0,11.0,21.0,1650821548284945.0
20.0,40.0,64.0,35.0,3.0,-4.0,0.0,-20.0,1650821548295950.0
4.0,15.0,16.0,6.0,-5.0,-7.0,-2.0,17.0,1650821548295950.0
-3.0,-23.0,-67.0,-21.0,-4.0,1.0,0.0,-13.0,1650821548302866.0
-11.0,3.0,3.0,12.0,21.0,18.0,-2.0,10.0,1650821548302866.0
18.0,23.0,45.0,12.0,-3.0,4.0,14.0,40.0,1650821548318950.0
-34.0,-21.0,-33.0,-16.0,3.0,-9.0,-13.0,-72.0,1650821548318950.0
66.0,29.0,43.0,23.0,12.0,9.0,8.0,35.0,1650821548320903.0
