EMG_s0,EMG_s1,EMG_s2,EMG_s3,EMG_s4,EMG_s5,EMG_s6,EMG_s7,timestamp
0.0,-2.0,-5.0,-3.0,0.0,-5.0,0.0,-1.0,1650822182711868.0
0.0,-2.0,-3.0,-1.0,3.0,-1.0,-1.0,-1.0,1650822182711868.0
-2.0,-3.0,-3.0,-2.0,-19.0,-22.0,-5.0,-1.0,1650822182711868.0
-3.0,-2.0,-4.0,-1.0,0.0,-2.0,-2.0,-2.0,1650822182711868.0
-1.0,-1.0,1.0,3.0,21.0,22.0,2.0,0.0,1650822182713906.0
-2.0,0.0,-2.0,-1.0,2.0,-10.0,0.0,-2.0,1650822182713906.0
0.0,1.0,-2.0,-1.0,-2.0,4.0,0.0,-2.0,1650822182713906.0
0.0,-2.0,2.0,5.0,-7.0,3.0,0.0,0.0,1650822182713906.0
0.0,-3.0,-1.0,-3.0,-10.0,-17.0,-2.0,-1.0,1650822182723856.0
-3.0,-1.0,-2.0,-1.0,1.0,-1.0,-1.0,-2.0,1650822182723856.0
-1.0,0.0,-2.0,-1.0,4.0,-4.0,-2.0,-1.0,1650822182727851.0
-1.0,-1.0,0.0,-2.0,-4.0,0.0,1.0,-1.0,1650822182727851.0
-2.0,0.0,-1.0,1.0,4.0,19.0,2.0,2.0,1650822182743032.0
-2.0,-1.0,-3.0,-3.0,-5.0,-8.0,-2.0,0.0,1650822182743032.0
0.0,1.0,-1.0,-4.0,-19.0,-17.0,-3.0,0.0,1650822182751015.0
-1.0,-1.0,-2.0,1.0,18.0,0.0,-1.0,-1.0,1650822182751015.0
-1.0,2.0,0.0,2.0,3.0,16.0,3.0,0.0,1650822182758992.0
0.0,0.0,1.0,1.0,-8.0,-5.0,0.0,1.0,1650822182758992.0
-5.0,-3.0,0.0,-1.0,8.0,4.0,0.0,-2.0,1650822182780908.0
5.0,-1.0,1.0,0.0,-2.0,-2.0,-2.0,-1.0,1650822182780908.0
1.0,-1.0,0.0,5.0,8.0,20.0,4.0,0.0,1650822182820857.0
-1.0,2.0,8.0,9.0,12.0,21.0,4.0,1.0,1650822182820857.0
1.0,0.0,-4.0,0.0,2.0,2.0,4.0,0.0,1650822182821866.0
1.0,-2.0,-1.0,-4.0,-5.0,-19.0,-5.0,-3.0,1650822182821866.0
-2.0,-1.0,-3.0,-6.0,-12.0,-12.0,-5.0,-3.0,1650822182822851.0
-2.0,-1.0,-3.0,-1.0,0.0,10.0,-1.0,-4.0,1650822182822851.0
1.0,1.0,2.0,3.0,1.0,-6.0,1.0,0.0,1650822182834847.0
-2.0,1.0,-1.0,0.0,5.0,0.0,0.0,1.0,1650822182834847.0
0.0,0.0,0.0,0.0,2.0,11.0,-1.0,0.0,1650822182835816.0
0.0,0.0,-3.0,-2.0,-1.0,-5.0,0.0,0.0,1650822182835816.0
0.0,0.0,2.0,1.0,9.0,12.0,1.0,-1.0,1650822182841801.0
-2.0,-2.0,1.0,1.0,-5.0,-3.0,-2.0,-3.0,1650822182841801.0
0.0,-3.0,0.0,-3.0,-12.0,-20.0,-4.0,-2.0,1650822182855829.0
-1.0,-1.0,-4.0,-6.0,-14.0,-11.0,-4.0,-1.0,1650822182855829.0
-3.0,0.0,3.0,3.0,0.0,2.0,-1.0,-3.0,1650822182862752.0
-2.0,0.0,0.0,2.0,15.0,23.0,6.0,1.0,1650822182862752.0
0.0,0.0,1.0,2.0,9.0,11.0,3.0,3.0,1650822182869791.0
-2.0,-2.0,-2.0,-2.0,-19.0,-24.0,-5.0,-1.0,1650822182869791.0
-2.0,-1.0,-2.0,-4.0,4.0,2.0,-4.0,-2.0,1650822182892922.0
-5.0,-2.0,3.0,1.0,-2.0,-5.0,-2.0,-1.0,1650822182892922.0
9.0,0.0,-2.0,1.0,2.0,1.0,1.0,0.0,1650822182893930.0
1.0,-1.0,-2.0,-2.0,-3.0,0.0,-1.0,0.0,1650822182893930.0
0.0,-1.0,-3.0,-5.0,-15.0,-22.0,-5.0,-1.0,1650822182907950.0
-1.0,-2.0,-2.0,-1.0,0.0,4.0,-2.0,0.0,1650822182907950.0
-2.0,1.0,0.0,2.0,16.0,20.0,1.0,-2.0,1650822182908882.0
1.0,-1.0,2.0,1.0,2.0,3.0,4.0,0.0,1650822182908882.0
1.0,-1.0,-3.0,-1.0,-7.0,3.0,2.0,1.0,1650822182930933.0
-1.0,1.0,-1.0,0.0,5.0,0.0,-1.0,0.0,1650822182930933.0
-3.0,-2.0,3.0,0.0,-11.0,-33.0,-6.0,-1.0,1650822182931906.0
-1.0,-1.0,0.0,-1.0,1.0,13.0,1.0,-1.0,1650822182931906.0
-2.0,-1.0,0.0,0.0,12.0,17.0,2.0,0.0,1650822182952972.0
4.0,2.0,0.0,-1.0,-2.0,2.0,1.0,0.0,1650822182952972.0
-1.0,-1.0,-4.0,-5.0,-3.0,-10.0,-2.0,1.0,1650822182953947.0
-1.0,1.0,1.0,-1.0,-11.0,-28.0,-5.0,-1.0,1650822182953947.0
-3.0,-2.0,-1.0,-1.0,-11.0,-3.0,-3.0,0.0,1650822182968419.0
0.0,-1.0,-4.0,-2.0,1.0,11.0,-1.0,-1.0,1650822182968419.0
-3.0,0.0,-1.0,0.0,7.0,0.0,2.0,0.0,1650822182969417.0
-1.0,1.0,0.0,3.0,16.0,22.0,2.0,2.0,1650822182969417.0
1.0,0.0,1.0,1.0,4.0,12.0,5.0,0.0,1650822182990521.0
2.0,2.0,5.0,6.0,4.0,-1.0,5.0,3.0,1650822182990521.0
-1.0,-1.0,-3.0,-7.0,-16.0,-19.0,-5.0,-1.0,1650822182991491.0
-3.0,-3.0,-6.0,-9.0,-8.0,-7.0,-5.0,-3.0,1650822182991491.0
-3.0,-2.0,-3.0,-4.0,-8.0,-4.0,-2.0,-2.0,1650822183013584.0
0.0,-1.0,-3.0,-2.0,12.0,5.0,-2.0,-2.0,1650822183013584.0
-3.0,2.0,1.0,3.0,-2.0,8.0,2.0,0.0,1650822183013584.0
-4.0,0.0,-1.0,0.0,6.0,-4.0,0.0,1.0,1650822183013584.0
2.0,0.0,0.0,0.0,-3.0,0.0,-2.0,-1.0,1650822183028618.0
-2.0,1.0,1.0,0.0,-11.0,-9.0,-3.0,-1.0,1650822183028618.0
0.0,0.0,-2.0,-2.0,-11.0,0.0,-1.0,-3.0,1650822183028618.0
0.0,-2.0,1.0,1.0,10.0,12.0,4.0,-2.0,1650822183028618.0
0.0,0.0,2.0,4.0,20.0,15.0,6.0,2.0,1650822183051852.0
-1.0,-2.0,-1.0,0.0,-4.0,-7.0,1.0,0.0,1650822183051852.0
-3.0,-2.0,-2.0,-3.0,-6.0,-32.0,-4.0,-3.0,1650822183052854.0
0.0,-1.0,-3.0,-4.0,-18.0,4.0,-2.0,-2.0,1650822183052854.0
-2.0,0.0,2.0,2.0,12.0,16.0,1.0,-1.0,1650822183072873.0
0.0,2.0,-4.0,-3.0,3.0,3.0,1.0,1.0,1650822183072873.0
1.0,-1.0,3.0,4.0,6.0,6.0,1.0,1.0,1650822183073804.0
0.0,-1.0,-2.0,-1.0,-8.0,-17.0,-3.0,0.0,1650822183073804.0
-1.0,-1.0,-2.0,-2.0,-13.0,-19.0,-7.0,-1.0,1650822183088227.0
-3.0,-1.0,1.0,3.0,1.0,8.0,0.0,-2.0,1650822183088227.0
0.0,-2.0,-3.0,-1.0,5.0,10.0,1.0,0.0,1650822183089185.0
0.0,0.0,-1.0,-3.0,1.0,-5.0,0.0,0.0,1650822183089185.0
-1.0,-2.0,-1.0,-2.0,-3.0,-3.0,-3.0,-2.0,1650822183110431.0
-1.0,0.0,-1.0,-1.0,0.0,1.0,0.0,-1.0,1650822183110431.0
1.0,2.0,3.0,6.0,12.0,16.0,4.0,2.0,1650822183111367.0
2.0,0.0,2.0,-1.0,0.0,-12.0,-1.0,1.0,1650822183111367.0
0.0,-1.0,-4.0,-4.0,-14.0,10.0,1.0,-1.0,1650822183132935.0
-3.0,-3.0,-3.0,1.0,9.0,1.0,2.0,-1.0,1650822183132935.0
0.0,0.0,4.0,1.0,0.0,1.0,-3.0,-1.0,1650822183133865.0
-1.0,-1.0,-2.0,-4.0,-2.0,-6.0,-2.0,-1.0,1650822183133865.0
-1.0,0.0,-5.0,-6.0,-12.0,-19.0,-5.0,-2.0,1650822183148576.0
0.0,0.0,3.0,0.0,-5.0,-2.0,-2.0,-1.0,1650822183148576.0
-7.0,1.0,2.0,4.0,5.0,12.0,3.0,1.0,1650822183148576.0
8.0,2.0,-1.0,1.0,0.0,0.0,1.0,0.0,1650822183148576.0
-1.0,-1.0,2.0,3.0,-3.0,-12.0,-1.0,0.0,1650822183170921.0
-1.0,-1.0,-3.0,-3.0,0.0,3.0,-1.0,1.0,1650822183170921.0
-3.0,0.0,-3.0,-3.0,4.0,8.0,1.0,-2.0,1650822183171880.0
-2.0,0.0,1.0,3.0,0.0,-1.0,-1.0,1.0,1650822183171880.0
-2.0,-2.0,1.0,1.0,2.0,-6.0,-1.0,0.0,1650822183193571.0
2.0,0.0,1.0,0.0,-4.0,-5.0,-3.0,-1.0,1650822183193571.0
1.0,-1.0,-1.0,0.0,-1.0,9.0,0.0,0.0,1650822183193926.0
-3.0,0.0,-3.0,0.0,-4.0,2.0,1.0,1.0,1650822183193926.0
1.0,0.0,1.0,2.0,14.0,9.0,0.0,0.0,1650822183208039.0
-1.0,0.0,1.0,0.0,-9.0,-5.0,1.0,0.0,1650822183208039.0
0.0,0.0,-3.0,-3.0,2.0,-10.0,-2.0,-2.0,1650822183209039.0
-3.0,0.0,0.0,-1.0,0.0,2.0,-5.0,-2.0,1650822183209039.0
-3.0,0.0,0.0,1.0,-3.0,-9.0,-1.0,0.0,1650822183231049.0
-1.0,-2.0,-6.0,-5.0,0.0,2.0,-1.0,0.0,1650822183231049.0
1.0,0.0,0.0,0.0,-10.0,-10.0,1.0,1.0,1650822183231049.0
-2.0,-2.0,-1.0,0.0,0.0,6.0,0.0,-1.0,1650822183231049.0
-1.0,-2.0,1.0,-3.0,-2.0,-5.0,-5.0,-2.0,1650822183253575.0
-1.0,-1.0,-2.0,-2.0,-6.0,-7.0,-5.0,-1.0,1650822183253575.0
2.0,0.0,-2.0,-1.0,3.0,13.0,3.0,2.0,1650822183254148.0
0.0,0.0,3.0,2.0,13.0,8.0,4.0,2.0,1650822183254148.0
-2.0,1.0,0.0,3.0,5.0,7.0,0.0,0.0,1650822183268297.0
0.0,-1.0,-3.0,-4.0,-4.0,0.0,-1.0,-2.0,1650822183268297.0
0.0,-1.0,-3.0,-1.0,-6.0,-16.0,-6.0,-1.0,1650822183269229.0
-2.0,-1.0,1.0,4.0,4.0,4.0,-2.0,-2.0,1650822183269229.0
0.0,0.0,-2.0,-4.0,-1.0,1.0,4.0,0.0,1650822183290861.0
-2.0,-1.0,0.0,-2.0,-21.0,-15.0,-3.0,-2.0,1650822183290861.0
-1.0,-2.0,-2.0,-1.0,23.0,21.0,-1.0,-2.0,1650822183291882.0
-2.0,-1.0,1.0,1.0,6.0,1.0,-1.0,0.0,1650822183291882.0
1.0,0.0,1.0,2.0,-6.0,-6.0,-1.0,1.0,1650822183313605.0
-2.0,0.0,-1.0,-1.0,-13.0,-7.0,-1.0,-1.0,1650822183313605.0
-3.0,-1.0,0.0,-1.0,-6.0,-3.0,0.0,-1.0,1650822183313605.0
0.0,-2.0,-3.0,-1.0,5.0,3.0,2.0,0.0,1650822183313605.0
-1.0,0.0,0.0,0.0,-3.0,2.0,-2.0,-2.0,1650822183328570.0
1.0,-2.0,3.0,2.0,1.0,-5.0,-1.0,-1.0,1650822183328570.0
-2.0,-1.0,1.0,1.0,-7.0,4.0,1.0,0.0,1650822183328780.0
0.0,2.0,1.0,3.0,19.0,20.0,4.0,1.0,1650822183328780.0
1.0,-1.0,-3.0,-3.0,-11.0,-8.0,0.0,-1.0,1650822183350976.0
0.0,0.0,-5.0,-5.0,-5.0,-26.0,-7.0,-1.0,1650822183350976.0
-1.0,-2.0,2.0,-2.0,-3.0,-1.0,-4.0,-2.0,1650822183351912.0
0.0,0.0,3.0,8.0,9.0,23.0,2.0,1.0,1650822183351912.0
2.0,0.0,-3.0,-4.0,1.0,-7.0,2.0,1.0,1650822183373604.0
0.0,-2.0,-1.0,0.0,4.0,0.0,-1.0,-1.0,1650822183373604.0
0.0,0.0,-4.0,-6.0,-16.0,-11.0,-3.0,-2.0,1650822183373604.0
-1.0,-1.0,-1.0,-2.0,-13.0,-14.0,-3.0,-2.0,1650822183373604.0
0.0,0.0,2.0,4.0,17.0,19.0,5.0,1.0,1650822183388567.0
2.0,3.0,2.0,2.0,4.0,15.0,2.0,0.0,1650822183388567.0
0.0,-1.0,-1.0,2.0,3.0,-11.0,0.0,2.0,1650822183388567.0
0.0,0.0,-3.0,-5.0,-10.0,-10.0,-4.0,-2.0,1650822183388567.0
-4.0,-2.0,-2.0,-4.0,-13.0,-13.0,-5.0,-3.0,1650822183410854.0
-2.0,-3.0,0.0,-3.0,5.0,5.0,-1.0,-1.0,1650822183410854.0
0.0,1.0,-4.0,-3.0,-1.0,10.0,0.0,0.0,1650822183411812.0
-1.0,-1.0,6.0,6.0,6.0,5.0,0.0,-2.0,1650822183411812.0
1.0,1.0,0.0,3.0,13.0,8.0,0.0,0.0,1650822183433604.0
-1.0,1.0,3.0,3.0,6.0,17.0,8.0,1.0,1650822183433604.0
4.0,1.0,1.0,2.0,4.0,6.0,3.0,1.0,1650822183433604.0
0.0,-2.0,-2.0,-4.0,-9.0,-17.0,-2.0,-1.0,1650822183433604.0
-1.0,0.0,-3.0,-7.0,-23.0,-27.0,-8.0,-4.0,1650822183447921.0
-1.0,-2.0,-1.0,0.0,7.0,0.0,-6.0,-3.0,1650822183447921.0
-1.0,0.0,-1.0,-1.0,-7.0,-2.0,-3.0,0.0,1650822183454872.0
0.0,0.0,-1.0,-1.0,3.0,-6.0,1.0,-1.0,1650822183454872.0
-2.0,0.0,1.0,2.0,10.0,26.0,2.0,0.0,1650822183470898.0
-1.0,0.0,-3.0,-2.0,-8.0,-13.0,0.0,2.0,1650822183470898.0
1.0,0.0,1.0,0.0,5.0,3.0,1.0,-2.0,1650822183471829.0
-2.0,-1.0,-4.0,-1.0,-11.0,-4.0,-6.0,-2.0,1650822183471829.0
0.0,0.0,-2.0,2.0,1.0,1.0,2.0,-1.0,1650822183492983.0
1.0,1.0,1.0,2.0,12.0,14.0,4.0,2.0,1650822183492983.0
-1.0,-2.0,0.0,-2.0,-1.0,-3.0,0.0,-1.0,1650822183493953.0
-1.0,-1.0,-2.0,-5.0,-15.0,-19.0,-4.0,-2.0,1650822183493953.0
-1.0,-1.0,-3.0,-6.0,-14.0,-16.0,-3.0,-1.0,1650822183508022.0
0.0,1.0,2.0,4.0,15.0,14.0,-1.0,-1.0,1650822183508022.0
-1.0,-2.0,-2.0,1.0,1.0,-4.0,-2.0,-1.0,1650822183515127.0
1.0,1.0,-1.0,-1.0,0.0,7.0,3.0,0.0,1650822183515127.0
0.0,-3.0,-4.0,-5.0,0.0,2.0,2.0,2.0,1650822183530270.0
-2.0,-2.0,1.0,-1.0,-2.0,-5.0,2.0,0.0,1650822183530270.0
-2.0,0.0,0.0,-1.0,0.0,-5.0,-2.0,-1.0,1650822183531202.0
0.0,0.0,-2.0,-2.0,-2.0,-8.0,-2.0,0.0,1650822183531202.0
0.0,0.0,3.0,3.0,1.0,6.0,0.0,0.0,1650822183553570.0
0.0,-1.0,-1.0,-3.0,-9.0,8.0,4.0,1.0,1650822183553570.0
0.0,1.0,-1.0,3.0,12.0,-6.0,-3.0,-1.0,1650822183553871.0
-1.0,-1.0,-4.0,-1.0,0.0,5.0,0.0,2.0,1650822183553871.0
0.0,-1.0,6.0,3.0,-1.0,3.0,-1.0,-2.0,1650822183567920.0
-1.0,-2.0,2.0,1.0,8.0,-1.0,-2.0,-1.0,1650822183567920.0
-3.0,0.0,-3.0,-5.0,-15.0,-6.0,-2.0,-1.0,1650822183574807.0
-1.0,1.0,-1.0,1.0,-3.0,-5.0,-1.0,0.0,1650822183574807.0
-1.0,-2.0,-4.0,-3.0,-5.0,-9.0,-3.0,-1.0,1650822183590925.0
1.0,-1.0,-1.0,-3.0,-2.0,1.0,-3.0,-3.0,1650822183590925.0
-1.0,0.0,-3.0,-6.0,-21.0,-19.0,-4.0,-1.0,1650822183591891.0
-1.0,1.0,2.0,3.0,20.0,34.0,7.0,1.0,1650822183591891.0
1.0,1.0,1.0,6.0,13.0,19.0,8.0,3.0,1650822183613632.0
1.0,0.0,-1.0,3.0,4.0,-6.0,2.0,1.0,1650822183613632.0
1.0,-2.0,-1.0,-4.0,-6.0,-11.0,-3.0,-1.0,1650822183613632.0
-1.0,-3.0,1.0,-3.0,-10.0,-14.0,-6.0,-3.0,1650822183613632.0
-1.0,-1.0,-2.0,-3.0,4.0,6.0,-1.0,-1.0,1650822183636003.0
-2.0,0.0,-3.0,-2.0,-7.0,-2.0,-1.0,0.0,1650822183636003.0
0.0,-2.0,-1.0,1.0,3.0,2.0,2.0,0.0,1650822183636939.0
0.0,-1.0,-1.0,0.0,1.0,-14.0,-2.0,1.0,1650822183636939.0
-1.0,0.0,3.0,1.0,3.0,8.0,0.0,-1.0,1650822183650927.0
0.0,-1.0,-5.0,-7.0,-14.0,-8.0,-5.0,-2.0,1650822183650927.0
-1.0,0.0,1.0,0.0,-3.0,2.0,0.0,-1.0,1650822183651905.0
1.0,1.0,4.0,4.0,7.0,15.0,3.0,2.0,1650822183651905.0
0.0,2.0,0.0,4.0,16.0,1.0,3.0,1.0,1650822183672933.0
-1.0,1.0,1.0,1.0,-6.0,-6.0,-4.0,0.0,1650822183672933.0
-2.0,-1.0,1.0,-1.0,-3.0,-4.0,-1.0,0.0,1650822183673865.0
0.0,1.0,-2.0,-1.0,-1.0,9.0,1.0,-2.0,1650822183673865.0
-1.0,-2.0,-3.0,-5.0,-17.0,-23.0,-6.0,-2.0,1650822183688827.0
-1.0,0.0,1.0,-1.0,7.0,5.0,-2.0,-1.0,1650822183688827.0
-1.0,-2.0,2.0,7.0,11.0,26.0,6.0,1.0,1650822183694879.0
1.0,0.0,-2.0,0.0,5.0,-9.0,1.0,1.0,1650822183694879.0
0.0,-1.0,-4.0,-6.0,-7.0,-7.0,-4.0,0.0,1650822183710992.0
-1.0,-2.0,1.0,0.0,-16.0,-21.0,-4.0,-1.0,1650822183710992.0
0.0,0.0,1.0,1.0,10.0,20.0,2.0,0.0,1650822183711934.0
0.0,-1.0,2.0,2.0,7.0,14.0,4.0,-1.0,1650822183711934.0
-1.0,2.0,1.0,3.0,0.0,-9.0,1.0,0.0,1650822183733631.0
-1.0,-1.0,-3.0,-3.0,-7.0,-11.0,-4.0,-1.0,1650822183733631.0
1.0,-1.0,-6.0,-8.0,-12.0,-18.0,-6.0,-1.0,1650822183733631.0
0.0,0.0,0.0,3.0,-7.0,-1.0,-3.0,-1.0,1650822183733631.0
0.0,0.0,2.0,4.0,16.0,18.0,3.0,1.0,1650822183747922.0
1.0,0.0,1.0,4.0,15.0,15.0,7.0,1.0,1650822183747922.0
-1.0,-1.0,-3.0,-3.0,-25.0,-25.0,-4.0,-2.0,1650822183754871.0
0.0,-3.0,-4.0,-6.0,8.0,11.0,-5.0,-2.0,1650822183754871.0
0.0,-1.0,1.0,2.0,-1.0,4.0,0.0,0.0,1650822183770918.0
0.0,-1.0,2.0,4.0,10.0,7.0,4.0,1.0,1650822183770918.0
1.0,-2.0,-2.0,-2.0,-6.0,-2.0,1.0,-1.0,1650822183771875.0
-2.0,-1.0,-2.0,-5.0,-10.0,-24.0,-7.0,-4.0,1650822183771875.0
-1.0,0.0,-2.0,2.0,1.0,-2.0,-2.0,0.0,1650822183793635.0
1.0,1.0,0.0,2.0,14.0,22.0,4.0,1.0,1650822183793635.0
0.0,-2.0,-1.0,2.0,-4.0,-5.0,1.0,-1.0,1650822183793635.0
-3.0,-1.0,-1.0,-4.0,-7.0,-7.0,-3.0,-1.0,1650822183793635.0
-2.0,-2.0,0.0,-3.0,-1.0,12.0,0.0,-1.0,1650822183815999.0
-1.0,0.0,-2.0,-1.0,-7.0,-21.0,-2.0,-2.0,1650822183815999.0
-1.0,1.0,0.0,1.0,4.0,3.0,-1.0,-1.0,1650822183816930.0
-2.0,-2.0,-2.0,-3.0,-6.0,0.0,-1.0,-1.0,1650822183816930.0
0.0,-1.0,1.0,-2.0,5.0,6.0,1.0,0.0,1650822183838874.0
0.0,0.0,-1.0,2.0,-2.0,7.0,1.0,1.0,1650822183838874.0
0.0,-1.0,0.0,1.0,2.0,0.0,1.0,-1.0,1650822183839874.0
-2.0,-1.0,0.0,2.0,11.0,-2.0,1.0,1.0,1650822183839874.0
-1.0,1.0,0.0,0.0,-11.0,-1.0,-3.0,0.0,1650822183861853.0
0.0,0.0,1.0,-2.0,-3.0,0.0,-1.0,-2.0,1650822183861853.0
0.0,0.0,0.0,1.0,5.0,8.0,0.0,1.0,1650822183861853.0
1.0,-1.0,0.0,-1.0,-15.0,-13.0,1.0,0.0,1650822183861853.0
-1.0,-2.0,-3.0,-1.0,20.0,2.0,-3.0,-1.0,1650822183875925.0
-2.0,-2.0,-1.0,-1.0,-6.0,6.0,2.0,0.0,1650822183875925.0
-1.0,0.0,0.0,2.0,5.0,5.0,0.0,1.0,1650822183876896.0
-1.0,0.0,-4.0,-3.0,-8.0,-6.0,-1.0,-1.0,1650822183876896.0
-1.0,-1.0,-1.0,-5.0,-8.0,-8.0,-2.0,-2.0,1650822183898927.0
-1.0,0.0,1.0,-1.0,-9.0,-23.0,-7.0,-2.0,1650822183898927.0
-2.0,0.0,0.0,-2.0,-1.0,-1.0,-3.0,0.0,1650822183899888.0
0.0,2.0,1.0,3.0,5.0,20.0,2.0,0.0,1650822183899888.0
1.0,1.0,0.0,1.0,6.0,18.0,3.0,2.0,1650822183912889.0
1.0,0.0,-1.0,1.0,9.0,2.0,3.0,2.0,1650822183912889.0
-1.0,0.0,2.0,2.0,4.0,-3.0,-1.0,1.0,1650822183913821.0
0.0,-2.0,-4.0,-5.0,-14.0,-20.0,-4.0,-2.0,1650822183913821.0
-3.0,-3.0,-4.0,-8.0,-32.0,-30.0,-8.0,-2.0,1650822183936106.0
-2.0,-3.0,0.0,1.0,7.0,9.0,-1.0,-1.0,1650822183936106.0
1.0,0.0,0.0,4.0,16.0,25.0,6.0,1.0,1650822183936106.0
2.0,2.0,2.0,7.0,13.0,12.0,6.0,1.0,1650822183936106.0
0.0,0.0,2.0,-2.0,-20.0,-33.0,-6.0,-1.0,1650822183966846.0
-1.0,-1.0,-4.0,-5.0,-8.0,-2.0,-4.0,-4.0,1650822183966846.0
-1.0,-3.0,0.0,0.0,6.0,18.0,2.0,-1.0,1650822183966846.0
0.0,2.0,0.0,1.0,3.0,1.0,2.0,1.0,1650822183966846.0
1.0,0.0,2.0,2.0,-1.0,-12.0,-1.0,1.0,1650822183972808.0
0.0,-1.0,-4.0,-5.0,-9.0,-6.0,-1.0,-1.0,1650822183972808.0
0.0,0.0,-1.0,-1.0,-1.0,-4.0,-2.0,-2.0,1650822183980830.0
-1.0,1.0,1.0,3.0,0.0,2.0,0.0,-1.0,1650822183980830.0
1.0,-1.0,0.0,5.0,0.0,2.0,2.0,0.0,1650822183996075.0
-3.0,-2.0,-10.0,-18.0,-6.0,4.0,-2.0,0.0,1650822183996075.0
0.0,0.0,-2.0,-2.0,4.0,3.0,1.0,4.0,1650822183996075.0
-1.0,-2.0,0.0,-3.0,-7.0,-22.0,-2.0,-2.0,1650822183996075.0
-1.0,3.0,10.0,18.0,-4.0,-1.0,0.0,0.0,1650822184018874.0
-5.0,-1.0,-3.0,10.0,24.0,34.0,3.0,-2.0,1650822184018874.0
10.0,8.0,-14.0,-39.0,-2.0,10.0,3.0,1.0,1650822184019901.0
-8.0,-15.0,-5.0,-2.0,0.0,-13.0,0.0,-4.0,1650822184019901.0
-7.0,-11.0,-5.0,-6.0,-16.0,-9.0,-2.0,-4.0,1650822184032905.0
-7.0,-9.0,3.0,9.0,-10.0,-17.0,-5.0,-6.0,1650822184032905.0
-2.0,-1.0,2.0,9.0,5.0,5.0,-2.0,2.0,1650822184040884.0
22.0,38.0,27.0,27.0,17.0,14.0,6.0,4.0,1650822184040884.0
7.0,26.0,-8.0,-8.0,7.0,1.0,1.0,4.0,1650822184055843.0
-10.0,-43.0,-13.0,-14.0,-15.0,-11.0,0.0,-9.0,1650822184055843.0
-15.0,-11.0,0.0,3.0,-3.0,-6.0,-6.0,-16.0,1650822184056799.0
1.0,-18.0,-12.0,-13.0,-5.0,1.0,10.0,9.0,1650822184056799.0
18.0,28.0,11.0,15.0,8.0,7.0,-13.0,15.0,1650822184078859.0
55.0,86.0,33.0,14.0,10.0,11.0,21.0,46.0,1650822184078859.0
-25.0,-90.0,-32.0,-11.0,-4.0,-4.0,1.0,-22.0,1650822184079859.0
-27.0,-43.0,-26.0,-27.0,-21.0,-18.0,-37.0,16.0,1650822184079859.0
12.0,37.0,10.0,6.0,16.0,12.0,30.0,-6.0,1650822184092904.0
-8.0,-42.0,-10.0,-8.0,-8.0,-12.0,-24.0,-18.0,1650822184092904.0
-34.0,6.0,24.0,23.0,6.0,-1.0,-31.0,-37.0,1650822184107935.0
9.0,-9.0,22.0,1.0,-4.0,4.0,17.0,22.0,1650822184107935.0
60.0,50.0,12.0,-9.0,-10.0,-18.0,-18.0,-17.0,1650822184115845.0
26.0,78.0,12.0,1.0,-5.0,12.0,-1.0,2.0,1650822184115845.0
8.0,-18.0,-47.0,-17.0,5.0,8.0,39.0,55.0,1650822184116870.0
-12.0,85.0,36.0,23.0,11.0,-8.0,11.0,-2.0,1650822184116870.0
-106.0,-128.0,-51.0,-25.0,-15.0,-6.0,-25.0,-59.0,1650822184139193.0
-75.0,39.0,39.0,39.0,24.0,31.0,20.0,25.0,1650822184139193.0
85.0,116.0,10.0,21.0,-8.0,-12.0,5.0,19.0,1650822184139193.0
34.0,-5.0,-23.0,-28.0,11.0,16.0,12.0,11.0,1650822184139193.0
17.0,-11.0,-5.0,-7.0,-22.0,-25.0,24.0,127.0,1650822184152159.0
-53.0,-54.0,-47.0,-19.0,-20.0,-26.0,-31.0,-128.0,1650822184152159.0
24.0,39.0,23.0,30.0,15.0,14.0,-11.0,63.0,1650822184161207.0
-32.0,31.0,19.0,32.0,19.0,24.0,-8.0,-89.0,1650822184161207.0
-3.0,-70.0,-6.0,4.0,19.0,12.0,15.0,21.0,1650822184176105.0
-48.0,-128.0,-15.0,-8.0,-7.0,-17.0,0.0,-10.0,1650822184176105.0
0.0,58.0,55.0,-38.0,-40.0,-31.0,-26.0,-50.0,1650822184176105.0
72.0,93.0,60.0,8.0,-3.0,12.0,-1.0,-15.0,1650822184176105.0
43.0,79.0,-38.0,-2.0,47.0,55.0,24.0,36.0,1650822184199218.0
19.0,6.0,3.0,2.0,9.0,6.0,36.0,109.0,1650822184199218.0
-78.0,-55.0,-74.0,-13.0,-25.0,-33.0,-15.0,-68.0,1650822184199218.0
-60.0,-22.0,-3.0,7.0,-11.0,-22.0,-22.0,10.0,1650822184199218.0
46.0,32.0,32.0,-8.0,-15.0,-8.0,-28.0,-52.0,1650822184212160.0
56.0,25.0,0.0,-8.0,-2.0,-8.0,-6.0,-19.0,1650822184212160.0
30.0,-5.0,18.0,9.0,11.0,18.0,44.0,59.0,1650822184220161.0
-17.0,-39.0,-17.0,-2.0,8.0,16.0,13.0,39.0,1650822184220161.0
-3.0,21.0,-2.0,14.0,-6.0,-15.0,-6.0,-17.0,1650822184243955.0
9.0,-17.0,-18.0,7.0,19.0,8.0,-23.0,-46.0,1650822184243955.0
-32.0,-43.0,-26.0,-11.0,-5.0,-9.0,-26.0,-24.0,1650822184244886.0
12.0,11.0,7.0,-14.0,-3.0,-9.0,11.0,24.0,1650822184244886.0
-25.0,5.0,17.0,6.0,9.0,11.0,1.0,-3.0,1650822184258873.0
1.0,12.0,-26.0,-23.0,-31.0,-30.0,-10.0,-17.0,1650822184258873.0
-21.0,-32.0,3.0,1.0,2.0,-2.0,-13.0,-18.0,1650822184259873.0
0.0,3.0,11.0,13.0,7.0,20.0,-7.0,-15.0,1650822184259873.0
-1.0,-10.0,24.0,1.0,2.0,-6.0,23.0,49.0,1650822184272981.0
19.0,14.0,17.0,3.0,-10.0,-11.0,-12.0,24.0,1650822184272981.0
15.0,33.0,-7.0,-1.0,3.0,-7.0,-1.0,-49.0,1650822184281028.0
-8.0,-22.0,-33.0,-10.0,-12.0,-10.0,-1.0,19.0,1650822184281028.0
-51.0,-37.0,18.0,5.0,-2.0,26.0,7.0,-6.0,1650822184296103.0
12.0,18.0,-3.0,-10.0,15.0,11.0,5.0,-5.0,1650822184296103.0
-7.0,15.0,28.0,13.0,6.0,-7.0,5.0,22.0,1650822184296103.0
-24.0,-18.0,-24.0,-11.0,5.0,0.0,-14.0,-30.0,1650822184296103.0
33.0,-18.0,3.0,2.0,-10.0,-19.0,-15.0,-18.0,1650822184319356.0
29.0,52.0,31.0,11.0,-9.0,4.0,34.0,66.0,1650822184319356.0
3.0,-43.0,-15.0,-22.0,-8.0,16.0,-1.0,-28.0,1650822184319356.0
5.0,-22.0,5.0,7.0,9.0,0.0,-10.0,-31.0,1650822184319356.0
-29.0,16.0,-9.0,-8.0,-3.0,-13.0,-10.0,13.0,1650822184340937.0
-11.0,-3.0,-1.0,12.0,2.0,-10.0,-6.0,-10.0,1650822184340937.0
17.0,8.0,22.0,11.0,9.0,1.0,-7.0,-5.0,1650822184341874.0
-12.0,-3.0,-20.0,1.0,-2.0,19.0,17.0,59.0,1650822184341874.0
7.0,-4.0,2.0,-9.0,-1.0,-1.0,6.0,-15.0,1650822184355946.0
19.0,6.0,-9.0,-13.0,-24.0,-25.0,-6.0,17.0,1650822184355946.0
-24.0,6.0,4.0,6.0,9.0,2.0,-5.0,-11.0,1650822184356946.0
21.0,-5.0,-5.0,-1.0,12.0,16.0,8.0,7.0,1650822184356946.0
-18.0,-5.0,-16.0,10.0,8.0,11.0,-2.0,-16.0,1650822184379179.0
1.0,-14.0,-2.0,4.0,12.0,9.0,3.0,-2.0,1650822184379179.0
20.0,12.0,47.0,4.0,-12.0,-9.0,6.0,71.0,1650822184379179.0
11.0,-1.0,-51.0,1.0,-13.0,-16.0,1.0,-30.0,1650822184379179.0
1.0,13.0,1.0,-2.0,3.0,-5.0,-5.0,-29.0,1650822184401218.0
9.0,1.0,-32.0,-10.0,6.0,10.0,8.0,-5.0,1650822184401218.0
2.0,11.0,18.0,17.0,10.0,16.0,9.0,27.0,1650822184402158.0
-6.0,-36.0,17.0,-6.0,-27.0,-30.0,-6.0,12.0,1650822184402158.0
-18.0,-5.0,-15.0,-12.0,2.0,8.0,-11.0,-40.0,1650822184416128.0
11.0,11.0,18.0,15.0,40.0,35.0,-2.0,8.0,1650822184416128.0
12.0,16.0,-8.0,-10.0,-11.0,-7.0,-3.0,-34.0,1650822184416128.0
-4.0,3.0,-11.0,-1.0,8.0,-1.0,-4.0,-13.0,1650822184416128.0
0.0,2.0,4.0,7.0,-26.0,-28.0,-3.0,-8.0,1650822184439256.0
-17.0,-9.0,20.0,-3.0,-24.0,-24.0,-10.0,-20.0,1650822184439256.0
14.0,3.0,-21.0,-7.0,21.0,28.0,15.0,57.0,1650822184439256.0
-18.0,7.0,4.0,-11.0,-5.0,3.0,-6.0,-39.0,1650822184439256.0
-15.0,5.0,25.0,-6.0,-7.0,-5.0,0.0,-4.0,1650822184461316.0
9.0,-15.0,-35.0,-13.0,-10.0,-11.0,15.0,40.0,1650822184461316.0
21.0,-4.0,-7.0,-1.0,-8.0,-6.0,-2.0,-11.0,1650822184462251.0
13.0,3.0,21.0,7.0,6.0,6.0,4.0,18.0,1650822184462251.0
-9.0,-32.0,-38.0,-3.0,5.0,2.0,-1.0,10.0,1650822184475936.0
7.0,1.0,-8.0,-11.0,-23.0,-3.0,-5.0,-17.0,1650822184475936.0
-6.0,15.0,10.0,-8.0,-15.0,-26.0,-7.0,28.0,1650822184475936.0
20.0,8.0,2.0,-6.0,9.0,15.0,0.0,-19.0,1650822184475936.0
-18.0,34.0,24.0,28.0,26.0,23.0,21.0,46.0,1650822184499013.0
-9.0,10.0,27.0,-4.0,7.0,7.0,3.0,-17.0,1650822184499013.0
-28.0,-18.0,-10.0,11.0,0.0,-7.0,2.0,-24.0,1650822184500030.0
2.0,-19.0,-9.0,-21.0,-33.0,-29.0,-12.0,-1.0,1650822184500030.0
18.0,-1.0,8.0,2.0,-2.0,-3.0,-6.0,-15.0,1650822184522168.0
-29.0,-34.0,-34.0,-5.0,5.0,18.0,-7.0,-9.0,1650822184522168.0
-2.0,18.0,15.0,14.0,22.0,16.0,15.0,35.0,1650822184522168.0
-2.0,6.0,21.0,5.0,-2.0,-19.0,-9.0,-43.0,1650822184522168.0
-9.0,-11.0,-75.0,-26.0,-19.0,-14.0,-9.0,-27.0,1650822184535170.0
0.0,10.0,-13.0,-11.0,-15.0,-12.0,-2.0,12.0,1650822184535170.0
-39.0,0.0,32.0,5.0,8.0,21.0,0.0,-18.0,1650822184536168.0
6.0,-7.0,-8.0,0.0,0.0,-3.0,0.0,5.0,1650822184536168.0
7.0,-3.0,6.0,12.0,17.0,5.0,-3.0,6.0,1650822184559051.0
-5.0,35.0,13.0,7.0,3.0,6.0,-4.0,-10.0,1650822184559051.0
7.0,-28.0,-66.0,-23.0,-12.0,-1.0,2.0,7.0,1650822184559983.0
-1.0,13.0,1.0,-3.0,-21.0,-24.0,-4.0,10.0,1650822184559983.0
-5.0,9.0,31.0,11.0,3.0,10.0,-9.0,-26.0,1650822184581023.0
-1.0,-11.0,-4.0,6.0,20.0,10.0,5.0,32.0,1650822184581023.0
5.0,2.0,-9.0,-2.0,2.0,0.0,-2.0,-40.0,1650822184581955.0
5.0,19.0,49.0,5.0,1.0,6.0,12.0,72.0,1650822184581955.0
33.0,15.0,-19.0,-8.0,-12.0,-13.0,-1.0,15.0,1650822184596045.0
-12.0,-30.0,-13.0,9.0,-4.0,1.0,-3.0,-26.0,1650822184596045.0
-5.0,-5.0,44.0,10.0,2.0,-9.0,2.0,35.0,1650822184596045.0
-24.0,-35.0,-24.0,-11.0,-2.0,1.0,-9.0,-32.0,1650822184596045.0
21.0,22.0,52.0,20.0,15.0,20.0,5.0,-18.0,1650822184618928.0
-6.0,9.0,25.0,5.0,20.0,15.0,10.0,23.0,1650822184618928.0
27.0,-4.0,-11.0,-9.0,-10.0,-8.0,-7.0,-53.0,1650822184619859.0
-5.0,-7.0,-31.0,-10.0,-4.0,-4.0,6.0,54.0,1650822184619859.0
2.0,-14.0,12.0,-3.0,-4.0,-22.0,-7.0,5.0,1650822184640940.0
-5.0,15.0,-12.0,-12.0,-10.0,14.0,-15.0,-44.0,1650822184640940.0
-11.0,-24.0,-17.0,4.0,3.0,5.0,9.0,33.0,1650822184641882.0
0.0,12.0,33.0,-8.0,8.0,5.0,4.0,11.0,1650822184641882.0
-21.0,-30.0,-83.0,-25.0,-11.0,-9.0,-3.0,-2.0,1650822184656069.0
-1.0,-14.0,-21.0,1.0,-11.0,-36.0,-12.0,-13.0,1650822184656069.0
-2.0,13.0,-9.0,-2.0,-11.0,19.0,1.0,2.0,1650822184656069.0
14.0,1.0,5.0,11.0,21.0,22.0,14.0,58.0,1650822184656069.0
6.0,0.0,23.0,7.0,21.0,11.0,0.0,-24.0,1650822184678790.0
13.0,-4.0,33.0,17.0,2.0,-10.0,11.0,69.0,1650822184678790.0
-29.0,-1.0,-17.0,-7.0,-10.0,-20.0,-16.0,-83.0,1650822184679817.0
13.0,-26.0,-37.0,-6.0,-15.0,-7.0,1.0,37.0,1650822184679817.0
-40.0,-20.0,4.0,-11.0,-11.0,-6.0,-2.0,-14.0,1650822184701853.0
18.0,25.0,-31.0,-6.0,15.0,17.0,-3.0,-21.0,1650822184701853.0
21.0,3.0,25.0,15.0,7.0,-2.0,12.0,56.0,1650822184701853.0
-28.0,23.0,3.0,3.0,-1.0,-2.0,-13.0,-60.0,1650822184701853.0
22.0,1.0,-7.0,7.0,0.0,3.0,9.0,41.0,1650822184715882.0
-27.0,-12.0,1.0,-18.0,-13.0,-3.0,-1.0,-56.0,1650822184715882.0
-13.0,-2.0,62.0,12.0,-1.0,-6.0,-9.0,23.0,1650822184716839.0
15.0,6.0,-34.0,-5.0,6.0,9.0,-5.0,-5.0,1650822184716839.0
4.0,5.0,3.0,2.0,8.0,2.0,3.0,17.0,1650822184739173.0
-2.0,12.0,35.0,6.0,-3.0,5.0,5.0,16.0,1650822184739173.0
10.0,-18.0,-45.0,-5.0,-3.0,-6.0,-3.0,-7.0,1650822184739173.0
-13.0,-14.0,-6.0,-5.0,-31.0,-26.0,0.0,-31.0,1650822184739173.0
3.0,14.0,29.0,1.0,3.0,18.0,-7.0,6.0,1650822184761118.0
0.0,-6.0,12.0,12.0,21.0,17.0,7.0,19.0,1650822184761118.0
-3.0,3.0,2.0,0.0,17.0,10.0,5.0,-6.0,1650822184762044.0
12.0,15.0,29.0,12.0,11.0,-3.0,-8.0,-7.0,1650822184762044.0
-4.0,-25.0,-35.0,-12.0,-14.0,-10.0,2.0,-12.0,1650822184776075.0
5.0,25.0,25.0,7.0,-17.0,-24.0,-8.0,10.0,1650822184776075.0
2.0,15.0,-3.0,4.0,-11.0,-9.0,-5.0,-2.0,1650822184776075.0
20.0,3.0,-32.0,1.0,16.0,19.0,14.0,55.0,1650822184776075.0
-52.0,-21.0,26.0,-3.0,-11.0,-8.0,-14.0,-71.0,1650822184798927.0
-4.0,-3.0,18.0,-3.0,3.0,9.0,9.0,31.0,1650822184798927.0
23.0,-5.0,-23.0,6.0,0.0,-12.0,-10.0,-4.0,1650822184799869.0
3.0,18.0,22.0,-1.0,6.0,6.0,-2.0,-15.0,1650822184799869.0
7.0,42.0,41.0,-4.0,-15.0,-5.0,-1.0,3.0,1650822184820994.0
-13.0,-27.0,-28.0,-1.0,8.0,-4.0,1.0,34.0,1650822184820994.0
12.0,1.0,15.0,3.0,1.0,-1.0,-1.0,-8.0,1650822184821939.0
-8.0,-9.0,-18.0,3.0,6.0,9.0,10.0,-7.0,1650822184821939.0
9.0,3.0,-51.0,-23.0,-13.0,-17.0,1.0,19.0,1650822184836045.0
-21.0,-35.0,-40.0,-2.0,-14.0,-11.0,-15.0,-25.0,1650822184836045.0
14.0,25.0,26.0,-3.0,2.0,14.0,7.0,45.0,1650822184836045.0
-6.0,-12.0,-16.0,15.0,33.0,32.0,6.0,-49.0,1650822184836045.0
3.0,18.0,37.0,21.0,14.0,16.0,13.0,33.0,1650822184859215.0
17.0,17.0,29.0,-1.0,2.0,-3.0,7.0,-3.0,1650822184859215.0
-1.0,1.0,-32.0,-5.0,0.0,-16.0,-6.0,-14.0,1650822184859215.0
-11.0,10.0,11.0,-7.0,-28.0,-14.0,-12.0,-11.0,1650822184859215.0
2.0,-51.0,-46.0,-3.0,4.0,1.0,3.0,20.0,1650822184881271.0
5.0,15.0,-2.0,-3.0,-7.0,-9.0,-3.0,-23.0,1650822184881271.0
-16.0,-9.0,-4.0,1.0,1.0,4.0,-3.0,-9.0,1650822184882211.0
-2.0,10.0,35.0,1.0,-2.0,2.0,7.0,1.0,1650822184882211.0
7.0,-22.0,-45.0,-10.0,2.0,4.0,0.0,-1.0,1650822184894668.0
12.0,7.0,-22.0,-5.0,2.0,-2.0,3.0,25.0,1650822184894668.0
-22.0,2.0,3.0,-17.0,-13.0,-6.0,4.0,22.0,1650822184903623.0
-44.0,-16.0,-15.0,-2.0,-11.0,-4.0,-16.0,-105.0,1650822184903623.0
22.0,24.0,31.0,1.0,-17.0,-34.0,-8.0,43.0,1650822184918652.0
11.0,5.0,-1.0,7.0,26.0,38.0,5.0,-25.0,1650822184918652.0
-34.0,-2.0,25.0,4.0,24.0,31.0,8.0,-17.0,1650822184919582.0
46.0,12.0,7.0,6.0,-2.0,-18.0,4.0,28.0,1650822184919582.0
25.0,-10.0,-33.0,-5.0,4.0,4.0,11.0,68.0,1650822184941828.0
-19.0,4.0,-1.0,-11.0,-16.0,5.0,-7.0,-52.0,1650822184941828.0
-1.0,-3.0,25.0,3.0,-6.0,-5.0,-2.0,14.0,1650822184941828.0
-5.0,-4.0,9.0,7.0,-2.0,-14.0,-10.0,4.0,1650822184941828.0
-1.0,10.0,4.0,-2.0,-21.0,-16.0,-4.0,-15.0,1650822184963838.0
24.0,-7.0,9.0,-10.0,-15.0,-26.0,-4.0,14.0,1650822184963838.0
11.0,-14.0,-30.0,-2.0,33.0,32.0,5.0,-17.0,1650822184964795.0
-6.0,-16.0,4.0,6.0,2.0,9.0,5.0,18.0,1650822184964795.0
-13.0,14.0,-18.0,1.0,13.0,6.0,-7.0,-27.0,1650822184978954.0
-7.0,2.0,49.0,14.0,-4.0,-1.0,4.0,4.0,1650822184978954.0
-4.0,-4.0,-8.0,-6.0,-28.0,-29.0,1.0,-15.0,1650822184979911.0
-3.0,7.0,2.0,-14.0,-17.0,-32.0,-14.0,14.0,1650822184979911.0
-10.0,8.0,17.0,9.0,16.0,38.0,-1.0,-17.0,1650822185001770.0
4.0,21.0,15.0,1.0,13.0,22.0,2.0,2.0,1650822185001770.0
4.0,-14.0,-40.0,-13.0,1.0,-4.0,10.0,13.0,1650822185001770.0
22.0,0.0,4.0,0.0,-11.0,-18.0,-1.0,31.0,1650822185001770.0
2.0,-16.0,-41.0,-18.0,-12.0,-1.0,1.0,-35.0,1650822185014801.0
-23.0,12.0,14.0,-3.0,-11.0,-6.0,-17.0,-33.0,1650822185014801.0
-19.0,7.0,13.0,2.0,-7.0,-7.0,-8.0,-36.0,1650822185022780.0
16.0,-25.0,-42.0,-5.0,11.0,8.0,9.0,26.0,1650822185022780.0
-38.0,18.0,35.0,0.0,0.0,-4.0,-4.0,20.0,1650822185038835.0
6.0,-13.0,8.0,12.0,-2.0,-11.0,0.0,-5.0,1650822185038835.0
3.0,-11.0,-30.0,-7.0,-12.0,-4.0,-10.0,-5.0,1650822185039834.0
-26.0,-21.0,27.0,-1.0,-9.0,1.0,2.0,-20.0,1650822185039834.0
18.0,-7.0,33.0,9.0,38.0,21.0,15.0,49.0,1650822185060997.0
-1.0,-6.0,-39.0,18.0,-7.0,-5.0,1.0,0.0,1650822185060997.0
19.0,20.0,46.0,-7.0,21.0,11.0,15.0,40.0,1650822185061929.0
-5.0,-9.0,-30.0,-15.0,-37.0,-41.0,-19.0,-22.0,1650822185061929.0
4.0,6.0,16.0,0.0,1.0,22.0,0.0,-9.0,1650822185075011.0
-1.0,-8.0,-14.0,0.0,27.0,43.0,13.0,21.0,1650822185075011.0
10.0,5.0,30.0,27.0,28.0,20.0,4.0,-9.0,1650822185083027.0
-3.0,4.0,-17.0,-9.0,4.0,-3.0,-5.0,1.0,1650822185083027.0
10.0,12.0,11.0,8.0,-12.0,-26.0,-2.0,-19.0,1650822185099001.0
1.0,-2.0,-4.0,-14.0,-18.0,-22.0,4.0,37.0,1650822185099001.0
-27.0,-8.0,-23.0,0.0,-21.0,-19.0,-14.0,-19.0,1650822185099934.0
8.0,20.0,18.0,-2.0,6.0,22.0,3.0,-26.0,1650822185099934.0
6.0,2.0,8.0,-3.0,-13.0,-16.0,-14.0,-6.0,1650822185121097.0
-13.0,-3.0,10.0,0.0,12.0,5.0,-11.0,-65.0,1650822185121097.0
-2.0,-8.0,-25.0,-3.0,1.0,2.0,22.0,76.0,1650822185122024.0
12.0,-11.0,-25.0,4.0,13.0,18.0,20.0,14.0,1650822185122024.0
0.0,-8.0,-1.0,-5.0,-19.0,-13.0,-7.0,-21.0,1650822185144237.0
8.0,1.0,-6.0,-7.0,-10.0,-29.0,-13.0,11.0,1650822185144237.0
0.0,19.0,19.0,2.0,-6.0,-2.0,0.0,20.0,1650822185144237.0
-8.0,-2.0,-19.0,9.0,25.0,29.0,-10.0,-47.0,1650822185144237.0
3.0,12.0,7.0,-3.0,17.0,27.0,6.0,38.0,1650822185158360.0
-14.0,-3.0,20.0,18.0,7.0,-6.0,9.0,-25.0,1650822185158360.0
8.0,-15.0,-60.0,-31.0,-40.0,-32.0,-12.0,0.0,1650822185159360.0
-13.0,1.0,-5.0,7.0,14.0,13.0,9.0,33.0,1650822185159360.0
-19.0,-11.0,3.0,-2.0,-21.0,-39.0,-23.0,-35.0,1650822185181869.0
-7.0,-14.0,-13.0,-5.0,-10.0,0.0,7.0,43.0,1650822185181869.0
20.0,-2.0,4.0,12.0,5.0,13.0,-10.0,-26.0,1650822185181869.0
1.0,12.0,4.0,-11.0,-3.0,0.0,0.0,6.0,1650822185181869.0
-24.0,-22.0,-27.0,-4.0,15.0,0.0,-17.0,-68.0,1650822185194868.0
-12.0,6.0,1.0,-5.0,-4.0,-10.0,0.0,41.0,1650822185194868.0
8.0,1.0,7.0,2.0,-5.0,-8.0,-6.0,7.0,1650822185203659.0
16.0,-1.0,-7.0,-5.0,-7.0,-3.0,-12.0,-5.0,1650822185203659.0
14.0,17.0,-9.0,4.0,-6.0,-1.0,5.0,5.0,1650822185218850.0
15.0,9.0,-12.0,-14.0,-24.0,-44.0,-9.0,10.0,1650822185218850.0
-18.0,1.0,24.0,1.0,2.0,21.0,-13.0,-39.0,1650822185219849.0
-28.0,10.0,33.0,17.0,39.0,50.0,2.0,-8.0,1650822185219849.0
15.0,-11.0,-20.0,2.0,22.0,13.0,26.0,30.0,1650822185241869.0
8.0,-8.0,-20.0,-9.0,2.0,-11.0,-9.0,-21.0,1650822185241869.0
-5.0,-4.0,19.0,-17.0,-27.0,-25.0,-9.0,20.0,1650822185241869.0
-1.0,12.0,-10.0,6.0,-2.0,8.0,9.0,21.0,1650822185241869.0
-3.0,-3.0,-13.0,-3.0,4.0,12.0,3.0,0.0,1650822185264016.0
-15.0,-34.0,28.0,-2.0,1.0,2.0,2.0,-6.0,1650822185264016.0
12.0,6.0,6.0,4.0,-7.0,-25.0,-7.0,-22.0,1650822185264974.0
3.0,2.0,22.0,-3.0,-20.0,-17.0,-4.0,21.0,1650822185264974.0
-9.0,-5.0,-41.0,-6.0,8.0,7.0,3.0,-3.0,1650822185279152.0
-9.0,-4.0,-34.0,-13.0,0.0,8.0,2.0,4.0,1650822185279152.0
8.0,-8.0,-11.0,0.0,0.0,-3.0,-1.0,34.0,1650822185279152.0
27.0,-2.0,6.0,-2.0,-6.0,-8.0,-9.0,-66.0,1650822185279152.0
-6.0,6.0,10.0,-3.0,-12.0,-9.0,3.0,-5.0,1650822185301854.0
7.0,22.0,33.0,9.0,2.0,6.0,-2.0,-21.0,1650822185301854.0
-9.0,-35.0,-29.0,4.0,19.0,13.0,5.0,-2.0,1650822185301854.0
-29.0,-1.0,-35.0,-10.0,-7.0,-7.0,6.0,27.0,1650822185301854.0
2.0,0.0,52.0,5.0,-9.0,-8.0,-12.0,-5.0,1650822185323807.0
14.0,11.0,-7.0,7.0,16.0,29.0,11.0,43.0,1650822185323807.0
-14.0,29.0,52.0,-2.0,12.0,17.0,6.0,-41.0,1650822185324807.0
-10.0,-37.0,-33.0,5.0,8.0,-14.0,-3.0,9.0,1650822185324807.0
-2.0,5.0,4.0,-3.0,-16.0,-12.0,-4.0,14.0,1650822185338860.0
3.0,17.0,2.0,-11.0,-23.0,-3.0,-3.0,11.0,1650822185338860.0
4.0,-11.0,-51.0,-5.0,10.0,7.0,8.0,36.0,1650822185339887.0
-1.0,3.0,35.0,6.0,-11.0,-15.0,2.0,-15.0,1650822185339887.0
-10.0,-5.0,-5.0,-4.0,15.0,7.0,-10.0,-32.0,1650822185361828.0
2.0,-14.0,-18.0,-5.0,-11.0,-7.0,-3.0,-12.0,1650822185361828.0
10.0,-13.0,-1.0,14.0,26.0,7.0,7.0,3.0,1650822185361828.0
2.0,3.0,1.0,-6.0,-2.0,-3.0,-4.0,15.0,1650822185361828.0
-2.0,14.0,1.0,5.0,-8.0,1.0,14.0,24.0,1650822185383998.0
-2.0,-21.0,-7.0,-4.0,-9.0,-7.0,-3.0,15.0,1650822185383998.0
3.0,7.0,-17.0,1.0,-3.0,-3.0,-7.0,-65.0,1650822185385008.0
30.0,-4.0,-16.0,0.0,-6.0,5.0,4.0,36.0,1650822185385008.0
-2.0,2.0,24.0,1.0,5.0,14.0,7.0,-27.0,1650822185398110.0
6.0,8.0,19.0,2.0,12.0,0.0,5.0,1.0,1650822185398110.0
-3.0,6.0,0.0,-1.0,-24.0,-16.0,-7.0,21.0,1650822185399110.0
-7.0,7.0,-6.0,-21.0,-11.0,-22.0,-13.0,5.0,1650822185399110.0
33.0,6.0,2.0,4.0,-19.0,-15.0,-6.0,32.0,1650822185421869.0
-46.0,2.0,3.0,-1.0,15.0,20.0,-7.0,-51.0,1650822185421869.0
-1.0,15.0,-10.0,4.0,41.0,49.0,21.0,24.0,1650822185421869.0
9.0,-1.0,42.0,13.0,0.0,1.0,12.0,78.0,1650822185421869.0
28.0,7.0,36.0,9.0,-7.0,-9.0,0.0,-54.0,1650822185443860.0
-5.0,4.0,15.0,1.0,-21.0,-30.0,-10.0,4.0,1650822185443860.0
1.0,-9.0,-28.0,1.0,-11.0,-16.0,-14.0,-30.0,1650822185444791.0
1.0,9.0,5.0,6.0,1.0,-9.0,-3.0,-8.0,1650822185444791.0
-4.0,3.0,-2.0,-17.0,5.0,26.0,11.0,34.0,1650822185457903.0
-3.0,-1.0,-12.0,1.0,6.0,6.0,0.0,-14.0,1650822185457903.0
11.0,5.0,17.0,2.0,-2.0,-3.0,3.0,31.0,1650822185466962.0
-27.0,-1.0,6.0,3.0,0.0,0.0,-3.0,-46.0,1650822185466962.0
-10.0,-7.0,-15.0,3.0,-8.0,-16.0,-2.0,7.0,1650822185489006.0
18.0,4.0,-10.0,19.0,25.0,14.0,7.0,9.0,1650822185489006.0
10.0,1.0,10.0,-11.0,-5.0,6.0,6.0,75.0,1650822185489966.0
-31.0,4.0,-2.0,-6.0,-7.0,-5.0,-2.0,-85.0,1650822185489966.0
-2.0,-7.0,-6.0,1.0,-4.0,-13.0,-10.0,-16.0,1650822185503967.0
1.0,-4.0,-9.0,-1.0,-4.0,5.0,1.0,-7.0,1650822185503967.0
10.0,10.0,8.0,9.0,1.0,7.0,1.0,-4.0,1650822185504926.0
5.0,31.0,23.0,2.0,6.0,13.0,2.0,8.0,1650822185504926.0
-36.0,-37.0,-21.0,0.0,3.0,0.0,-4.0,-24.0,1650822185518018.0
39.0,1.0,0.0,-6.0,-7.0,-14.0,0.0,17.0,1650822185518018.0
-17.0,-14.0,-6.0,-9.0,-13.0,-24.0,-8.0,-13.0,1650822185526974.0
5.0,-10.0,-8.0,-1.0,7.0,23.0,-6.0,-11.0,1650822185526974.0
1.0,15.0,-6.0,3.0,19.0,20.0,6.0,19.0,1650822185541853.0
-4.0,-3.0,-4.0,2.0,-2.0,2.0,1.0,2.0,1650822185541853.0
4.0,33.0,19.0,4.0,-8.0,-13.0,-3.0,-32.0,1650822185542868.0
7.0,-30.0,-8.0,9.0,1.0,-3.0,3.0,31.0,1650822185542868.0
-8.0,-9.0,-8.0,-13.0,-8.0,-7.0,-3.0,9.0,1650822185563915.0
1.0,-14.0,-8.0,-14.0,-11.0,-4.0,-4.0,-17.0,1650822185563915.0
3.0,0.0,6.0,2.0,-8.0,-14.0,-7.0,-17.0,1650822185565844.0
21.0,9.0,-1.0,1.0,1.0,4.0,5.0,3.0,1650822185565844.0
6.0,-7.0,-17.0,-21.0,-13.0,-4.0,-1.0,10.0,1650822185577982.0
-36.0,2.0,-2.0,1.0,10.0,5.0,-3.0,-10.0,1650822185577982.0
-16.0,-3.0,7.0,22.0,11.0,12.0,3.0,-10.0,1650822185586153.0
7.0,-6.0,9.0,5.0,-6.0,-24.0,-5.0,10.0,1650822185586153.0
-5.0,-2.0,-4.0,-2.0,-15.0,-5.0,-3.0,-3.0,1650822185601230.0
46.0,3.0,0.0,-15.0,12.0,35.0,5.0,10.0,1650822185601230.0
-8.0,-5.0,2.0,0.0,14.0,11.0,1.0,-7.0,1650822185603168.0
-8.0,-3.0,-15.0,-4.0,-3.0,-4.0,4.0,12.0,1650822185603168.0
-4.0,8.0,16.0,17.0,5.0,-8.0,3.0,7.0,1650822185631852.0
-2.0,-2.0,8.0,14.0,-8.0,-14.0,0.0,1.0,1650822185631852.0
4.0,-8.0,5.0,-19.0,-8.0,3.0,1.0,-8.0,1650822185632853.0
7.0,1.0,-7.0,-11.0,7.0,6.0,-2.0,-3.0,1650822185632853.0
4.0,5.0,-10.0,22.0,2.0,0.0,-1.0,2.0,1650822185637835.0
-15.0,2.0,2.0,3.0,5.0,2.0,2.0,3.0,1650822185637835.0
0.0,-7.0,-16.0,-35.0,-23.0,-15.0,-6.0,-6.0,1650822185646811.0
-8.0,0.0,-4.0,-16.0,-7.0,-5.0,1.0,3.0,1650822185646811.0
0.0,5.0,16.0,22.0,15.0,11.0,2.0,3.0,1650822185661860.0
-6.0,0.0,2.0,18.0,8.0,7.0,2.0,2.0,1650822185661860.0
4.0,2.0,-2.0,-8.0,-3.0,-4.0,0.0,-3.0,1650822185662863.0
1.0,-3.0,1.0,7.0,4.0,4.0,2.0,3.0,1650822185662863.0
-1.0,0.0,-4.0,-24.0,-1.0,1.0,-3.0,0.0,1650822185684247.0
3.0,-7.0,-10.0,2.0,-2.0,-7.0,-3.0,-5.0,1650822185684247.0
-1.0,2.0,14.0,24.0,-7.0,-20.0,-4.0,-4.0,1650822185685830.0
-6.0,-1.0,-5.0,-19.0,-7.0,15.0,0.0,5.0,1650822185685830.0
2.0,0.0,-7.0,-13.0,2.0,2.0,-1.0,1.0,1650822185706769.0
-1.0,4.0,2.0,9.0,12.0,13.0,6.0,3.0,1650822185706769.0
-1.0,-1.0,-6.0,-10.0,-5.0,-5.0,1.0,-9.0,1650822185707738.0
-13.0,-8.0,-21.0,-20.0,-26.0,-43.0,-9.0,1.0,1650822185707738.0
4.0,2.0,3.0,6.0,8.0,10.0,0.0,0.0,1650822185721795.0
-5.0,-1.0,4.0,1.0,9.0,26.0,4.0,-1.0,1650822185721795.0
17.0,4.0,11.0,13.0,22.0,21.0,10.0,10.0,1650822185722790.0
-2.0,9.0,8.0,9.0,3.0,-2.0,2.0,-2.0,1650822185722790.0
-2.0,-9.0,0.0,-6.0,-13.0,-16.0,-5.0,0.0,1650822185744070.0
-8.0,-10.0,-27.0,-41.0,-33.0,-33.0,-11.0,-7.0,1650822185744070.0
-8.0,-12.0,-8.0,9.0,1.0,6.0,-2.0,-1.0,1650822185745022.0
12.0,1.0,4.0,4.0,5.0,9.0,0.0,-4.0,1650822185745022.0
3.0,3.0,2.0,6.0,0.0,1.0,2.0,12.0,1650822185757981.0
-3.0,0.0,12.0,6.0,8.0,3.0,-2.0,-11.0,1650822185757981.0
-3.0,0.0,-7.0,-5.0,-6.0,-5.0,-3.0,-5.0,1650822185767027.0
1.0,-6.0,1.0,-2.0,-3.0,-9.0,0.0,-1.0,1650822185767027.0
19.0,2.0,-6.0,4.0,4.0,10.0,3.0,1.0,1650822185780856.0
-11.0,2.0,6.0,6.0,8.0,14.0,3.0,10.0,1650822185780856.0
-3.0,-2.0,-7.0,-10.0,-2.0,0.0,2.0,-2.0,1650822185782851.0
-4.0,-1.0,4.0,10.0,2.0,-3.0,-3.0,-3.0,1650822185782851.0
4.0,1.0,10.0,6.0,-8.0,-16.0,-4.0,-3.0,1650822185804031.0
4.0,-2.0,-10.0,-9.0,-6.0,-5.0,-3.0,0.0,1650822185804031.0
-5.0,3.0,3.0,1.0,8.0,14.0,1.0,-2.0,1650822185804963.0
3.0,1.0,6.0,12.0,18.0,18.0,5.0,6.0,1650822185804963.0
-9.0,-2.0,-3.0,-13.0,-8.0,-7.0,-2.0,-2.0,1650822185817922.0
6.0,-2.0,-7.0,-7.0,-21.0,-29.0,-8.0,-9.0,1650822185817922.0
-12.0,-4.0,8.0,12.0,-8.0,2.0,-2.0,-2.0,1650822185826866.0
1.0,0.0,-13.0,-5.0,13.0,14.0,2.0,0.0,1650822185826866.0
-5.0,2.0,6.0,5.0,13.0,12.0,3.0,-3.0,1650822185841000.0
-2.0,-1.0,4.0,7.0,-2.0,-13.0,-2.0,0.0,1650822185841000.0
8.0,3.0,3.0,1.0,-8.0,-18.0,-5.0,-2.0,1650822185842937.0
-5.0,-2.0,-1.0,-3.0,-9.0,12.0,0.0,-5.0,1650822185842937.0
-2.0,2.0,0.0,-8.0,-5.0,2.0,2.0,1.0,1650822185863953.0
13.0,2.0,3.0,6.0,8.0,-5.0,4.0,34.0,1650822185863953.0
-1.0,-1.0,-1.0,3.0,10.0,4.0,-1.0,-14.0,1650822185864983.0
0.0,0.0,2.0,3.0,-3.0,6.0,2.0,0.0,1650822185864983.0
-4.0,-2.0,-1.0,1.0,7.0,9.0,0.0,-3.0,1650822185886784.0
-6.0,1.0,-1.0,-1.0,1.0,5.0,3.0,6.0,1650822185886784.0
19.0,1.0,0.0,-4.0,-8.0,-15.0,-5.0,0.0,1650822185887784.0
-31.0,-6.0,-2.0,-3.0,-14.0,-14.0,-6.0,-2.0,1650822185887784.0
1.0,-3.0,-4.0,1.0,2.0,-1.0,-1.0,3.0,1650822185908927.0
-4.0,-1.0,-3.0,-4.0,-4.0,-4.0,-2.0,-9.0,1650822185908927.0
-6.0,-6.0,-5.0,1.0,0.0,6.0,-1.0,-1.0,1650822185910882.0
5.0,0.0,2.0,0.0,5.0,-1.0,0.0,-2.0,1650822185910882.0
0.0,-2.0,-3.0,1.0,-2.0,11.0,2.0,1.0,1650822185924244.0
0.0,4.0,1.0,-1.0,0.0,5.0,2.0,-7.0,1650822185924244.0
-5.0,-2.0,-3.0,-2.0,1.0,-4.0,0.0,0.0,1650822185925803.0
10.0,0.0,-3.0,-3.0,-4.0,-7.0,1.0,7.0,1650822185925803.0
-5.0,1.0,0.0,0.0,-4.0,-15.0,-6.0,-4.0,1650822185937950.0
3.0,-1.0,2.0,6.0,1.0,6.0,-4.0,-8.0,1650822185937950.0
2.0,3.0,1.0,-4.0,-4.0,6.0,2.0,5.0,1650822185946877.0
3.0,-3.0,-5.0,0.0,4.0,3.0,2.0,0.0,1650822185946877.0
-1.0,-3.0,-1.0,-4.0,0.0,-4.0,-1.0,-2.0,1650822185961062.0
-5.0,-3.0,-5.0,-4.0,4.0,1.0,0.0,-5.0,1650822185961062.0
-1.0,0.0,-2.0,-5.0,-1.0,-4.0,-1.0,3.0,1650822185962992.0
0.0,0.0,8.0,4.0,-18.0,-19.0,-5.0,-4.0,1650822185962992.0
-1.0,-2.0,3.0,5.0,7.0,13.0,1.0,-2.0,1650822185984153.0
0.0,-1.0,-3.0,3.0,22.0,21.0,4.0,-1.0,1650822185984153.0
-6.0,-2.0,-2.0,-1.0,-2.0,-4.0,0.0,1.0,1650822185985085.0
11.0,1.0,7.0,7.0,1.0,-4.0,-1.0,0.0,1650822185985085.0
-8.0,1.0,-2.0,-4.0,-12.0,-14.0,-2.0,1.0,1650822185997120.0
7.0,0.0,3.0,1.0,-7.0,-3.0,-1.0,1.0,1650822185997120.0
-1.0,0.0,-9.0,-8.0,5.0,9.0,-4.0,3.0,1650822186006196.0
-2.0,3.0,2.0,0.0,4.0,-1.0,-3.0,-15.0,1650822186006196.0
1.0,-4.0,-2.0,4.0,-9.0,-11.0,-2.0,2.0,1650822186021287.0
-2.0,3.0,1.0,-4.0,5.0,4.0,3.0,-1.0,1650822186021287.0
3.0,1.0,3.0,3.0,4.0,3.0,3.0,-2.0,1650822186023244.0
1.0,-2.0,-10.0,-5.0,-1.0,-1.0,-2.0,21.0,1650822186023244.0
-3.0,0.0,0.0,-1.0,2.0,4.0,-1.0,-10.0,1650822186043807.0
-6.0,-2.0,0.0,-1.0,-9.0,-24.0,-6.0,-5.0,1650822186043807.0
1.0,-1.0,-1.0,0.0,-10.0,0.0,-1.0,-2.0,1650822186045845.0
0.0,0.0,0.0,3.0,11.0,15.0,2.0,5.0,1650822186045845.0
4.0,1.0,2.0,-2.0,8.0,8.0,3.0,3.0,1650822186057911.0
-5.0,-5.0,-6.0,0.0,4.0,3.0,-1.0,0.0,1650822186057911.0
0.0,6.0,1.0,1.0,-7.0,-9.0,0.0,2.0,1650822186066943.0
-5.0,1.0,2.0,4.0,9.0,8.0,1.0,-6.0,1650822186066943.0
3.0,3.0,0.0,-6.0,-5.0,-2.0,-1.0,2.0,1650822186081007.0
-2.0,-2.0,-1.0,1.0,-13.0,-11.0,-2.0,-4.0,1650822186081007.0
2.0,0.0,1.0,-6.0,-5.0,-8.0,-3.0,-1.0,1650822186083001.0
-3.0,-2.0,-2.0,3.0,2.0,3.0,0.0,-5.0,1650822186083001.0
0.0,-4.0,-3.0,4.0,15.0,17.0,4.0,0.0,1650822186104106.0
2.0,-6.0,-4.0,2.0,2.0,5.0,2.0,5.0,1650822186104106.0
-1.0,-3.0,-3.0,-4.0,-3.0,-12.0,-3.0,0.0,1650822186105106.0
2.0,0.0,2.0,-3.0,-14.0,-3.0,-2.0,-6.0,1650822186105106.0
-1.0,-1.0,-1.0,-1.0,-4.0,-17.0,-6.0,0.0,1650822186117149.0
0.0,4.0,1.0,-4.0,0.0,5.0,0.0,-3.0,1650822186117149.0
-4.0,-4.0,2.0,7.0,9.0,17.0,3.0,0.0,1650822186126123.0
1.0,1.0,3.0,0.0,5.0,3.0,4.0,4.0,1650822186126123.0
2.0,3.0,-6.0,-4.0,-1.0,-5.0,-1.0,0.0,1650822186141307.0
-6.0,-3.0,-2.0,2.0,-11.0,-9.0,-1.0,-2.0,1650822186141307.0
1.0,-10.0,-11.0,-5.0,-2.0,-14.0,-3.0,-2.0,1650822186143263.0
1.0,9.0,11.0,2.0,-2.0,-7.0,-6.0,-1.0,1650822186143263.0
-3.0,0.0,-6.0,-3.0,-7.0,9.0,-1.0,-3.0,1650822186164013.0
1.0,5.0,7.0,1.0,10.0,11.0,5.0,1.0,1650822186164013.0
0.0,2.0,5.0,9.0,6.0,8.0,4.0,1.0,1650822186165013.0
1.0,-3.0,-5.0,-2.0,7.0,1.0,1.0,0.0,1650822186165013.0
-1.0,-1.0,1.0,2.0,0.0,-17.0,-1.0,-1.0,1650822186188320.0
1.0,1.0,-4.0,-5.0,-10.0,-5.0,-5.0,-5.0,1650822186188320.0
-3.0,1.0,0.0,-2.0,0.0,9.0,1.0,4.0,1650822186189318.0
-4.0,-3.0,-6.0,-10.0,-9.0,-4.0,-3.0,-15.0,1650822186189318.0
3.0,-3.0,-2.0,-5.0,-7.0,-11.0,-1.0,-1.0,1650822186201351.0
2.0,0.0,0.0,2.0,-5.0,-3.0,0.0,2.0,1650822186201351.0
-1.0,1.0,5.0,6.0,25.0,22.0,4.0,-2.0,1650822186203308.0
-7.0,2.0,1.0,1.0,6.0,7.0,3.0,5.0,1650822186203308.0
7.0,0.0,-2.0,-5.0,-8.0,-2.0,1.0,2.0,1650822186224219.0
-1.0,0.0,1.0,0.0,-11.0,-12.0,-7.0,-8.0,1650822186224219.0
-1.0,-1.0,0.0,1.0,-7.0,-10.0,-4.0,-1.0,1650822186225833.0
1.0,-3.0,-3.0,1.0,-6.0,-2.0,-2.0,2.0,1650822186225833.0
-4.0,-1.0,-2.0,-2.0,7.0,-10.0,-4.0,-3.0,1650822186245914.0
2.0,2.0,-4.0,-4.0,-1.0,2.0,-3.0,5.0,1650822186245914.0
-2.0,1.0,1.0,-1.0,-2.0,16.0,1.0,-3.0,1650822186252920.0
5.0,1.0,3.0,2.0,12.0,10.0,6.0,3.0,1650822186252920.0
-5.0,-8.0,-6.0,-1.0,-6.0,-5.0,-1.0,0.0,1650822186261862.0
2.0,0.0,0.0,3.0,-1.0,-11.0,-5.0,0.0,1650822186261862.0
-4.0,-2.0,3.0,-5.0,-8.0,-13.0,-4.0,-3.0,1650822186262856.0
3.0,-4.0,-8.0,-2.0,-2.0,5.0,-1.0,-1.0,1650822186262856.0
-1.0,1.0,5.0,4.0,3.0,-2.0,-1.0,4.0,1650822186284064.0
0.0,-1.0,-1.0,-2.0,8.0,5.0,2.0,1.0,1650822186284064.0
1.0,0.0,-2.0,0.0,-1.0,11.0,3.0,-1.0,1650822186285004.0
-7.0,2.0,1.0,0.0,0.0,7.0,0.0,-1.0,1650822186285004.0
3.0,1.0,-3.0,-2.0,1.0,0.0,2.0,2.0,1650822186306309.0
-3.0,-2.0,0.0,0.0,-5.0,-11.0,-4.0,-1.0,1650822186306309.0
-2.0,-2.0,-3.0,1.0,-12.0,-25.0,-6.0,0.0,1650822186308264.0
-3.0,-5.0,1.0,-2.0,6.0,3.0,-3.0,-1.0,1650822186308264.0
-1.0,2.0,0.0,2.0,3.0,23.0,2.0,-1.0,1650822186321871.0
3.0,1.0,-3.0,-5.0,-1.0,-3.0,1.0,2.0,1650822186321871.0
-1.0,-1.0,-2.0,-3.0,-9.0,-7.0,-1.0,0.0,1650822186322871.0
5.0,0.0,-4.0,0.0,-2.0,-2.0,1.0,9.0,1650822186322871.0
-11.0,-2.0,3.0,1.0,5.0,-1.0,-3.0,-16.0,1650822186343983.0
3.0,2.0,0.0,-3.0,-3.0,5.0,-1.0,1.0,1650822186343983.0
0.0,-1.0,-2.0,-2.0,-2.0,-1.0,0.0,0.0,1650822186345934.0
1.0,-1.0,1.0,5.0,7.0,0.0,1.0,3.0,1650822186345934.0
4.0,3.0,2.0,2.0,4.0,12.0,5.0,3.0,1650822186366076.0
-3.0,-2.0,0.0,-3.0,-3.0,-9.0,-4.0,-3.0,1650822186366076.0
0.0,0.0,-5.0,-4.0,-10.0,-22.0,-6.0,-2.0,1650822186368004.0
-4.0,0.0,-1.0,-5.0,-11.0,6.0,-5.0,-3.0,1650822186368004.0
5.0,-3.0,-3.0,2.0,10.0,13.0,5.0,5.0,1650822186381038.0
0.0,0.0,1.0,3.0,7.0,5.0,4.0,-2.0,1650822186381038.0
0.0,0.0,2.0,0.0,-3.0,-12.0,-4.0,1.0,1650822186387071.0
1.0,0.0,0.0,-3.0,-11.0,-11.0,-1.0,0.0,1650822186387071.0
-2.0,2.0,1.0,0.0,-5.0,-2.0,-4.0,-2.0,1650822186404247.0
-2.0,-3.0,0.0,2.0,11.0,12.0,2.0,-1.0,1650822186404247.0
0.0,1.0,-4.0,-1.0,11.0,13.0,3.0,1.0,1650822186405831.0
-1.0,2.0,3.0,3.0,-3.0,-11.0,1.0,-5.0,1650822186405831.0
-3.0,-2.0,-3.0,-3.0,-11.0,-12.0,-4.0,1.0,1650822186425943.0
2.0,-3.0,-2.0,-2.0,-10.0,-3.0,-1.0,-1.0,1650822186425943.0
-3.0,0.0,1.0,2.0,5.0,6.0,-1.0,-2.0,1650822186427942.0
-1.0,2.0,-3.0,-2.0,4.0,-7.0,0.0,-2.0,1650822186427942.0
2.0,1.0,0.0,-1.0,-4.0,5.0,-1.0,1.0,1650822186441039.0
0.0,4.0,1.0,3.0,9.0,7.0,5.0,3.0,1650822186441039.0
0.0,0.0,4.0,-3.0,-3.0,8.0,0.0,-3.0,1650822186447067.0
0.0,-1.0,0.0,-1.0,-1.0,-4.0,-1.0,1.0,1650822186447067.0
-1.0,0.0,1.0,2.0,-9.0,-13.0,-4.0,0.0,1650822186464818.0
-3.0,0.0,-1.0,0.0,-1.0,-1.0,-2.0,-4.0,1650822186464818.0
-3.0,-2.0,-5.0,-4.0,5.0,9.0,1.0,1.0,1650822186465819.0
3.0,0.0,-1.0,-3.0,-2.0,-7.0,-4.0,1.0,1650822186465819.0
-1.0,-4.0,0.0,1.0,-4.0,-9.0,-3.0,-2.0,1650822186486950.0
-4.0,-2.0,-2.0,0.0,-15.0,-15.0,-4.0,0.0,1650822186486950.0
1.0,-1.0,-1.0,-1.0,12.0,13.0,3.0,0.0,1650822186488947.0
0.0,-2.0,1.0,2.0,2.0,7.0,-2.0,0.0,1650822186488947.0
-1.0,2.0,0.0,-1.0,10.0,9.0,5.0,2.0,1650822186500926.0
1.0,-1.0,-1.0,-2.0,0.0,10.0,1.0,1.0,1650822186500926.0
-3.0,-1.0,0.0,-1.0,-2.0,-8.0,-1.0,0.0,1650822186507906.0
1.0,0.0,-1.0,1.0,-7.0,-12.0,-3.0,-2.0,1650822186507906.0
-2.0,-2.0,-2.0,-3.0,-7.0,-5.0,-3.0,-1.0,1650822186523917.0
-1.0,-1.0,1.0,1.0,4.0,-5.0,-2.0,0.0,1650822186523917.0
-1.0,-3.0,-1.0,-3.0,-26.0,-27.0,-4.0,0.0,1650822186525847.0
-2.0,-3.0,-1.0,0.0,14.0,8.0,2.0,1.0,1650822186525847.0
1.0,0.0,0.0,3.0,18.0,42.0,8.0,1.0,1650822186545941.0
0.0,2.0,2.0,2.0,11.0,10.0,8.0,3.0,1650822186545941.0
1.0,1.0,-1.0,0.0,-3.0,-7.0,-5.0,-2.0,1650822186547939.0
0.0,-4.0,-4.0,-6.0,-19.0,-26.0,-7.0,-2.0,1650822186547939.0
-5.0,-1.0,-1.0,-4.0,-18.0,-37.0,-9.0,-4.0,1650822186560969.0
-3.0,-4.0,-6.0,-1.0,5.0,19.0,0.0,-2.0,1650822186560969.0
9.0,0.0,10.0,8.0,12.0,20.0,6.0,3.0,1650822186567951.0
0.0,1.0,-1.0,-2.0,10.0,0.0,3.0,2.0,1650822186567951.0
1.0,0.0,2.0,-3.0,-5.0,-9.0,-1.0,3.0,1650822186584222.0
0.0,1.0,-1.0,-1.0,-8.0,-1.0,0.0,-3.0,1650822186584222.0
-4.0,-3.0,-3.0,-1.0,1.0,7.0,2.0,-2.0,1650822186585195.0
0.0,1.0,0.0,1.0,8.0,13.0,3.0,0.0,1650822186585195.0
3.0,-2.0,-2.0,-3.0,2.0,-4.0,1.0,1.0,1650822186606807.0
-2.0,-3.0,1.0,-6.0,-10.0,-22.0,-9.0,-2.0,1650822186606807.0
-2.0,-2.0,-8.0,-4.0,-15.0,-15.0,-5.0,-3.0,1650822186607806.0
-1.0,1.0,-1.0,2.0,4.0,19.0,6.0,4.0,1650822186607806.0
1.0,2.0,1.0,6.0,17.0,4.0,5.0,0.0,1650822186620921.0
1.0,0.0,3.0,3.0,-4.0,4.0,3.0,0.0,1650822186620921.0
-3.0,-1.0,0.0,-3.0,15.0,21.0,1.0,-1.0,1650822186627920.0
-3.0,-4.0,-4.0,-5.0,-18.0,-16.0,-4.0,-2.0,1650822186627920.0
-1.0,4.0,-1.0,-5.0,-8.0,-14.0,-3.0,0.0,1650822186644059.0
1.0,-5.0,0.0,0.0,10.0,9.0,-1.0,-1.0,1650822186644059.0
-2.0,3.0,3.0,3.0,0.0,-3.0,1.0,3.0,1650822186645001.0
6.0,-2.0,-1.0,-2.0,-2.0,4.0,0.0,-2.0,1650822186645001.0
-2.0,0.0,-5.0,-3.0,-2.0,2.0,0.0,0.0,1650822186666040.0
-2.0,0.0,3.0,0.0,-6.0,-13.0,-7.0,-2.0,1650822186666040.0
0.0,0.0,0.0,-3.0,-8.0,-19.0,-6.0,-2.0,1650822186667968.0
-4.0,1.0,2.0,5.0,1.0,17.0,4.0,-2.0,1650822186667968.0
3.0,-3.0,-7.0,-6.0,7.0,19.0,3.0,-1.0,1650822186680999.0
0.0,-1.0,3.0,5.0,5.0,0.0,2.0,2.0,1650822186680999.0
-1.0,-2.0,-2.0,0.0,-7.0,-16.0,-1.0,0.0,1650822186687960.0
-4.0,-1.0,-2.0,-2.0,-4.0,-4.0,-2.0,4.0,1650822186687960.0
3.0,0.0,1.0,0.0,-2.0,7.0,-2.0,-3.0,1650822186703939.0
0.0,0.0,-3.0,-1.0,9.0,9.0,3.0,1.0,1650822186703939.0
1.0,1.0,-3.0,-4.0,-3.0,-6.0,-3.0,-1.0,1650822186705915.0
0.0,-3.0,2.0,-1.0,-8.0,-7.0,-3.0,-1.0,1650822186705915.0
-2.0,-1.0,0.0,-1.0,2.0,4.0,-3.0,0.0,1650822186726819.0
0.0,1.0,-2.0,-3.0,-8.0,-1.0,1.0,0.0,1650822186726819.0
-2.0,-1.0,-1.0,2.0,14.0,4.0,-1.0,2.0,1650822186727808.0
1.0,-2.0,-1.0,1.0,2.0,8.0,1.0,-1.0,1650822186727808.0
-6.0,-3.0,1.0,4.0,-1.0,-2.0,2.0,-1.0,1650822186740440.0
8.0,-1.0,-3.0,-5.0,-4.0,-6.0,-2.0,-2.0,1650822186740440.0
0.0,-2.0,2.0,1.0,-3.0,-1.0,-2.0,-2.0,1650822186749351.0
-2.0,0.0,-1.0,-5.0,1.0,-5.0,-3.0,-1.0,1650822186749351.0
1.0,0.0,2.0,1.0,-12.0,-3.0,-1.0,-2.0,1650822186763800.0
-4.0,0.0,-2.0,-3.0,1.0,0.0,2.0,1.0,1650822186763800.0
1.0,0.0,4.0,9.0,7.0,9.0,4.0,-1.0,1650822186765826.0
2.0,0.0,1.0,2.0,10.0,5.0,2.0,0.0,1650822186765826.0
-3.0,1.0,0.0,-1.0,2.0,6.0,2.0,0.0,1650822186786081.0
-2.0,0.0,-7.0,-7.0,-21.0,-18.0,-6.0,-2.0,1650822186786081.0
-2.0,-1.0,3.0,4.0,1.0,-7.0,-4.0,-2.0,1650822186788106.0
-2.0,-4.0,1.0,-1.0,-2.0,1.0,-3.0,-4.0,1650822186788106.0
-2.0,-1.0,-1.0,0.0,-1.0,-4.0,-1.0,-6.0,1650822186800116.0
-2.0,0.0,1.0,0.0,5.0,8.0,2.0,1.0,1650822186800116.0
-4.0,-2.0,-3.0,-6.0,-12.0,-5.0,0.0,-1.0,1650822186809144.0
4.0,2.0,-1.0,1.0,5.0,-2.0,-1.0,-2.0,1650822186809144.0
-5.0,-1.0,1.0,0.0,-5.0,-13.0,-5.0,-1.0,1650822186824300.0
2.0,-5.0,-2.0,-1.0,9.0,19.0,4.0,0.0,1650822186824300.0
4.0,2.0,5.0,6.0,0.0,11.0,2.0,-1.0,1650822186825224.0
-2.0,1.0,-3.0,-1.0,4.0,-3.0,0.0,0.0,1650822186825224.0
0.0,0.0,2.0,-3.0,-3.0,-13.0,-3.0,-1.0,1650822186846745.0
-4.0,-4.0,-7.0,-8.0,-9.0,-14.0,-4.0,-2.0,1650822186846745.0
-1.0,0.0,-1.0,1.0,1.0,9.0,1.0,1.0,1650822186848242.0
1.0,-1.0,-1.0,3.0,0.0,2.0,3.0,1.0,1650822186848242.0
0.0,0.0,-1.0,2.0,1.0,-1.0,0.0,1.0,1650822186860278.0
0.0,0.0,2.0,2.0,-7.0,-8.0,-3.0,-2.0,1650822186860278.0
1.0,5.0,-3.0,-5.0,5.0,6.0,1.0,0.0,1650822186876267.0
-2.0,-5.0,-6.0,-6.0,-5.0,-18.0,-5.0,-1.0,1650822186876267.0
0.0,0.0,2.0,3.0,1.0,8.0,3.0,2.0,1650822186884259.0
-1.0,0.0,5.0,3.0,3.0,19.0,0.0,-1.0,1650822186884259.0
0.0,-1.0,-6.0,-5.0,-6.0,-6.0,-2.0,-3.0,1650822186885231.0
-1.0,3.0,-1.0,-2.0,0.0,-10.0,1.0,-2.0,1650822186885231.0
0.0,0.0,1.0,-2.0,-7.0,-5.0,-1.0,1.0,1650822186906745.0
-2.0,-1.0,-2.0,1.0,13.0,-6.0,-2.0,-1.0,1650822186906745.0
-2.0,-4.0,-1.0,0.0,1.0,7.0,-2.0,-1.0,1650822186907752.0
-4.0,1.0,2.0,2.0,-19.0,-7.0,-1.0,0.0,1650822186907752.0
-1.0,-3.0,-2.0,1.0,12.0,9.0,3.0,1.0,1650822186919924.0
-5.0,3.0,2.0,4.0,11.0,13.0,2.0,0.0,1650822186919924.0
4.0,-1.0,-5.0,-9.0,-13.0,-18.0,-3.0,-1.0,1650822186928820.0
-1.0,-1.0,-2.0,-4.0,-2.0,3.0,-3.0,-4.0,1650822186928820.0
-1.0,1.0,0.0,3.0,-2.0,10.0,2.0,1.0,1650822186943921.0
0.0,0.0,0.0,-4.0,-10.0,-10.0,2.0,1.0,1650822186943921.0
-11.0,-4.0,-1.0,-1.0,6.0,-7.0,-4.0,1.0,1650822186945939.0
6.0,2.0,-2.0,-3.0,-5.0,-10.0,-3.0,1.0,1650822186945939.0
2.0,1.0,1.0,1.0,0.0,5.0,-1.0,-2.0,1650822186966828.0
2.0,0.0,0.0,-1.0,-1.0,4.0,1.0,-3.0,1650822186966828.0
0.0,-1.0,-1.0,-3.0,1.0,14.0,1.0,2.0,1650822186967834.0
-4.0,-2.0,3.0,-1.0,6.0,0.0,1.0,-3.0,1650822186967834.0
-3.0,0.0,0.0,2.0,2.0,-2.0,-1.0,3.0,1650822186979927.0
3.0,-1.0,1.0,-1.0,-6.0,-12.0,-2.0,2.0,1650822186979927.0
2.0,-2.0,-2.0,-1.0,-4.0,-7.0,-4.0,-5.0,1650822186988846.0
-7.0,-2.0,1.0,1.0,-4.0,8.0,0.0,0.0,1650822186988846.0
9.0,-4.0,-6.0,-2.0,11.0,4.0,1.0,6.0,1650822187003977.0
-1.0,5.0,1.0,0.0,-8.0,-8.0,-3.0,-9.0,1650822187003977.0
1.0,-1.0,0.0,0.0,0.0,4.0,2.0,-3.0,1650822187005936.0
0.0,1.0,1.0,0.0,1.0,5.0,1.0,4.0,1650822187005936.0
-8.0,-4.0,0.0,-2.0,-13.0,-22.0,-8.0,-10.0,1650822187025852.0
0.0,-1.0,-3.0,1.0,7.0,15.0,2.0,0.0,1650822187025852.0
-3.0,2.0,3.0,3.0,8.0,14.0,5.0,14.0,1650822187027846.0
2.0,5.0,2.0,0.0,0.0,-7.0,1.0,1.0,1650822187027846.0
-1.0,-3.0,-2.0,-3.0,-3.0,-6.0,-5.0,-24.0,1650822187039815.0
-8.0,-2.0,-6.0,-4.0,-4.0,-5.0,-10.0,0.0,1650822187039815.0
8.0,12.0,2.0,0.0,-11.0,-13.0,4.0,22.0,1650822187056769.0
12.0,1.0,-1.0,1.0,14.0,19.0,17.0,24.0,1650822187056769.0
-14.0,1.0,-1.0,-1.0,5.0,8.0,1.0,-3.0,1650822187063817.0
4.0,-6.0,-1.0,4.0,-3.0,-9.0,-12.0,-38.0,1650822187063817.0
-1.0,-2.0,-3.0,0.0,-1.0,-2.0,-10.0,-8.0,1650822187065772.0
13.0,4.0,3.0,0.0,-4.0,-2.0,0.0,-48.0,1650822187065772.0
-23.0,2.0,0.0,-1.0,-3.0,4.0,25.0,61.0,1650822187086782.0
-9.0,-30.0,-5.0,-10.0,-16.0,-41.0,-8.0,-19.0,1650822187086782.0
-3.0,1.0,-1.0,3.0,5.0,21.0,-10.0,-9.0,1650822187087782.0
-1.0,10.0,3.0,1.0,8.0,19.0,-10.0,6.0,1650822187087782.0
30.0,-16.0,2.0,2.0,4.0,8.0,2.0,-12.0,1650822187099826.0
-27.0,13.0,1.0,5.0,3.0,-16.0,1.0,18.0,1650822187099826.0
-22.0,-14.0,-7.0,-5.0,-6.0,-15.0,-3.0,-17.0,1650822187108778.0
29.0,9.0,1.0,-2.0,-1.0,5.0,-9.0,-19.0,1650822187108778.0
4.0,16.0,6.0,-3.0,-9.0,-6.0,-9.0,7.0,1650822187123959.0
42.0,9.0,-1.0,-4.0,-8.0,-4.0,7.0,29.0,1650822187123959.0
-45.0,-15.0,-9.0,0.0,19.0,8.0,12.0,8.0,1650822187125908.0
-24.0,-8.0,-6.0,-1.0,-3.0,-5.0,-3.0,-4.0,1650822187125908.0
-1.0,7.0,4.0,6.0,1.0,-3.0,-5.0,-6.0,1650822187146844.0
12.0,-5.0,1.0,0.0,3.0,12.0,4.0,11.0,1650822187146844.0
12.0,5.0,5.0,1.0,5.0,4.0,7.0,31.0,1650822187147824.0
-8.0,-5.0,1.0,-3.0,-3.0,-1.0,-4.0,-48.0,1650822187147824.0
-3.0,-1.0,-4.0,-5.0,-12.0,-12.0,-7.0,-18.0,1650822187168835.0
-16.0,-3.0,1.0,0.0,3.0,10.0,-3.0,-7.0,1650822187168835.0
8.0,3.0,0.0,2.0,6.0,9.0,4.0,6.0,1650822187170762.0
-5.0,-8.0,10.0,2.0,-1.0,-18.0,1.0,35.0,1650822187170762.0
15.0,-24.0,-32.0,-12.0,-13.0,-8.0,-6.0,-15.0,1650822187183659.0
4.0,20.0,15.0,3.0,-1.0,8.0,2.0,-5.0,1650822187183659.0
6.0,10.0,0.0,-1.0,6.0,5.0,-1.0,-15.0,1650822187189711.0
6.0,-8.0,0.0,9.0,8.0,10.0,6.0,21.0,1650822187189711.0
-13.0,6.0,18.0,4.0,0.0,-12.0,0.0,-4.0,1650822187206748.0
-5.0,-14.0,-21.0,-9.0,6.0,14.0,1.0,7.0,1650822187206748.0
16.0,-4.0,1.0,-6.0,-12.0,3.0,-4.0,-19.0,1650822187207719.0
24.0,0.0,-12.0,-3.0,-4.0,-15.0,-3.0,4.0,1650822187207719.0
-71.0,-2.0,8.0,1.0,0.0,9.0,2.0,21.0,1650822187228729.0
2.0,-3.0,-13.0,0.0,1.0,-3.0,1.0,-13.0,1650822187228729.0
17.0,1.0,7.0,2.0,-1.0,-6.0,-3.0,-17.0,1650822187230680.0
-9.0,-26.0,20.0,1.0,1.0,1.0,0.0,13.0,1650822187230680.0
17.0,9.0,6.0,-1.0,-3.0,-2.0,1.0,9.0,1650822187243622.0
12.0,-4.0,2.0,5.0,4.0,3.0,5.0,8.0,1650822187243622.0
-29.0,-5.0,-4.0,-1.0,-9.0,-7.0,-2.0,-8.0,1650822187249664.0
-6.0,-1.0,-5.0,-11.0,-23.0,-20.0,2.0,13.0,1650822187249664.0
6.0,15.0,7.0,6.0,16.0,16.0,-1.0,-21.0,1650822187266770.0
-4.0,4.0,13.0,5.0,9.0,13.0,2.0,6.0,1650822187266770.0
24.0,12.0,-1.0,-2.0,6.0,6.0,2.0,0.0,1650822187267770.0
-31.0,-12.0,-21.0,-2.0,7.0,15.0,6.0,21.0,1650822187267770.0
11.0,1.0,8.0,3.0,2.0,3.0,-3.0,-14.0,1650822187295982.0
-6.0,3.0,0.0,-6.0,-16.0,-24.0,-8.0,-11.0,1650822187295982.0
-7.0,-10.0,-7.0,-7.0,-15.0,-20.0,-5.0,6.0,1650822187297980.0
-4.0,7.0,-1.0,5.0,1.0,-4.0,-1.0,10.0,1650822187297980.0
10.0,3.0,-3.0,-4.0,3.0,8.0,-2.0,0.0,1650822187303990.0
8.0,-1.0,3.0,3.0,2.0,10.0,3.0,8.0,1650822187303990.0
13.0,-1.0,0.0,-1.0,1.0,-7.0,2.0,24.0,1650822187304988.0
-17.0,14.0,11.0,1.0,-5.0,-1.0,-7.0,-41.0,1650822187304988.0
39.0,-13.0,-13.0,-3.0,3.0,4.0,-1.0,-16.0,1650822187326159.0
-24.0,-1.0,-1.0,0.0,-5.0,-20.0,0.0,10.0,1650822187326159.0
0.0,-9.0,-13.0,0.0,-14.0,0.0,-1.0,1.0,1650822187328119.0
6.0,7.0,4.0,6.0,20.0,15.0,-3.0,1.0,1650822187328119.0
6.0,-2.0,-8.0,-3.0,0.0,-9.0,2.0,13.0,1650822187349281.0
8.0,7.0,8.0,0.0,-1.0,5.0,2.0,9.0,1650822187349281.0
-10.0,-4.0,-4.0,3.0,-2.0,4.0,0.0,-9.0,1650822187350183.0
22.0,4.0,-5.0,-7.0,-10.0,-27.0,-11.0,-3.0,1650822187350183.0
2.0,1.0,2.0,1.0,3.0,6.0,2.0,16.0,1650822187363681.0
5.0,-11.0,-7.0,-3.0,5.0,19.0,5.0,13.0,1650822187363681.0
-1.0,3.0,3.0,6.0,14.0,-2.0,4.0,-5.0,1650822187369732.0
0.0,6.0,8.0,1.0,1.0,-4.0,-1.0,3.0,1650822187369732.0
-11.0,-10.0,-18.0,-9.0,-13.0,-13.0,-3.0,3.0,1650822187386868.0
-7.0,10.0,-2.0,-1.0,-10.0,4.0,3.0,21.0,1650822187386868.0
26.0,-14.0,10.0,-1.0,-6.0,-3.0,-4.0,-26.0,1650822187387868.0
5.0,3.0,-13.0,-5.0,-1.0,-10.0,-3.0,-3.0,1650822187387868.0
-6.0,6.0,3.0,5.0,20.0,17.0,1.0,-5.0,1650822187408858.0
-5.0,-5.0,-3.0,0.0,3.0,7.0,3.0,-6.0,1650822187408858.0
-13.0,14.0,24.0,4.0,-5.0,-6.0,-2.0,5.0,1650822187410907.0
3.0,-6.0,-17.0,-6.0,-9.0,-15.0,-2.0,11.0,1650822187410907.0
-39.0,-19.0,-19.0,-7.0,-22.0,-12.0,-7.0,-10.0,1650822187431096.0
13.0,-3.0,10.0,4.0,5.0,10.0,-1.0,-9.0,1650822187431096.0
-9.0,6.0,6.0,6.0,18.0,11.0,3.0,5.0,1650822187433025.0
4.0,4.0,6.0,7.0,12.0,14.0,8.0,11.0,1650822187433025.0
8.0,-9.0,-6.0,-4.0,-1.0,2.0,3.0,-3.0,1650822187446055.0
-5.0,4.0,-4.0,-10.0,-11.0,-14.0,-6.0,5.0,1650822187446055.0
-8.0,-11.0,-11.0,-5.0,-23.0,-27.0,-7.0,-41.0,1650822187447985.0
-6.0,1.0,5.0,-4.0,-3.0,8.0,-1.0,-6.0,1650822187447985.0
3.0,-1.0,6.0,8.0,11.0,16.0,5.0,17.0,1650822187468872.0
-2.0,2.0,4.0,0.0,8.0,13.0,6.0,11.0,1650822187468872.0
-1.0,0.0,-3.0,1.0,4.0,0.0,2.0,-8.0,1650822187470825.0
0.0,-3.0,-4.0,-2.0,-12.0,-11.0,2.0,4.0,1650822187470825.0
1.0,10.0,22.0,7.0,10.0,-7.0,0.0,-1.0,1650822187483569.0
-11.0,-10.0,-15.0,-2.0,11.0,5.0,-4.0,-7.0,1650822187483569.0
15.0,6.0,-10.0,-1.0,3.0,7.0,1.0,15.0,1650822187489822.0
-10.0,-10.0,3.0,-3.0,-8.0,-1.0,-2.0,-5.0,1650822187489822.0
8.0,6.0,-3.0,-5.0,-24.0,-24.0,-7.0,-2.0,1650822187506868.0
-20.0,-18.0,-29.0,-10.0,-11.0,-22.0,-9.0,-15.0,1650822187506868.0
9.0,2.0,0.0,-6.0,9.0,23.0,4.0,27.0,1650822187507813.0
3.0,6.0,1.0,4.0,11.0,31.0,9.0,5.0,1650822187507813.0
-23.0,-18.0,-11.0,2.0,7.0,6.0,5.0,-19.0,1650822187528959.0
28.0,17.0,12.0,7.0,7.0,-10.0,1.0,-5.0,1650822187528959.0
-39.0,0.0,-1.0,-6.0,-13.0,-19.0,-9.0,-6.0,1650822187530889.0
-7.0,-3.0,-2.0,-4.0,-5.0,4.0,-3.0,1.0,1650822187530889.0
13.0,9.0,-1.0,-6.0,-10.0,-5.0,3.0,28.0,1650822187542924.0
-7.0,-2.0,-2.0,2.0,7.0,-8.0,-7.0,-62.0,1650822187542924.0
4.0,1.0,3.0,2.0,10.0,13.0,3.0,6.0,1650822187549904.0
0.0,5.0,4.0,-1.0,1.0,8.0,2.0,17.0,1650822187549904.0
-7.0,-6.0,-9.0,-1.0,11.0,7.0,-2.0,-30.0,1650822187573991.0
3.0,14.0,20.0,5.0,-18.0,-28.0,-4.0,4.0,1650822187573991.0
13.0,-9.0,-6.0,-6.0,-10.0,-10.0,-6.0,3.0,1650822187575029.0
-10.0,-2.0,-1.0,-3.0,-2.0,7.0,4.0,-12.0,1650822187575029.0
7.0,-5.0,-2.0,2.0,-3.0,-2.0,-5.0,9.0,1650822187589210.0
-7.0,2.0,8.0,6.0,18.0,27.0,8.0,-20.0,1650822187589210.0
-6.0,2.0,-1.0,4.0,12.0,3.0,5.0,-8.0,1650822187590143.0
-2.0,-8.0,-2.0,3.0,-2.0,-12.0,-6.0,0.0,1650822187590143.0
-1.0,6.0,-4.0,-10.0,-16.0,-11.0,-5.0,8.0,1650822187603174.0
-5.0,-13.0,-16.0,-8.0,-8.0,-1.0,-2.0,-1.0,1650822187603174.0
-4.0,6.0,11.0,-4.0,-25.0,-23.0,-4.0,24.0,1650822187610155.0
2.0,-1.0,-2.0,2.0,17.0,13.0,3.0,-15.0,1650822187610155.0
-2.0,-14.0,-6.0,1.0,7.0,9.0,3.0,7.0,1650822187626035.0
21.0,14.0,10.0,2.0,6.0,10.0,0.0,7.0,1650822187626035.0
17.0,5.0,3.0,6.0,7.0,9.0,7.0,29.0,1650822187627969.0
-8.0,0.0,-7.0,2.0,0.0,-3.0,-4.0,-41.0,1650822187627969.0
7.0,7.0,18.0,-1.0,-1.0,-5.0,-2.0,23.0,1650822187648835.0
-4.0,-5.0,-10.0,-3.0,-11.0,-17.0,-6.0,-20.0,1650822187648835.0
-7.0,1.0,3.0,-1.0,-16.0,-17.0,-5.0,-6.0,1650822187650858.0
6.0,6.0,1.0,-1.0,-11.0,4.0,-4.0,8.0,1650822187650858.0
-2.0,-3.0,2.0,15.0,29.0,31.0,7.0,-2.0,1650822187662866.0
-6.0,3.0,9.0,2.0,6.0,3.0,5.0,22.0,1650822187662866.0
-2.0,1.0,-12.0,-11.0,-10.0,-17.0,-7.0,-34.0,1650822187671852.0
-10.0,-8.0,-10.0,-9.0,6.0,-2.0,-2.0,1.0,1650822187671852.0
3.0,2.0,13.0,1.0,-7.0,-1.0,2.0,-9.0,1650822187686805.0
-4.0,-2.0,1.0,1.0,9.0,12.0,3.0,9.0,1650822187686805.0
-9.0,-3.0,-2.0,2.0,6.0,3.0,-1.0,19.0,1650822187687805.0
11.0,2.0,-4.0,1.0,-7.0,-8.0,0.0,-20.0,1650822187687805.0
11.0,7.0,2.0,-2.0,-11.0,-13.0,-5.0,-16.0,1650822187708872.0
-43.0,-13.0,-3.0,-3.0,-5.0,-3.0,-6.0,-25.0,1650822187708872.0
23.0,-5.0,-7.0,-1.0,5.0,5.0,-1.0,8.0,1650822187710801.0
0.0,11.0,4.0,1.0,-7.0,-10.0,-5.0,1.0,1650822187710801.0
-6.0,5.0,-7.0,-3.0,-10.0,-13.0,-3.0,4.0,1650822187722834.0
5.0,1.0,10.0,3.0,7.0,14.0,4.0,0.0,1650822187722834.0
-14.0,6.0,7.0,3.0,17.0,25.0,5.0,-4.0,1650822187738824.0
16.0,-3.0,-4.0,3.0,6.0,3.0,7.0,20.0,1650822187738824.0
0.0,2.0,-11.0,-8.0,-13.0,-22.0,-6.0,-5.0,1650822187746820.0
7.0,3.0,7.0,-2.0,-13.0,-7.0,-2.0,18.0,1650822187746820.0
13.0,-9.0,2.0,2.0,-5.0,7.0,3.0,-7.0,1650822187747802.0
-11.0,-2.0,2.0,1.0,15.0,-8.0,2.0,24.0,1650822187747802.0
12.0,8.0,4.0,1.0,3.0,9.0,1.0,-3.0,1650822187768952.0
-5.0,-3.0,0.0,2.0,6.0,11.0,3.0,-38.0,1650822187768952.0
6.0,3.0,1.0,0.0,6.0,7.0,0.0,-7.0,1650822187770904.0
-7.0,-8.0,-5.0,2.0,-5.0,-10.0,0.0,12.0,1650822187770904.0
-4.0,3.0,8.0,-6.0,-16.0,-11.0,-5.0,-19.0,1650822187782962.0
3.0,-6.0,-14.0,-7.0,1.0,-1.0,-1.0,18.0,1650822187782962.0
-2.0,-17.0,-22.0,-5.0,1.0,0.0,2.0,33.0,1650822187791968.0
-8.0,-4.0,-5.0,-2.0,-16.0,-4.0,-4.0,-35.0,1650822187791968.0
-8.0,1.0,-4.0,2.0,11.0,-1.0,1.0,3.0,1650822187806130.0
4.0,8.0,18.0,8.0,12.0,21.0,5.0,13.0,1650822187806130.0
-3.0,5.0,12.0,-4.0,-5.0,-3.0,-3.0,-12.0,1650822187808100.0
0.0,1.0,-14.0,-1.0,-1.0,-1.0,-3.0,8.0,1650822187808100.0
-5.0,-23.0,-18.0,-4.0,-1.0,-5.0,-1.0,1.0,1650822187828861.0
12.0,9.0,12.0,0.0,-16.0,-16.0,1.0,48.0,1650822187828861.0
1.0,2.0,1.0,7.0,16.0,5.0,0.0,-18.0,1650822187830904.0
5.0,2.0,7.0,-2.0,7.0,13.0,2.0,8.0,1650822187830904.0
0.0,10.0,8.0,4.0,-2.0,7.0,3.0,-6.0,1650822187851104.0
-13.0,-11.0,-25.0,-8.0,-5.0,-18.0,-6.0,7.0,1650822187851104.0
7.0,1.0,15.0,-8.0,-20.0,-17.0,-9.0,5.0,1650822187853034.0
-14.0,-27.0,-35.0,-7.0,-4.0,4.0,-2.0,-5.0,1650822187853034.0
1.0,7.0,4.0,1.0,11.0,8.0,6.0,18.0,1650822187866113.0
8.0,-4.0,-9.0,-3.0,-7.0,1.0,3.0,11.0,1650822187866113.0
-23.0,0.0,4.0,3.0,-7.0,-15.0,-5.0,-46.0,1650822187868107.0
10.0,6.0,9.0,-5.0,7.0,25.0,0.0,19.0,1650822187868107.0
3.0,-5.0,6.0,3.0,12.0,21.0,4.0,-18.0,1650822187888874.0
-6.0,1.0,-2.0,8.0,3.0,-7.0,-2.0,-7.0,1650822187888874.0
4.0,-6.0,-19.0,-7.0,-1.0,-12.0,-1.0,-3.0,1650822187890882.0
8.0,13.0,18.0,4.0,-11.0,-17.0,-1.0,14.0,1650822187890882.0
-11.0,-2.0,-6.0,-3.0,-4.0,1.0,-5.0,-5.0,1650822187902905.0
10.0,6.0,5.0,-5.0,1.0,-3.0,-2.0,11.0,1650822187902905.0
-5.0,-8.0,-19.0,0.0,7.0,20.0,4.0,3.0,1650822187911853.0
-12.0,-13.0,-16.0,-5.0,-2.0,-2.0,-3.0,-21.0,1650822187911853.0
2.0,6.0,7.0,1.0,-4.0,-5.0,0.0,5.0,1650822187926776.0
-1.0,-2.0,-6.0,-4.0,-8.0,-16.0,-7.0,-22.0,1650822187926776.0
0.0,-3.0,-2.0,0.0,2.0,15.0,-2.0,10.0,1650822187927777.0
-5.0,-1.0,5.0,1.0,6.0,6.0,4.0,10.0,1650822187927777.0
-7.0,-9.0,-11.0,0.0,2.0,-5.0,-3.0,-8.0,1650822187949010.0
20.0,6.0,13.0,-3.0,-10.0,-13.0,-3.0,20.0,1650822187949010.0
-11.0,1.0,-7.0,-3.0,-13.0,-7.0,-2.0,-35.0,1650822187950938.0
-2.0,3.0,13.0,3.0,2.0,1.0,-1.0,-2.0,1650822187950938.0
5.0,0.0,0.0,-1.0,2.0,0.0,2.0,8.0,1650822187962921.0
-1.0,-6.0,-12.0,2.0,9.0,15.0,6.0,4.0,1650822187962921.0
2.0,6.0,-7.0,3.0,25.0,20.0,2.0,15.0,1650822187971881.0
4.0,-1.0,22.0,0.0,-7.0,-9.0,0.0,-9.0,1650822187971881.0
-6.0,6.0,1.0,-5.0,-18.0,-52.0,-10.0,3.0,1650822187986744.0
0.0,-8.0,-11.0,-6.0,-11.0,19.0,1.0,-3.0,1650822187986744.0
5.0,13.0,0.0,1.0,-1.0,20.0,2.0,-3.0,1650822187987940.0
9.0,-10.0,2.0,2.0,5.0,-3.0,1.0,-9.0,1650822187987940.0
10.0,7.0,14.0,2.0,2.0,0.0,-3.0,11.0,1650822188008877.0
-24.0,-4.0,-1.0,-2.0,-7.0,-12.0,-2.0,17.0,1650822188008877.0
-3.0,-12.0,6.0,2.0,2.0,-7.0,2.0,23.0,1650822188010903.0
-6.0,3.0,-22.0,-7.0,-6.0,-5.0,-3.0,-10.0,1650822188010903.0
12.0,6.0,10.0,-4.0,-4.0,3.0,-2.0,-10.0,1650822188022922.0
5.0,-9.0,-15.0,-1.0,-3.0,-8.0,-5.0,-12.0,1650822188022922.0
14.0,10.0,6.0,-3.0,0.0,6.0,4.0,18.0,1650822188031962.0
-19.0,2.0,15.0,4.0,3.0,4.0,-2.0,-18.0,1650822188031962.0
1.0,-11.0,-22.0,-4.0,-1.0,3.0,3.0,4.0,1650822188046171.0
2.0,9.0,2.0,5.0,28.0,16.0,0.0,-11.0,1650822188046171.0
-5.0,5.0,10.0,4.0,0.0,6.0,3.0,1.0,1650822188048165.0
8.0,4.0,-2.0,-5.0,-15.0,-25.0,-6.0,5.0,1650822188048165.0
-9.0,4.0,12.0,2.0,-13.0,1.0,0.0,-15.0,1650822188069369.0
10.0,-1.0,-13.0,3.0,14.0,19.0,3.0,1.0,1650822188069369.0
-12.0,-21.0,-29.0,-7.0,3.0,-4.0,0.0,-4.0,1650822188070355.0
1.0,1.0,11.0,1.0,-6.0,-10.0,-2.0,21.0,1650822188070355.0
21.0,1.0,-6.0,-2.0,-3.0,0.0,-1.0,-6.0,1650822188082390.0
-8.0,0.0,8.0,1.0,-13.0,-10.0,-4.0,-18.0,1650822188082390.0
7.0,-2.0,11.0,2.0,6.0,-5.0,-3.0,12.0,1650822188091299.0
0.0,11.0,0.0,-1.0,5.0,9.0,1.0,1.0,1650822188091299.0
-11.0,-13.0,-4.0,-2.0,4.0,5.0,0.0,11.0,1650822188105934.0
24.0,4.0,3.0,-5.0,-9.0,-14.0,-4.0,-15.0,1650822188105934.0
-18.0,-4.0,-12.0,-1.0,-8.0,-8.0,-2.0,-12.0,1650822188107865.0
-25.0,-5.0,-7.0,-4.0,5.0,18.0,3.0,4.0,1650822188107865.0
-12.0,-5.0,5.0,3.0,9.0,12.0,3.0,14.0,1650822188128860.0
-2.0,16.0,20.0,3.0,-4.0,-3.0,-1.0,-34.0,1650822188128860.0
0.0,-6.0,1.0,-2.0,-15.0,-23.0,-6.0,-2.0,1650822188130866.0
8.0,0.0,-6.0,-3.0,1.0,-9.0,-2.0,10.0,1650822188130866.0
-2.0,8.0,2.0,6.0,16.0,18.0,1.0,-8.0,1650822188151104.0
-11.0,-7.0,-17.0,-12.0,-18.0,-24.0,-6.0,3.0,1650822188151104.0
3.0,9.0,21.0,1.0,-13.0,-4.0,-2.0,0.0,1650822188153033.0
6.0,3.0,4.0,9.0,17.0,24.0,7.0,-8.0,1650822188153033.0
4.0,3.0,19.0,11.0,15.0,10.0,5.0,14.0,1650822188166108.0
4.0,5.0,5.0,0.0,-1.0,1.0,5.0,15.0,1650822188166108.0
-8.0,-18.0,-15.0,-7.0,-8.0,-16.0,-7.0,-37.0,1650822188168119.0
2.0,2.0,1.0,-1.0,-5.0,-4.0,-5.0,-9.0,1650822188168119.0
-11.0,-5.0,-12.0,-6.0,-8.0,0.0,-2.0,-7.0,1650822188188870.0
3.0,-6.0,12.0,3.0,0.0,-5.0,0.0,9.0,1650822188188870.0
11.0,6.0,10.0,3.0,1.0,2.0,0.0,0.0,1650822188190829.0
7.0,-14.0,-22.0,-3.0,1.0,-5.0,4.0,31.0,1650822188190829.0
-2.0,4.0,6.0,-1.0,-3.0,1.0,-7.0,-25.0,1650822188210964.0
-14.0,1.0,0.0,4.0,6.0,9.0,3.0,2.0,1650822188210964.0
3.0,-6.0,-6.0,-3.0,-4.0,2.0,-1.0,7.0,1650822188212892.0
12.0,4.0,1.0,0.0,-5.0,-10.0,-3.0,-3.0,1650822188212892.0
-5.0,3.0,-12.0,1.0,-4.0,-8.0,-1.0,13.0,1650822188226012.0
27.0,7.0,6.0,-2.0,2.0,5.0,-5.0,-23.0,1650822188226012.0
-1.0,12.0,26.0,11.0,19.0,20.0,9.0,19.0,1650822188227988.0
19.0,7.0,7.0,5.0,2.0,-12.0,4.0,27.0,1650822188227988.0
2.0,-3.0,-7.0,-7.0,-22.0,-11.0,-3.0,-24.0,1650822188248863.0
-9.0,-7.0,-5.0,0.0,7.0,12.0,0.0,-2.0,1650822188248863.0
-4.0,7.0,-1.0,2.0,8.0,6.0,0.0,0.0,1650822188250883.0
3.0,-3.0,-3.0,-5.0,-5.0,3.0,-2.0,-5.0,1650822188250883.0
1.0,-1.0,-2.0,-6.0,-1.0,-5.0,1.0,2.0,1650822188270966.0
-9.0,-2.0,5.0,1.0,-4.0,-12.0,0.0,7.0,1650822188270966.0
2.0,-6.0,-11.0,-5.0,-10.0,-12.0,-6.0,12.0,1650822188272904.0
-13.0,2.0,10.0,2.0,-14.0,-11.0,-5.0,-13.0,1650822188272904.0
-2.0,-5.0,-10.0,-3.0,-3.0,-9.0,-2.0,0.0,1650822188286049.0
0.0,-1.0,10.0,3.0,5.0,18.0,0.0,0.0,1650822188286049.0
-3.0,-3.0,-20.0,-3.0,11.0,16.0,5.0,9.0,1650822188293022.0
-1.0,-12.0,-4.0,2.0,1.0,-1.0,-1.0,-22.0,1650822188293022.0
-3.0,3.0,5.0,2.0,2.0,-12.0,-1.0,8.0,1650822188308874.0
-11.0,-1.0,-10.0,-3.0,1.0,13.0,-1.0,-36.0,1650822188308874.0
-7.0,8.0,12.0,-2.0,-13.0,-14.0,-6.0,11.0,1650822188310882.0
8.0,3.0,3.0,-1.0,-4.0,-2.0,-3.0,-23.0,1650822188310882.0
-2.0,-6.0,-10.0,-5.0,6.0,12.0,2.0,-3.0,1650822188330999.0
-2.0,0.0,-1.0,2.0,1.0,1.0,8.0,38.0,1650822188330999.0
2.0,3.0,-10.0,0.0,2.0,-3.0,0.0,-8.0,1650822188332928.0
-21.0,-18.0,-8.0,-5.0,-10.0,-9.0,-6.0,-13.0,1650822188332928.0
5.0,1.0,1.0,-1.0,-6.0,-8.0,-3.0,10.0,1650822188353963.0
-3.0,0.0,-8.0,-7.0,-2.0,1.0,1.0,-1.0,1650822188353963.0
3.0,-1.0,6.0,-1.0,-4.0,-5.0,-2.0,-5.0,1650822188354989.0
-9.0,-7.0,-12.0,-4.0,-7.0,-18.0,-3.0,18.0,1650822188354989.0
5.0,8.0,2.0,1.0,5.0,20.0,3.0,-2.0,1650822188368887.0
-4.0,1.0,0.0,5.0,24.0,27.0,6.0,8.0,1650822188368887.0
-1.0,-3.0,-7.0,3.0,3.0,2.0,4.0,-4.0,1650822188370843.0
2.0,3.0,8.0,3.0,6.0,0.0,2.0,0.0,1650822188370843.0
0.0,-4.0,-3.0,-5.0,-7.0,-9.0,-4.0,-3.0,1650822188390984.0
-9.0,4.0,-6.0,-7.0,-17.0,-31.0,-14.0,-34.0,1650822188390984.0
-2.0,-6.0,3.0,-2.0,3.0,8.0,2.0,6.0,1650822188392912.0
-2.0,3.0,-5.0,1.0,6.0,15.0,2.0,-25.0,1650822188392912.0
-4.0,-1.0,-4.0,-3.0,-1.0,-2.0,0.0,1.0,1650822188406069.0
4.0,11.0,17.0,3.0,-15.0,-12.0,-1.0,14.0,1650822188406069.0
7.0,5.0,-1.0,-2.0,-3.0,-16.0,-4.0,-1.0,1650822188412121.0
-7.0,0.0,2.0,7.0,17.0,25.0,6.0,6.0,1650822188412121.0
1.0,-2.0,0.0,-1.0,8.0,18.0,0.0,-1.0,1650822188429262.0
8.0,-7.0,-4.0,-1.0,-2.0,-14.0,2.0,10.0,1650822188429262.0
-3.0,0.0,-4.0,-4.0,-21.0,-35.0,-6.0,-6.0,1650822188430219.0
2.0,10.0,12.0,1.0,1.0,20.0,0.0,4.0,1650822188430219.0
-2.0,-4.0,-13.0,2.0,14.0,24.0,6.0,2.0,1650822188451868.0
-2.0,-6.0,8.0,8.0,8.0,-1.0,4.0,5.0,1650822188451868.0
2.0,5.0,-2.0,-1.0,-7.0,-5.0,-4.0,-5.0,1650822188452856.0
-1.0,-2.0,-11.0,-4.0,-7.0,-9.0,-2.0,2.0,1650822188452856.0
1.0,1.0,6.0,2.0,0.0,-4.0,-3.0,-1.0,1650822188466155.0
-7.0,-6.0,-8.0,-3.0,-8.0,-4.0,-3.0,-1.0,1650822188466155.0
-1.0,-2.0,0.0,1.0,1.0,0.0,-1.0,-1.0,1650822188472209.0
-1.0,-5.0,-2.0,-7.0,-8.0,-10.0,-4.0,-1.0,1650822188472209.0
-2.0,2.0,1.0,0.0,-9.0,-10.0,0.0,-1.0,1650822188489248.0
-4.0,-3.0,-3.0,4.0,9.0,11.0,4.0,2.0,1650822188489248.0
11.0,0.0,6.0,7.0,15.0,27.0,10.0,3.0,1650822188490251.0
1.0,6.0,-1.0,-2.0,6.0,0.0,-1.0,0.0,1650822188490251.0
-1.0,-2.0,4.0,-3.0,-15.0,-21.0,-3.0,-5.0,1650822188511848.0
-3.0,-4.0,-8.0,-7.0,-18.0,-1.0,-5.0,-1.0,1650822188511848.0
-1.0,-2.0,1.0,1.0,15.0,15.0,3.0,-1.0,1650822188512842.0
0.0,1.0,4.0,6.0,9.0,7.0,4.0,3.0,1650822188512842.0
0.0,3.0,2.0,3.0,-3.0,-13.0,0.0,0.0,1650822188526096.0
-1.0,-5.0,-3.0,0.0,7.0,9.0,-1.0,2.0,1650822188526096.0
-3.0,1.0,0.0,1.0,-9.0,3.0,-1.0,-2.0,1650822188532149.0
2.0,3.0,1.0,-1.0,-7.0,-17.0,-2.0,-2.0,1650822188532149.0
-2.0,-3.0,-2.0,1.0,0.0,1.0,1.0,2.0,1650822188548887.0
-3.0,-1.0,-4.0,-2.0,4.0,-2.0,2.0,3.0,1650822188548887.0
0.0,-3.0,-2.0,-6.0,-3.0,-5.0,-3.0,-2.0,1650822188550884.0
-4.0,0.0,3.0,5.0,-7.0,-2.0,-4.0,-7.0,1650822188550884.0
0.0,1.0,-8.0,-1.0,1.0,4.0,-1.0,-2.0,1650822188570935.0
3.0,-6.0,3.0,-3.0,-3.0,-2.0,5.0,6.0,1650822188570935.0
4.0,0.0,1.0,-1.0,-2.0,-11.0,3.0,6.0,1650822188572872.0
-3.0,-5.0,-3.0,1.0,6.0,18.0,0.0,-2.0,1650822188572872.0
0.0,2.0,3.0,-2.0,4.0,11.0,-1.0,-4.0,1650822188585997.0
-3.0,0.0,-4.0,1.0,-6.0,-13.0,-5.0,-4.0,1650822188585997.0
-1.0,1.0,0.0,0.0,-2.0,-7.0,-1.0,1.0,1650822188592987.0
1.0,3.0,5.0,0.0,0.0,6.0,3.0,4.0,1650822188592987.0
-1.0,-8.0,-5.0,1.0,9.0,2.0,0.0,1.0,1650822188609028.0
0.0,-1.0,-5.0,-5.0,-10.0,-12.0,-4.0,0.0,1650822188609028.0
-2.0,-3.0,-1.0,-4.0,-15.0,-9.0,-2.0,-4.0,1650822188609961.0
-1.0,2.0,3.0,1.0,5.0,9.0,0.0,2.0,1650822188609961.0
-3.0,-1.0,1.0,0.0,10.0,13.0,2.0,-1.0,1650822188631060.0
2.0,3.0,5.0,3.0,0.0,-5.0,1.0,-1.0,1650822188631060.0
-4.0,0.0,-1.0,1.0,2.0,2.0,-3.0,-3.0,1650822188633016.0
2.0,-2.0,-8.0,-8.0,-10.0,-8.0,0.0,1.0,1650822188633016.0
0.0,-2.0,-3.0,-4.0,-10.0,-12.0,0.0,2.0,1650822188645469.0
-2.0,0.0,11.0,11.0,3.0,-4.0,-3.0,-2.0,1650822188645469.0
-1.0,0.0,0.0,3.0,7.0,7.0,1.0,-2.0,1650822188661581.0
1.0,-1.0,-4.0,-6.0,-3.0,-11.0,-3.0,0.0,1650822188661581.0
0.0,-3.0,6.0,10.0,-5.0,0.0,-2.0,-1.0,1650822188668873.0
1.0,0.0,-11.0,-7.0,3.0,12.0,2.0,2.0,1650822188668873.0
-2.0,0.0,7.0,1.0,0.0,2.0,0.0,0.0,1650822188670828.0
-2.0,-5.0,-7.0,-4.0,2.0,-3.0,-1.0,0.0,1650822188670828.0
-2.0,-1.0,-1.0,-4.0,-2.0,-9.0,-3.0,-1.0,1650822188690967.0
1.0,0.0,1.0,0.0,-3.0,-2.0,1.0,-1.0,1650822188690967.0
-2.0,-2.0,-4.0,0.0,-10.0,0.0,-4.0,-3.0,1650822188692895.0
0.0,-3.0,-3.0,-7.0,0.0,-11.0,0.0,0.0,1650822188692895.0
-2.0,1.0,-3.0,2.0,7.0,13.0,5.0,2.0,1650822188704980.0
0.0,1.0,6.0,2.0,-3.0,-1.0,0.0,1.0,1650822188704980.0
-2.0,-3.0,-1.0,1.0,3.0,7.0,1.0,-2.0,1650822188713969.0
-1.0,0.0,0.0,3.0,2.0,2.0,-2.0,0.0,1650822188713969.0
1.0,-1.0,-3.0,-3.0,3.0,-7.0,1.0,-1.0,1650822188729223.0
1.0,0.0,-8.0,-8.0,1.0,-3.0,0.0,2.0,1650822188729223.0
0.0,1.0,1.0,-3.0,-15.0,-13.0,-3.0,-1.0,1650822188730210.0
-3.0,-6.0,-4.0,2.0,-7.0,1.0,-1.0,-1.0,1650822188730210.0
0.0,-1.0,-1.0,-3.0,-3.0,-1.0,-5.0,-2.0,1650822188751717.0
-3.0,1.0,5.0,5.0,0.0,6.0,-1.0,-3.0,1650822188751717.0
1.0,5.0,10.0,7.0,12.0,6.0,2.0,2.0,1650822188752615.0
1.0,-1.0,-1.0,5.0,12.0,9.0,4.0,2.0,1650822188752615.0
-1.0,0.0,-15.0,-22.0,-6.0,-9.0,-3.0,-1.0,1650822188764581.0
-2.0,-1.0,-6.0,-9.0,-14.0,-11.0,-3.0,-2.0,1650822188764581.0
-4.0,-5.0,-6.0,0.0,0.0,2.0,-2.0,-1.0,1650822188773660.0
0.0,4.0,6.0,6.0,7.0,1.0,2.0,-1.0,1650822188773660.0
-1.0,-2.0,1.0,4.0,-6.0,-3.0,0.0,0.0,1650822188788860.0
-1.0,-2.0,-7.0,-8.0,-2.0,-1.0,-2.0,0.0,1650822188788860.0
1.0,-2.0,1.0,1.0,0.0,-10.0,-1.0,-1.0,1650822188790906.0
0.0,2.0,6.0,7.0,-1.0,17.0,2.0,1.0,1650822188790906.0
4.0,5.0,14.0,8.0,7.0,7.0,2.0,1.0,1650822188811870.0
-2.0,-4.0,-8.0,-4.0,3.0,-9.0,-4.0,-1.0,1650822188811870.0
-2.0,1.0,-2.0,-3.0,-10.0,-6.0,-1.0,-2.0,1650822188812869.0
-1.0,1.0,7.0,5.0,3.0,2.0,-2.0,-1.0,1650822188812869.0
0.0,2.0,3.0,-3.0,6.0,7.0,2.0,0.0,1650822188824870.0
1.0,-2.0,1.0,7.0,8.0,8.0,4.0,0.0,1650822188824870.0
-1.0,-1.0,-6.0,-2.0,-1.0,-4.0,-3.0,0.0,1650822188833688.0
1.0,0.0,0.0,-5.0,-19.0,-20.0,-7.0,-5.0,1650822188833688.0
-4.0,1.0,3.0,5.0,-7.0,-3.0,-3.0,-1.0,1650822188848853.0
0.0,-3.0,-1.0,6.0,5.0,6.0,1.0,-1.0,1650822188848853.0
0.0,0.0,8.0,-2.0,13.0,17.0,4.0,2.0,1650822188850877.0
1.0,-5.0,-19.0,-10.0,-7.0,1.0,0.0,0.0,1650822188850877.0
1.0,-1.0,-5.0,-5.0,-1.0,-4.0,0.0,0.0,1650822188871095.0
-1.0,-2.0,5.0,7.0,-7.0,-9.0,-2.0,-2.0,1650822188871095.0
0.0,9.0,20.0,14.0,-4.0,-17.0,-4.0,-2.0,1650822188873025.0
-6.0,-10.0,-13.0,-6.0,0.0,9.0,1.0,0.0,1650822188873025.0
-1.0,-2.0,-20.0,-20.0,8.0,16.0,3.0,2.0,1650822188884969.0
2.0,1.0,7.0,12.0,9.0,6.0,0.0,2.0,1650822188884969.0
0.0,-3.0,-6.0,-8.0,-11.0,-13.0,-3.0,-3.0,1650822188893683.0
-1.0,1.0,9.0,3.0,-6.0,-6.0,0.0,0.0,1650822188893683.0
-3.0,-2.0,1.0,5.0,0.0,-2.0,-1.0,-2.0,1650822188908875.0
0.0,-1.0,-6.0,-9.0,-3.0,4.0,0.0,-1.0,1650822188908875.0
1.0,-1.0,-5.0,-2.0,10.0,6.0,0.0,1.0,1650822188910804.0
0.0,3.0,3.0,-1.0,-4.0,-11.0,-1.0,-2.0,1650822188910804.0
-1.0,-5.0,9.0,14.0,-4.0,-2.0,1.0,1.0,1650822188930973.0
0.0,-2.0,-4.0,-12.0,-9.0,-9.0,-3.0,0.0,1650822188930973.0
-1.0,-4.0,-9.0,-8.0,-8.0,-10.0,-4.0,-3.0,1650822188932910.0
-1.0,2.0,0.0,1.0,10.0,29.0,7.0,2.0,1650822188932910.0
-1.0,1.0,5.0,12.0,14.0,23.0,6.0,1.0,1650822188944953.0
2.0,0.0,7.0,8.0,6.0,-3.0,1.0,3.0,1650822188944953.0
-1.0,-5.0,-23.0,-20.0,-17.0,-29.0,-7.0,-2.0,1650822188970858.0
1.0,0.0,8.0,3.0,-12.0,-20.0,-6.0,-3.0,1650822188970858.0
0.0,-2.0,-5.0,-2.0,4.0,16.0,1.0,-2.0,1650822188971856.0
0.0,2.0,3.0,0.0,8.0,16.0,7.0,-1.0,1650822188971856.0
3.0,3.0,1.0,4.0,8.0,12.0,5.0,2.0,1650822188974880.0
1.0,1.0,14.0,21.0,9.0,-6.0,-3.0,-1.0,1650822188974880.0
-2.0,-2.0,-5.0,-12.0,-12.0,-23.0,-8.0,0.0,1650822188991805.0
-2.0,-2.0,-9.0,-12.0,-13.0,-7.0,-4.0,-3.0,1650822188991805.0
0.0,-2.0,-1.0,0.0,-2.0,7.0,1.0,0.0,1650822188992800.0
-1.0,0.0,-5.0,1.0,7.0,5.0,2.0,-1.0,1650822188992800.0
0.0,0.0,7.0,9.0,-9.0,-12.0,-3.0,-1.0,1650822189004871.0
-2.0,-3.0,-3.0,-4.0,6.0,-9.0,-5.0,-1.0,1650822189004871.0
2.0,0.0,0.0,1.0,13.0,31.0,7.0,1.0,1650822189013778.0
1.0,1.0,-4.0,-5.0,-4.0,-3.0,1.0,1.0,1650822189013778.0
-1.0,-2.0,-3.0,-4.0,-6.0,-4.0,0.0,-1.0,1650822189028859.0
2.0,0.0,4.0,4.0,-1.0,-3.0,-1.0,-2.0,1650822189028859.0
-13.0,-3.0,4.0,10.0,0.0,0.0,-1.0,-2.0,1650822189030905.0
4.0,-3.0,-11.0,-16.0,-5.0,-9.0,-5.0,1.0,1650822189030905.0
1.0,-3.0,-6.0,-12.0,-13.0,-27.0,-10.0,-3.0,1650822189050970.0
0.0,2.0,4.0,-3.0,-12.0,0.0,-1.0,-1.0,1650822189050970.0
0.0,2.0,12.0,17.0,24.0,37.0,10.0,3.0,1650822189052900.0
0.0,1.0,7.0,9.0,29.0,25.0,9.0,5.0,1650822189052900.0
2.0,1.0,-4.0,-7.0,-5.0,-10.0,1.0,-1.0,1650822189073859.0
-2.0,-2.0,-5.0,-2.0,-9.0,-16.0,-6.0,-1.0,1650822189073859.0
2.0,0.0,-2.0,-5.0,-17.0,-26.0,-10.0,-4.0,1650822189075785.0
-3.0,0.0,-6.0,-11.0,-10.0,-2.0,-2.0,-1.0,1650822189075785.0
0.0,0.0,7.0,8.0,2.0,9.0,1.0,1.0,1650822189088970.0
0.0,0.0,-2.0,-4.0,-2.0,-1.0,-1.0,-1.0,1650822189088970.0
0.0,-4.0,-3.0,-2.0,8.0,3.0,0.0,-2.0,1650822189090915.0
-1.0,3.0,3.0,2.0,1.0,-2.0,0.0,-1.0,1650822189090915.0
0.0,0.0,6.0,8.0,9.0,4.0,1.0,0.0,1650822189111025.0
-1.0,1.0,-1.0,-1.0,3.0,9.0,2.0,1.0,1650822189111025.0
2.0,-3.0,-6.0,-7.0,-10.0,-11.0,-2.0,0.0,1650822189113019.0
-4.0,0.0,-6.0,-9.0,-13.0,-15.0,-4.0,-3.0,1650822189113019.0
-1.0,-2.0,0.0,4.0,-9.0,-7.0,-1.0,-1.0,1650822189134002.0
-1.0,-2.0,1.0,5.0,17.0,23.0,5.0,1.0,1650822189134002.0
4.0,0.0,2.0,3.0,9.0,23.0,4.0,2.0,1650822189135001.0
1.0,-1.0,-1.0,-1.0,-4.0,-18.0,-8.0,-3.0,1650822189135001.0
1.0,1.0,-1.0,-1.0,-4.0,4.0,1.0,-1.0,1650822189147970.0
-3.0,0.0,-6.0,-4.0,-4.0,2.0,9.0,-1.0,1650822189147970.0
-2.0,-2.0,-3.0,-6.0,2.0,-17.0,-8.0,-2.0,1650822189156966.0
-1.0,-4.0,4.0,3.0,2.0,9.0,7.0,2.0,1650822189156966.0
-1.0,0.0,-3.0,-3.0,-4.0,-2.0,-7.0,-1.0,1650822189171855.0
1.0,0.0,-2.0,-1.0,2.0,1.0,-3.0,-1.0,1650822189171855.0
0.0,2.0,-3.0,-6.0,-4.0,4.0,3.0,1.0,1650822189172863.0
1.0,-1.0,-2.0,-1.0,-1.0,-3.0,-3.0,0.0,1650822189172863.0
0.0,3.0,10.0,12.0,6.0,0.0,2.0,0.0,1650822189193988.0
-5.0,-13.0,-16.0,-10.0,-7.0,-4.0,-2.0,-2.0,1650822189193988.0
0.0,0.0,-11.0,-11.0,-15.0,-16.0,-2.0,-1.0,1650822189195027.0
1.0,0.0,16.0,10.0,2.0,6.0,-2.0,0.0,1650822189195027.0
-2.0,-3.0,-4.0,0.0,9.0,12.0,5.0,1.0,1650822189208115.0
2.0,6.0,5.0,4.0,4.0,1.0,-1.0,2.0,1650822189208115.0
-2.0,-5.0,-6.0,-5.0,-2.0,1.0,-2.0,-1.0,1650822189215127.0
0.0,-2.0,-9.0,-6.0,-7.0,-6.0,0.0,0.0,1650822189215127.0
0.0,-1.0,1.0,-3.0,-7.0,-11.0,-1.0,-1.0,1650822189238941.0
1.0,1.0,6.0,5.0,-3.0,-7.0,-5.0,-2.0,1650822189238941.0
-1.0,0.0,-1.0,0.0,3.0,7.0,5.0,0.0,1650822189240903.0
1.0,2.0,1.0,2.0,8.0,14.0,4.0,2.0,1650822189240903.0
2.0,-1.0,-2.0,-3.0,9.0,10.0,3.0,1.0,1650822189254278.0
0.0,1.0,0.0,-3.0,-8.0,-14.0,-3.0,0.0,1650822189254278.0
0.0,1.0,10.0,12.0,-9.0,-8.0,-1.0,0.0,1650822189255186.0
-3.0,0.0,-5.0,-9.0,2.0,0.0,-4.0,-4.0,1650822189255186.0
0.0,-1.0,-1.0,1.0,-1.0,12.0,3.0,2.0,1650822189268220.0
2.0,0.0,-1.0,-4.0,-1.0,-7.0,-2.0,1.0,1650822189268220.0
-1.0,-1.0,2.0,1.0,1.0,-2.0,-2.0,0.0,1650822189274870.0
-1.0,-2.0,-3.0,-5.0,-4.0,-15.0,-3.0,-1.0,1650822189274870.0
0.0,0.0,-4.0,1.0,1.0,5.0,4.0,-2.0,1650822189290939.0
-1.0,-1.0,9.0,6.0,7.0,25.0,4.0,0.0,1650822189290939.0
-1.0,0.0,0.0,2.0,4.0,-5.0,-1.0,1.0,1650822189292879.0
0.0,3.0,1.0,-2.0,-10.0,-14.0,-4.0,1.0,1650822189292879.0
-3.0,-12.0,-11.0,-5.0,-9.0,-19.0,-8.0,-3.0,1650822189314270.0
-7.0,-2.0,-2.0,-2.0,-5.0,-4.0,-2.0,-1.0,1650822189314270.0
1.0,0.0,-6.0,-3.0,5.0,-3.0,1.0,-1.0,1650822189315832.0
-1.0,1.0,2.0,4.0,6.0,19.0,4.0,2.0,1650822189315832.0
0.0,1.0,0.0,-5.0,0.0,8.0,4.0,0.0,1650822189328067.0
1.0,0.0,2.0,3.0,0.0,-17.0,-4.0,-1.0,1650822189328067.0
1.0,2.0,4.0,-1.0,-1.0,3.0,-2.0,-1.0,1650822189335062.0
-2.0,-2.0,-3.0,-2.0,-11.0,4.0,-1.0,0.0,1650822189335062.0
1.0,2.0,2.0,-1.0,-2.0,-9.0,1.0,0.0,1650822189351005.0
0.0,0.0,-7.0,-4.0,3.0,-1.0,-1.0,0.0,1650822189351005.0
-2.0,2.0,3.0,5.0,4.0,1.0,0.0,1.0,1650822189352935.0
-1.0,-3.0,4.0,5.0,-2.0,-9.0,-3.0,-2.0,1650822189352935.0
-1.0,-1.0,-1.0,-3.0,-4.0,1.0,-2.0,-1.0,1650822189373881.0
2.0,0.0,1.0,2.0,4.0,12.0,6.0,0.0,1650822189373881.0
2.0,0.0,-4.0,-2.0,-1.0,2.0,0.0,-1.0,1650822189375811.0
-1.0,-3.0,-3.0,-3.0,-1.0,-3.0,-3.0,0.0,1650822189375811.0
-2.0,2.0,4.0,4.0,-1.0,-17.0,-6.0,-1.0,1650822189387847.0
0.0,2.0,-2.0,-2.0,1.0,22.0,1.0,-1.0,1650822189387847.0
1.0,-2.0,-1.0,-2.0,0.0,14.0,2.0,1.0,1650822189394826.0
1.0,0.0,-5.0,-4.0,-3.0,-10.0,2.0,-1.0,1650822189394826.0
0.0,2.0,2.0,-1.0,1.0,-4.0,-3.0,0.0,1650822189411774.0
2.0,0.0,-2.0,1.0,2.0,4.0,-1.0,2.0,1650822189411774.0
-2.0,-3.0,5.0,4.0,1.0,2.0,1.0,0.0,1650822189412719.0
-2.0,-2.0,1.0,4.0,-1.0,-2.0,0.0,-1.0,1650822189412719.0
-1.0,-1.0,-7.0,-11.0,-10.0,-11.0,-2.0,-1.0,1650822189433907.0
-2.0,1.0,9.0,13.0,8.0,5.0,1.0,0.0,1650822189433907.0
-1.0,0.0,-6.0,-13.0,4.0,6.0,-1.0,-2.0,1650822189435908.0
2.0,-1.0,-7.0,-6.0,-2.0,-9.0,1.0,1.0,1650822189435908.0
-2.0,0.0,1.0,1.0,-11.0,-15.0,-5.0,-1.0,1650822189448619.0
-1.0,-2.0,-1.0,-4.0,-1.0,15.0,0.0,0.0,1650822189448619.0
2.0,0.0,-1.0,0.0,6.0,8.0,2.0,-1.0,1650822189454822.0
1.0,1.0,4.0,8.0,7.0,7.0,4.0,1.0,1650822189454822.0
1.0,1.0,-4.0,-1.0,3.0,5.0,2.0,0.0,1650822189471867.0
-1.0,-1.0,3.0,-3.0,-9.0,-20.0,-4.0,-2.0,1650822189471867.0
-1.0,-2.0,-1.0,-1.0,-6.0,-8.0,-5.0,0.0,1650822189472852.0
-1.0,-3.0,-1.0,-2.0,-5.0,-2.0,-4.0,0.0,1650822189472852.0
-1.0,-2.0,3.0,5.0,0.0,7.0,-1.0,-1.0,1650822189494041.0
-1.0,1.0,-2.0,-2.0,3.0,0.0,2.0,-1.0,1650822189494041.0
-1.0,-3.0,-8.0,-3.0,-9.0,-8.0,-1.0,-1.0,1650822189494994.0
-2.0,4.0,4.0,-3.0,-6.0,-4.0,-1.0,0.0,1650822189494994.0
0.0,0.0,5.0,10.0,15.0,13.0,2.0,2.0,1650822189516336.0
0.0,-1.0,-6.0,-9.0,4.0,1.0,0.0,0.0,1650822189516336.0
1.0,-2.0,-2.0,0.0,-5.0,-6.0,0.0,0.0,1650822189518266.0
-3.0,-1.0,-4.0,-4.0,-14.0,-14.0,-2.0,-2.0,1650822189518266.0
0.0,0.0,-1.0,3.0,6.0,23.0,1.0,-1.0,1650822189531296.0
-1.0,0.0,6.0,10.0,-6.0,-12.0,-4.0,-1.0,1650822189531296.0
-2.0,-1.0,-3.0,-5.0,0.0,-7.0,-3.0,-3.0,1650822189533254.0
0.0,-1.0,-3.0,-1.0,2.0,13.0,1.0,-1.0,1650822189533254.0
1.0,1.0,-3.0,-2.0,9.0,7.0,5.0,1.0,1650822189554245.0
4.0,0.0,2.0,2.0,1.0,-1.0,2.0,2.0,1650822189554245.0
-4.0,0.0,9.0,12.0,-8.0,-14.0,-6.0,0.0,1650822189555804.0
-2.0,-4.0,-14.0,-21.0,-9.0,-3.0,-3.0,-3.0,1650822189555804.0
-1.0,-2.0,-3.0,0.0,-1.0,-1.0,-2.0,0.0,1650822189567919.0
-1.0,5.0,6.0,0.0,3.0,2.0,0.0,0.0,1650822189567919.0
1.0,-1.0,2.0,1.0,-6.0,-5.0,2.0,0.0,1650822189576133.0
0.0,3.0,0.0,-2.0,2.0,-10.0,-3.0,-1.0,1650822189576133.0
-1.0,-2.0,3.0,2.0,1.0,5.0,0.0,0.0,1650822189591873.0
0.0,-2.0,-4.0,-2.0,2.0,5.0,1.0,0.0,1650822189591873.0
0.0,0.0,5.0,7.0,7.0,12.0,5.0,1.0,1650822189592864.0
0.0,1.0,3.0,8.0,6.0,4.0,2.0,3.0,1650822189592864.0
-1.0,-1.0,-6.0,-6.0,-12.0,-16.0,-4.0,-2.0,1650822189613932.0
0.0,-3.0,-8.0,-9.0,-19.0,-19.0,-7.0,-3.0,1650822189613932.0
-2.0,-2.0,-2.0,-3.0,6.0,14.0,2.0,0.0,1650822189615887.0
-7.0,-3.0,5.0,8.0,13.0,17.0,4.0,-1.0,1650822189615887.0
5.0,-1.0,0.0,0.0,-5.0,-14.0,-2.0,0.0,1650822189627262.0
-2.0,-1.0,-7.0,-5.0,-3.0,-6.0,-3.0,-2.0,1650822189627262.0
0.0,-3.0,1.0,2.0,-13.0,-22.0,-7.0,-1.0,1650822189636885.0
4.0,2.0,0.0,3.0,7.0,16.0,3.0,-1.0,1650822189636885.0
-8.0,0.0,4.0,2.0,7.0,17.0,1.0,0.0,1650822189650924.0
-1.0,-2.0,-6.0,-7.0,-1.0,-8.0,2.0,1.0,1650822189650924.0
-1.0,0.0,-3.0,-2.0,-9.0,-7.0,-4.0,-2.0,1650822189652853.0
2.0,1.0,3.0,1.0,-3.0,4.0,-1.0,0.0,1650822189652853.0
1.0,-1.0,-1.0,1.0,9.0,4.0,1.0,0.0,1650822189674009.0
1.0,-1.0,-3.0,-2.0,-1.0,-2.0,2.0,2.0,1650822189674009.0
-2.0,-2.0,-3.0,-3.0,-6.0,-4.0,-1.0,0.0,1650822189675022.0
1.0,0.0,-1.0,3.0,0.0,-7.0,-3.0,-1.0,1650822189675022.0
-2.0,-3.0,-2.0,-2.0,4.0,9.0,-1.0,-1.0,1650822189688021.0
-3.0,0.0,2.0,0.0,-5.0,-4.0,0.0,2.0,1650822189688021.0
0.0,1.0,8.0,7.0,2.0,2.0,1.0,-2.0,1650822189696598.0
0.0,-1.0,-5.0,-8.0,-9.0,-2.0,0.0,0.0,1650822189696598.0
2.0,3.0,-2.0,-2.0,-6.0,-7.0,-1.0,2.0,1650822189710858.0
-1.0,-3.0,8.0,9.0,9.0,5.0,-2.0,-3.0,1650822189710858.0
0.0,0.0,-4.0,0.0,6.0,10.0,0.0,-2.0,1650822189712854.0
-1.0,-2.0,-4.0,-3.0,1.0,-12.0,-10.0,-4.0,1650822189712854.0
-1.0,0.0,-2.0,-6.0,-8.0,-10.0,6.0,0.0,1650822189734269.0
0.0,0.0,1.0,-3.0,-5.0,2.0,2.0,0.0,1650822189734269.0
2.0,-1.0,-2.0,-4.0,9.0,18.0,2.0,2.0,1650822189735813.0
-3.0,-3.0,2.0,3.0,1.0,-4.0,-1.0,-1.0,1650822189735813.0
2.0,4.0,0.0,3.0,-5.0,-10.0,-8.0,-2.0,1650822189747918.0
-2.0,-3.0,5.0,7.0,-2.0,1.0,-3.0,-1.0,1650822189747918.0
0.0,1.0,-2.0,-3.0,5.0,6.0,4.0,-1.0,1650822189756904.0
-1.0,-3.0,5.0,5.0,-3.0,-4.0,-3.0,0.0,1650822189756904.0
0.0,1.0,-5.0,-9.0,-12.0,-14.0,-1.0,1.0,1650822189770997.0
-1.0,2.0,2.0,7.0,6.0,9.0,1.0,-1.0,1650822189770997.0
0.0,0.0,-4.0,-3.0,9.0,12.0,3.0,0.0,1650822189772927.0
-1.0,0.0,2.0,5.0,0.0,1.0,-4.0,-1.0,1650822189772927.0
-1.0,-2.0,-6.0,-11.0,-12.0,-4.0,15.0,1.0,1650822189793878.0
1.0,-2.0,-9.0,-8.0,-3.0,-17.0,-7.0,-1.0,1650822189793878.0
-2.0,1.0,15.0,17.0,1.0,8.0,1.0,1.0,1650822189795806.0
-1.0,-3.0,-7.0,-5.0,-2.0,7.0,2.0,-2.0,1650822189795806.0
-1.0,-4.0,0.0,5.0,3.0,-1.0,-3.0,-2.0,1650822189807920.0
-1.0,-1.0,-6.0,0.0,0.0,-2.0,-2.0,-1.0,1650822189807920.0
-1.0,3.0,5.0,-6.0,-4.0,-12.0,-1.0,0.0,1650822189816878.0
0.0,-1.0,-8.0,-5.0,-6.0,-15.0,-2.0,3.0,1650822189816878.0
0.0,0.0,4.0,-2.0,4.0,16.0,-1.0,0.0,1650822189831089.0
1.0,0.0,0.0,8.0,7.0,24.0,7.0,1.0,1650822189831089.0
-1.0,2.0,8.0,2.0,4.0,-8.0,-2.0,0.0,1650822189833017.0
3.0,-1.0,3.0,-2.0,-5.0,1.0,2.0,3.0,1650822189833017.0
0.0,-2.0,-6.0,-8.0,-3.0,-5.0,-7.0,-4.0,1650822189854286.0
-1.0,-1.0,-2.0,0.0,7.0,4.0,5.0,0.0,1650822189854286.0
1.0,0.0,-1.0,0.0,-8.0,-9.0,-4.0,2.0,1650822189855241.0
-1.0,2.0,7.0,4.0,0.0,7.0,4.0,-1.0,1650822189855241.0
-6.0,0.0,4.0,4.0,-1.0,1.0,-1.0,-2.0,1650822189867274.0
8.0,-3.0,-20.0,-18.0,-12.0,-6.0,-2.0,-1.0,1650822189867274.0
-2.0,-6.0,-16.0,-6.0,-2.0,-8.0,-4.0,0.0,1650822189876886.0
2.0,2.0,1.0,-3.0,3.0,-2.0,2.0,-1.0,1650822189876886.0
-3.0,3.0,7.0,3.0,5.0,7.0,-2.0,1.0,1650822189891850.0
-4.0,-5.0,15.0,21.0,-3.0,-6.0,-2.0,-1.0,1650822189891850.0
0.0,0.0,-5.0,-9.0,-3.0,-3.0,-2.0,-2.0,1650822189892849.0
0.0,-1.0,-6.0,2.0,4.0,11.0,1.0,-1.0,1650822189892849.0
3.0,2.0,2.0,2.0,-1.0,-5.0,0.0,3.0,1650822189913980.0
-2.0,3.0,3.0,-4.0,-2.0,-5.0,-2.0,-6.0,1650822189913980.0
-1.0,-3.0,1.0,7.0,-3.0,5.0,11.0,1.0,1650822189915911.0
2.0,-1.0,0.0,3.0,-8.0,0.0,0.0,0.0,1650822189915911.0
3.0,-4.0,-12.0,-11.0,16.0,12.0,1.0,-1.0,1650822189927924.0
-2.0,3.0,3.0,-1.0,3.0,8.0,-1.0,2.0,1650822189927924.0
-2.0,-1.0,4.0,6.0,1.0,-2.0,-3.0,0.0,1650822189936156.0
-3.0,-3.0,-17.0,-14.0,-7.0,-14.0,-6.0,0.0,1650822189936156.0
-4.0,-6.0,0.0,6.0,-12.0,-15.0,-3.0,-4.0,1650822189951333.0
-1.0,1.0,-5.0,-11.0,-13.0,-11.0,-5.0,1.0,1650822189951333.0
1.0,4.0,4.0,5.0,6.0,9.0,1.0,-2.0,1650822189953070.0
-7.0,-5.0,0.0,-2.0,5.0,1.0,3.0,1.0,1650822189953070.0
11.0,1.0,9.0,8.0,1.0,5.0,-1.0,3.0,1650822189973969.0
-7.0,-6.0,-11.0,-11.0,-3.0,2.0,1.0,-3.0,1650822189973969.0
-2.0,-1.0,-17.0,-16.0,-6.0,-12.0,-6.0,-1.0,1650822189974994.0
3.0,-5.0,-7.0,-1.0,2.0,-7.0,1.0,-3.0,1650822189974994.0
-4.0,3.0,9.0,5.0,4.0,5.0,1.0,0.0,1650822189987162.0
1.0,-3.0,-7.0,8.0,8.0,22.0,4.0,-1.0,1650822189987162.0
3.0,-4.0,-4.0,-14.0,-16.0,-3.0,-1.0,0.0,1650822189996891.0
-4.0,6.0,13.0,6.0,4.0,-12.0,-4.0,-1.0,1650822189996891.0
0.0,-3.0,10.0,10.0,4.0,0.0,-2.0,0.0,1650822190010960.0
1.0,0.0,-15.0,-14.0,3.0,7.0,3.0,2.0,1650822190010960.0
-1.0,-1.0,-1.0,2.0,3.0,2.0,-1.0,-1.0,1650822190012889.0
-2.0,-6.0,-4.0,6.0,-4.0,-2.0,-1.0,-1.0,1650822190012889.0
0.0,5.0,15.0,4.0,-7.0,-12.0,-4.0,-1.0,1650822190033859.0
3.0,6.0,14.0,6.0,3.0,-2.0,1.0,4.0,1650822190033859.0
-6.0,-10.0,-21.0,-3.0,-2.0,4.0,-4.0,-4.0,1650822190035788.0
1.0,5.0,27.0,14.0,6.0,6.0,0.0,1.0,1650822190035788.0
-6.0,1.0,-19.0,-15.0,-8.0,-6.0,-2.0,-1.0,1650822190056827.0
4.0,-6.0,-13.0,-6.0,-11.0,-14.0,-4.0,-4.0,1650822190056827.0
-2.0,-1.0,-3.0,0.0,-3.0,-8.0,-3.0,-1.0,1650822190057828.0
0.0,-5.0,3.0,1.0,-1.0,25.0,3.0,0.0,1650822190057828.0
1.0,7.0,16.0,19.0,24.0,19.0,7.0,3.0,1650822190072259.0
2.0,9.0,29.0,13.0,6.0,2.0,-3.0,5.0,1650822190072259.0
0.0,-5.0,-23.0,-21.0,-2.0,-8.0,6.0,-1.0,1650822190073259.0
-1.0,2.0,-8.0,-12.0,-22.0,-23.0,-5.0,-3.0,1650822190073259.0
-3.0,-2.0,3.0,6.0,9.0,0.0,-2.0,-7.0,1650822190094219.0
-1.0,1.0,-12.0,-16.0,-1.0,4.0,-1.0,8.0,1650822190094219.0
-8.0,-5.0,10.0,14.0,-3.0,3.0,-6.0,-4.0,1650822190095596.0
3.0,-2.0,-16.0,-7.0,-5.0,-9.0,0.0,22.0,1650822190095596.0
-2.0,-5.0,-10.0,-2.0,-15.0,-5.0,0.0,-14.0,1650822190116801.0
3.0,6.0,25.0,19.0,17.0,4.0,-2.0,-1.0,1650822190116801.0
-4.0,10.0,39.0,25.0,17.0,11.0,5.0,-2.0,1650822190117802.0
-1.0,0.0,-1.0,-6.0,5.0,5.0,3.0,4.0,1650822190117802.0
3.0,-16.0,-37.0,-21.0,-21.0,-26.0,-6.0,6.0,1650822190130869.0
-7.0,-8.0,-7.0,5.0,-16.0,-18.0,-8.0,-9.0,1650822190130869.0
2.0,0.0,-20.0,-43.0,-3.0,18.0,-6.0,2.0,1650822190132864.0
2.0,15.0,29.0,35.0,18.0,24.0,16.0,7.0,1650822190132864.0
-3.0,11.0,3.0,22.0,9.0,2.0,3.0,3.0,1650822190153959.0
-2.0,-10.0,-1.0,-11.0,-4.0,3.0,4.0,7.0,1650822190153959.0
14.0,10.0,14.0,10.0,1.0,-11.0,-8.0,-21.0,1650822190154955.0
0.0,3.0,1.0,-2.0,-3.0,-11.0,-7.0,4.0,1650822190154955.0
-4.0,-13.0,-33.0,-33.0,-7.0,1.0,-6.0,-15.0,1650822190176803.0
5.0,-5.0,11.0,27.0,-1.0,-9.0,-7.0,12.0,1650822190176803.0
9.0,2.0,-1.0,7.0,-1.0,3.0,7.0,40.0,1650822190177815.0
-7.0,-9.0,-3.0,-2.0,-6.0,-7.0,-12.0,-67.0,1650822190177815.0
11.0,13.0,34.0,26.0,-8.0,-8.0,12.0,12.0,1650822190190866.0
-14.0,-4.0,4.0,9.0,4.0,24.0,1.0,-13.0,1650822190190866.0
-2.0,-11.0,-61.0,-71.0,5.0,17.0,5.0,19.0,1650822190197895.0
-9.0,3.0,-12.0,9.0,-2.0,-4.0,7.0,4.0,1650822190197895.0
18.0,1.0,30.0,-22.0,0.0,2.0,-4.0,-6.0,1650822190213916.0
3.0,-5.0,8.0,55.0,0.0,-18.0,-11.0,-21.0,1650822190213916.0
14.0,8.0,38.0,12.0,7.0,-4.0,7.0,34.0,1650822190215868.0
-25.0,-5.0,-32.0,-35.0,-9.0,4.0,-6.0,-11.0,1650822190215868.0
22.0,5.0,27.0,19.0,0.0,3.0,-2.0,2.0,1650822190235980.0
-31.0,-1.0,-32.0,-48.0,-14.0,-10.0,9.0,-4.0,1650822190235980.0
-1.0,-3.0,41.0,52.0,4.0,6.0,3.0,-6.0,1650822190238005.0
9.0,14.0,20.0,22.0,17.0,8.0,9.0,25.0,1650822190238005.0
-7.0,-7.0,-47.0,-38.0,7.0,0.0,-7.0,-5.0,1650822190251097.0
0.0,-13.0,-19.0,-11.0,-9.0,-3.0,-5.0,-11.0,1650822190251097.0
-7.0,30.0,-40.0,-7.0,-12.0,-5.0,-4.0,-7.0,1650822190257082.0
9.0,-16.0,35.0,8.0,3.0,-11.0,-3.0,-2.0,1650822190257082.0
5.0,11.0,55.0,41.0,9.0,15.0,4.0,5.0,1650822190274239.0
-19.0,-14.0,-77.0,-97.0,-11.0,-3.0,0.0,-15.0,1650822190274239.0
-14.0,-7.0,-8.0,14.0,-5.0,-11.0,-1.0,-12.0,1650822190275830.0
10.0,8.0,28.0,23.0,7.0,8.0,2.0,12.0,1650822190275830.0
-12.0,-11.0,-25.0,25.0,7.0,1.0,-2.0,9.0,1650822190296870.0
34.0,0.0,-2.0,-4.0,-4.0,-7.0,2.0,-21.0,1650822190296870.0
-31.0,-14.0,1.0,-4.0,-20.0,-31.0,-8.0,0.0,1650822190297869.0
-1.0,-5.0,-18.0,-1.0,-3.0,10.0,-9.0,-45.0,1650822190297869.0
-2.0,11.0,32.0,16.0,12.0,14.0,12.0,33.0,1650822190310867.0
-7.0,21.0,48.0,34.0,20.0,19.0,8.0,11.0,1650822190310867.0
-2.0,0.0,4.0,26.0,9.0,7.0,-4.0,-28.0,1650822190317912.0
27.0,-11.0,-24.0,-39.0,-15.0,-19.0,-1.0,28.0,1650822190317912.0
-5.0,4.0,-12.0,-3.0,-19.0,-27.0,-6.0,3.0,1650822190334036.0
3.0,5.0,-6.0,4.0,-1.0,10.0,0.0,9.0,1650822190334036.0
21.0,-15.0,3.0,7.0,13.0,13.0,1.0,9.0,1650822190334967.0
-44.0,-5.0,-24.0,-51.0,0.0,4.0,1.0,-7.0,1650822190334967.0
-10.0,-33.0,-16.0,-5.0,-6.0,-2.0,-3.0,-20.0,1650822190355911.0
-11.0,-4.0,29.0,-11.0,-4.0,-20.0,-3.0,10.0,1650822190355911.0
27.0,5.0,38.0,46.0,0.0,8.0,1.0,3.0,1650822190357840.0
-34.0,-10.0,-59.0,-56.0,-2.0,13.0,4.0,14.0,1650822190357840.0
16.0,10.0,-8.0,25.0,16.0,10.0,4.0,10.0,1650822190370859.0
-25.0,-11.0,-14.0,-10.0,-13.0,-14.0,-9.0,-27.0,1650822190370859.0
1.0,7.0,46.0,3.0,-4.0,-12.0,-4.0,-3.0,1650822190377867.0
13.0,6.0,-12.0,-34.0,-19.0,-8.0,-1.0,6.0,1650822190377867.0
-13.0,-5.0,-42.0,-49.0,-11.0,-9.0,-11.0,-3.0,1650822190394827.0
2.0,-2.0,-1.0,14.0,10.0,0.0,5.0,22.0,1650822190394827.0
15.0,11.0,48.0,40.0,16.0,35.0,10.0,-8.0,1650822190396824.0
1.0,-18.0,-57.0,-19.0,-4.0,2.0,-4.0,-8.0,1650822190396824.0
-6.0,0.0,19.0,14.0,-1.0,-14.0,1.0,12.0,1650822190415994.0
-14.0,10.0,19.0,4.0,-12.0,-15.0,-15.0,6.0,1650822190415994.0
31.0,-9.0,-58.0,-62.0,-8.0,-5.0,4.0,-4.0,1650822190417923.0
-23.0,20.0,24.0,21.0,20.0,21.0,19.0,25.0,1650822190417923.0
13.0,12.0,-1.0,-22.0,-7.0,9.0,-11.0,-47.0,1650822190431070.0
2.0,-14.0,-19.0,11.0,0.0,-7.0,-4.0,12.0,1650822190431070.0
-26.0,2.0,35.0,21.0,-2.0,-12.0,1.0,-16.0,1650822190437918.0
21.0,10.0,-22.0,-21.0,-15.0,-12.0,-7.0,22.0,1650822190437918.0
-9.0,-18.0,-39.0,-40.0,-1.0,0.0,-3.0,-18.0,1650822190453871.0
1.0,-1.0,-15.0,-1.0,4.0,4.0,3.0,9.0,1650822190453871.0
-8.0,3.0,6.0,-28.0,-16.0,-11.0,-5.0,10.0,1650822190455867.0
28.0,15.0,40.0,44.0,12.0,2.0,1.0,-10.0,1650822190455867.0
-15.0,-9.0,7.0,27.0,-5.0,-8.0,-2.0,4.0,1650822190476804.0
7.0,-14.0,-67.0,-70.0,-6.0,13.0,1.0,-7.0,1650822190476804.0
-4.0,3.0,5.0,33.0,-5.0,-9.0,-4.0,-3.0,1650822190477816.0
1.0,0.0,20.0,47.0,21.0,13.0,4.0,-15.0,1650822190477816.0
14.0,13.0,0.0,-10.0,-3.0,17.0,5.0,3.0,1650822190489928.0
20.0,7.0,-6.0,-46.0,-1.0,-6.0,2.0,16.0,1650822190489928.0
-12.0,-7.0,-26.0,-4.0,-2.0,-9.0,-7.0,-24.0,1650822190498852.0
7.0,-4.0,10.0,15.0,-14.0,-13.0,-9.0,-6.0,1650822190498852.0
-16.0,-10.0,5.0,34.0,7.0,-1.0,0.0,18.0,1650822190513966.0
21.0,12.0,21.0,25.0,4.0,10.0,7.0,-34.0,1650822190513966.0
-38.0,0.0,-15.0,-21.0,1.0,5.0,-4.0,-6.0,1650822190514992.0
51.0,5.0,30.0,35.0,10.0,2.0,-1.0,-28.0,1650822190514992.0
-10.0,-1.0,-12.0,-39.0,-4.0,-1.0,4.0,-3.0,1650822190536459.0
-9.0,6.0,21.0,52.0,2.0,-6.0,0.0,-1.0,1650822190536459.0
15.0,-6.0,-17.0,-41.0,7.0,-4.0,6.0,11.0,1650822190537486.0
-14.0,-1.0,-1.0,6.0,-23.0,-13.0,-11.0,6.0,1650822190537486.0
-11.0,-7.0,-2.0,3.0,1.0,9.0,3.0,-1.0,1650822190550472.0
0.0,12.0,2.0,6.0,16.0,15.0,4.0,6.0,1650822190550472.0
-7.0,-1.0,12.0,-15.0,3.0,-2.0,-3.0,1.0,1650822190558795.0
5.0,-9.0,5.0,9.0,-6.0,-11.0,-2.0,7.0,1650822190558795.0
6.0,23.0,87.0,75.0,-4.0,-10.0,0.0,9.0,1650822190574244.0
2.0,-23.0,-61.0,-61.0,-16.0,-5.0,-9.0,-26.0,1650822190574244.0
-5.0,-19.0,-25.0,7.0,6.0,7.0,3.0,3.0,1650822190575809.0
8.0,-1.0,-12.0,-41.0,-6.0,-5.0,-3.0,-17.0,1650822190575809.0
-1.0,0.0,27.0,70.0,13.0,11.0,-1.0,-7.0,1650822190596574.0
6.0,11.0,17.0,-18.0,10.0,11.0,11.0,23.0,1650822190596574.0
-2.0,8.0,-15.0,-29.0,-9.0,-8.0,-7.0,-11.0,1650822190602626.0
29.0,-7.0,23.0,48.0,2.0,-10.0,2.0,25.0,1650822190602626.0
-73.0,2.0,-1.0,-31.0,-2.0,4.0,-1.0,-26.0,1650822190609608.0
16.0,27.0,19.0,37.0,-3.0,-8.0,-5.0,1.0,1650822190609608.0
12.0,-13.0,-37.0,-29.0,-4.0,7.0,5.0,25.0,1650822190625475.0
-22.0,6.0,15.0,2.0,-3.0,2.0,-5.0,-38.0,1650822190625475.0
30.0,-37.0,-70.0,-37.0,-3.0,-3.0,-4.0,2.0,1650822190633565.0
-1.0,2.0,11.0,-2.0,10.0,6.0,2.0,27.0,1650822190633565.0
-14.0,8.0,35.0,95.0,18.0,3.0,0.0,-22.0,1650822190635563.0
-1.0,-9.0,-36.0,-45.0,-18.0,-12.0,0.0,11.0,1650822190635563.0
10.0,6.0,-19.0,-16.0,-9.0,-8.0,-10.0,-29.0,1650822190656769.0
-8.0,1.0,10.0,-15.0,-19.0,-7.0,-3.0,-8.0,1650822190656769.0
4.0,-8.0,3.0,44.0,3.0,-3.0,-4.0,16.0,1650822190657650.0
-15.0,2.0,47.0,33.0,27.0,20.0,10.0,12.0,1650822190657650.0
0.0,-8.0,-37.0,-53.0,-5.0,-1.0,0.0,7.0,1650822190669687.0
-17.0,-16.0,49.0,49.0,-3.0,0.0,-4.0,-31.0,1650822190669687.0
11.0,1.0,-21.0,-32.0,-5.0,0.0,4.0,-1.0,1650822190678702.0
-27.0,-15.0,-42.0,-25.0,-2.0,-7.0,-4.0,3.0,1650822190678702.0
29.0,11.0,23.0,1.0,-3.0,-2.0,3.0,11.0,1650822190693753.0
-14.0,4.0,37.0,54.0,6.0,-3.0,-1.0,4.0,1650822190693753.0
9.0,11.0,-16.0,-25.0,-3.0,-1.0,6.0,8.0,1650822190695707.0
-4.0,-27.0,53.0,26.0,-1.0,-1.0,-8.0,-10.0,1650822190695707.0
4.0,-12.0,-16.0,2.0,8.0,12.0,2.0,32.0,1650822190715935.0
14.0,-14.0,-27.0,-43.0,-1.0,6.0,1.0,-17.0,1650822190715935.0
-16.0,3.0,7.0,-3.0,-8.0,-7.0,-5.0,-10.0,1650822190717865.0
25.0,-1.0,-28.0,-24.0,-5.0,-18.0,3.0,23.0,1650822190717865.0
-3.0,9.0,45.0,51.0,8.0,-1.0,-1.0,16.0,1650822190729926.0
-5.0,5.0,-44.0,-76.0,-6.0,9.0,8.0,41.0,1650822190729926.0
-6.0,-24.0,10.0,33.0,13.0,14.0,-8.0,-63.0,1650822190738808.0
-5.0,27.0,54.0,57.0,15.0,13.0,5.0,6.0,1650822190738808.0
-22.0,-25.0,-52.0,-46.0,-25.0,-17.0,-6.0,-2.0,1650822190753836.0
12.0,12.0,1.0,21.0,-2.0,-13.0,2.0,1.0,1650822190753836.0
24.0,25.0,9.0,-24.0,3.0,6.0,7.0,33.0,1650822190755766.0
-22.0,-23.0,-44.0,15.0,-3.0,6.0,-8.0,-1.0,1650822190755766.0
-50.0,5.0,-6.0,-21.0,-7.0,-11.0,-3.0,-47.0,1650822190776822.0
23.0,0.0,7.0,-2.0,-1.0,4.0,-3.0,9.0,1650822190776822.0
-23.0,9.0,-7.0,-41.0,-16.0,-9.0,-2.0,9.0,1650822190777809.0
3.0,16.0,40.0,42.0,13.0,8.0,1.0,-8.0,1650822190777809.0
15.0,-19.0,-5.0,-17.0,1.0,-1.0,4.0,15.0,1650822190789841.0
-9.0,-8.0,14.0,32.0,3.0,-6.0,-2.0,-5.0,1650822190789841.0
3.0,-7.0,4.0,-3.0,-10.0,-8.0,-4.0,-1.0,1650822190798793.0
4.0,4.0,-66.0,-108.0,-16.0,-1.0,-2.0,-5.0,1650822190798793.0
1.0,13.0,50.0,55.0,12.0,-1.0,0.0,21.0,1650822190814218.0
23.0,-11.0,-54.0,-15.0,4.0,15.0,16.0,11.0,1650822190814218.0
17.0,-9.0,31.0,56.0,-1.0,1.0,-1.0,-27.0,1650822190815828.0
-22.0,10.0,15.0,30.0,12.0,6.0,6.0,1.0,1650822190815828.0
22.0,1.0,-27.0,-65.0,-11.0,-21.0,-5.0,23.0,1650822190836744.0
-12.0,-8.0,8.0,37.0,-15.0,-1.0,-16.0,-38.0,1650822190836744.0
9.0,17.0,0.0,-14.0,5.0,17.0,4.0,13.0,1650822190837910.0
2.0,-7.0,-12.0,-12.0,10.0,2.0,3.0,2.0,1650822190837910.0
4.0,17.0,22.0,51.0,3.0,-5.0,0.0,3.0,1650822190850038.0
-10.0,-5.0,29.0,30.0,0.0,-10.0,-3.0,6.0,1650822190850038.0
-4.0,-8.0,-20.0,-49.0,-22.0,-14.0,-6.0,-1.0,1650822190858963.0
-22.0,0.0,14.0,7.0,5.0,9.0,2.0,6.0,1650822190858963.0
28.0,24.0,22.0,32.0,20.0,14.0,3.0,6.0,1650822190874056.0
-16.0,-28.0,-12.0,-11.0,-12.0,-17.0,-4.0,-5.0,1650822190874056.0
9.0,-6.0,-23.0,-10.0,-6.0,-3.0,-1.0,-4.0,1650822190875056.0
4.0,18.0,27.0,25.0,8.0,3.0,1.0,-21.0,1650822190875056.0
-5.0,-12.0,-38.0,-39.0,-6.0,-2.0,-8.0,-1.0,1650822190904246.0
-2.0,3.0,17.0,8.0,2.0,1.0,6.0,-12.0,1650822190904246.0
10.0,19.0,22.0,18.0,8.0,2.0,2.0,21.0,1650822190905184.0
5.0,-5.0,-36.0,-25.0,-17.0,-12.0,-9.0,13.0,1650822190905184.0
2.0,-2.0,13.0,6.0,5.0,8.0,1.0,-43.0,1650822190910197.0
-3.0,1.0,-11.0,-1.0,4.0,0.0,-6.0,2.0,1650822190910197.0
-25.0,-6.0,6.0,16.0,1.0,-6.0,-3.0,-2.0,1650822190919156.0
30.0,7.0,-33.0,-36.0,-2.0,4.0,5.0,5.0,1650822190919156.0
-6.0,7.0,13.0,9.0,-11.0,-26.0,-4.0,1.0,1650822190934345.0
3.0,19.0,60.0,57.0,2.0,5.0,-2.0,8.0,1650822190934345.0
-9.0,-7.0,-28.0,-22.0,10.0,19.0,2.0,-4.0,1650822190935352.0
19.0,-7.0,2.0,7.0,8.0,15.0,8.0,34.0,1650822190935352.0
-11.0,8.0,30.0,7.0,-2.0,-11.0,-5.0,-49.0,1650822190956831.0
-6.0,-12.0,-58.0,-56.0,-10.0,-11.0,-4.0,8.0,1650822190956831.0
12.0,-9.0,-27.0,-31.0,-13.0,-6.0,0.0,0.0,1650822190957830.0
-29.0,3.0,53.0,50.0,10.0,6.0,-1.0,-16.0,1650822190957830.0
2.0,-25.0,-22.0,-42.0,3.0,16.0,7.0,11.0,1650822190979083.0
15.0,20.0,53.0,61.0,12.0,-15.0,1.0,3.0,1650822190979083.0
-6.0,-7.0,9.0,-17.0,-16.0,-8.0,-4.0,-2.0,1650822190980036.0
-12.0,-48.0,-91.0,-71.0,-24.0,2.0,-3.0,-4.0,1650822190980036.0
6.0,2.0,-20.0,-17.0,8.0,20.0,10.0,10.0,1650822190994044.0
-12.0,10.0,27.0,-13.0,16.0,3.0,-3.0,10.0,1650822190994044.0
-8.0,2.0,31.0,77.0,6.0,-22.0,-7.0,-36.0,1650822190995001.0
-6.0,11.0,19.0,4.0,-7.0,-8.0,-7.0,-6.0,1650822190995001.0
11.0,5.0,-21.0,-44.0,-11.0,10.0,8.0,-3.0,1650822191016827.0
25.0,-9.0,-52.0,-15.0,8.0,17.0,7.0,13.0,1650822191016827.0
-9.0,16.0,39.0,1.0,-3.0,-9.0,0.0,17.0,1650822191017827.0
-20.0,12.0,-5.0,39.0,-4.0,-18.0,-8.0,-18.0,1650822191017827.0
12.0,-15.0,25.0,13.0,2.0,9.0,-3.0,-24.0,1650822191038935.0
-5.0,-8.0,-17.0,-10.0,-5.0,-6.0,-3.0,8.0,1650822191038935.0
18.0,-8.0,12.0,36.0,15.0,5.0,6.0,20.0,1650822191040903.0
-18.0,8.0,-13.0,-24.0,-9.0,5.0,-1.0,-12.0,1650822191040903.0
2.0,8.0,21.0,36.0,11.0,-3.0,3.0,5.0,1650822191053896.0
-4.0,3.0,-4.0,-18.0,-9.0,-1.0,3.0,-4.0,1650822191053896.0
5.0,-7.0,-28.0,-29.0,-2.0,-2.0,-6.0,3.0,1650822191055848.0
26.0,3.0,22.0,14.0,0.0,-10.0,2.0,39.0,1650822191055848.0
-23.0,5.0,-10.0,-7.0,-10.0,12.0,1.0,-11.0,1650822191076037.0
4.0,6.0,19.0,46.0,26.0,18.0,7.0,-16.0,1650822191076037.0
-22.0,-19.0,-27.0,7.0,1.0,-2.0,-1.0,3.0,1650822191078040.0
30.0,8.0,0.0,-52.0,-2.0,4.0,6.0,15.0,1650822191078040.0
-30.0,-9.0,-29.0,-15.0,-13.0,-17.0,-6.0,13.0,1650822191098985.0
-6.0,7.0,-28.0,-46.0,-12.0,-5.0,-2.0,-2.0,1650822191098985.0
13.0,16.0,71.0,61.0,7.0,4.0,-1.0,5.0,1650822191100914.0
-3.0,-23.0,-18.0,31.0,1.0,-2.0,8.0,12.0,1650822191100914.0
-5.0,-14.0,-21.0,-30.0,-5.0,3.0,-5.0,-12.0,1650822191112948.0
-6.0,5.0,15.0,4.0,4.0,8.0,2.0,-2.0,1650822191112948.0
-2.0,9.0,-9.0,-4.0,16.0,13.0,5.0,-4.0,1650822191119931.0
-1.0,-3.0,-48.0,-87.0,-25.0,-17.0,-9.0,-11.0,1650822191119931.0
9.0,11.0,20.0,11.0,-7.0,-11.0,-7.0,20.0,1650822191136866.0
-8.0,3.0,38.0,60.0,1.0,-1.0,0.0,-3.0,1650822191136866.0
-9.0,1.0,-55.0,-55.0,-4.0,-7.0,-1.0,-16.0,1650822191137820.0
15.0,19.0,69.0,48.0,0.0,-11.0,-5.0,-12.0,1650822191137820.0
-8.0,-7.0,-49.0,-18.0,10.0,22.0,8.0,21.0,1650822191158867.0
2.0,5.0,20.0,-31.0,-7.0,-6.0,-11.0,-28.0,1650822191158867.0
16.0,0.0,-9.0,7.0,-6.0,0.0,6.0,23.0,1650822191160903.0
-34.0,3.0,30.0,34.0,17.0,17.0,6.0,14.0,1650822191160903.0
24.0,12.0,3.0,-25.0,2.0,-1.0,-1.0,-14.0,1650822191181079.0
2.0,-15.0,-47.0,-17.0,2.0,-4.0,-6.0,12.0,1650822191181079.0
-3.0,13.0,15.0,16.0,4.0,7.0,8.0,-1.0,1650822191183006.0
6.0,-21.0,-7.0,24.0,6.0,-7.0,-1.0,6.0,1650822191183006.0
-9.0,-17.0,-2.0,1.0,-24.0,-22.0,-20.0,-2.0,1650822191196828.0
-4.0,-8.0,-6.0,-10.0,4.0,13.0,12.0,4.0,1650822191196828.0
-11.0,-2.0,20.0,-39.0,3.0,1.0,0.0,15.0,1650822191197829.0
3.0,-19.0,-7.0,29.0,-7.0,-3.0,-13.0,-40.0,1650822191197829.0
-9.0,8.0,11.0,16.0,7.0,-5.0,-2.0,-18.0,1650822191218872.0
8.0,15.0,-17.0,16.0,-1.0,-1.0,0.0,0.0,1650822191218872.0
-7.0,-4.0,-18.0,-23.0,-7.0,3.0,-2.0,-3.0,1650822191220869.0
-1.0,7.0,35.0,1.0,9.0,5.0,3.0,-4.0,1650822191220869.0
5.0,-7.0,-55.0,0.0,1.0,1.0,13.0,10.0,1650822191232902.0
4.0,2.0,31.0,19.0,-2.0,-13.0,-7.0,-37.0,1650822191232902.0
19.0,10.0,-2.0,-4.0,3.0,13.0,-1.0,-4.0,1650822191239885.0
-18.0,-17.0,4.0,51.0,2.0,-4.0,-3.0,13.0,1650822191239885.0
-3.0,-1.0,18.0,-20.0,-4.0,-9.0,-7.0,-25.0,1650822191256818.0
-9.0,-13.0,-19.0,-19.0,-10.0,4.0,5.0,16.0,1650822191256818.0
6.0,-1.0,4.0,38.0,10.0,12.0,7.0,3.0,1650822191257771.0
-3.0,0.0,2.0,-6.0,21.0,14.0,4.0,-1.0,1650822191257771.0
5.0,14.0,22.0,10.0,2.0,3.0,9.0,20.0,1650822191278947.0
11.0,-6.0,-13.0,19.0,-6.0,-12.0,-9.0,-19.0,1650822191278947.0
-15.0,-10.0,-25.0,-19.0,-9.0,-3.0,-2.0,7.0,1650822191280875.0
13.0,23.0,2.0,-33.0,-4.0,1.0,1.0,3.0,1650822191280875.0
-10.0,-2.0,26.0,23.0,4.0,-1.0,4.0,11.0,1650822191292914.0
2.0,0.0,-12.0,-27.0,-9.0,-15.0,-8.0,2.0,1650822191292914.0
3.0,-3.0,15.0,20.0,-7.0,1.0,-8.0,0.0,1650822191299890.0
8.0,0.0,44.0,27.0,16.0,17.0,10.0,4.0,1650822191299890.0
2.0,-11.0,-47.0,-42.0,-5.0,-1.0,-2.0,0.0,1650822191317253.0
-5.0,-6.0,8.0,-5.0,-3.0,-2.0,-2.0,13.0,1650822191317253.0
-5.0,-15.0,-15.0,15.0,4.0,-13.0,-6.0,-17.0,1650822191322242.0
-2.0,3.0,-36.0,-70.0,-26.0,-11.0,-10.0,-17.0,1650822191322242.0
16.0,-1.0,4.0,-10.0,-7.0,-3.0,3.0,18.0,1650822191339048.0
-13.0,0.0,-3.0,-3.0,4.0,12.0,3.0,-8.0,1650822191339048.0
-8.0,-10.0,-35.0,-50.0,4.0,1.0,-3.0,-1.0,1650822191340006.0
-6.0,-12.0,-12.0,5.0,-9.0,-13.0,-3.0,-16.0,1650822191340006.0
10.0,5.0,21.0,44.0,8.0,1.0,-4.0,13.0,1650822191353011.0
-7.0,11.0,15.0,7.0,7.0,19.0,7.0,12.0,1650822191353011.0
14.0,2.0,17.0,7.0,13.0,20.0,8.0,11.0,1650822191359993.0
21.0,10.0,4.0,13.0,8.0,4.0,4.0,10.0,1650822191359993.0
-16.0,-14.0,-4.0,16.0,-7.0,-11.0,4.0,-15.0,1650822191376769.0
-8.0,-7.0,24.0,16.0,-15.0,-31.0,-18.0,-7.0,1650822191376769.0
-25.0,-12.0,-29.0,-12.0,-17.0,-11.0,-18.0,-15.0,1650822191378314.0
18.0,-6.0,4.0,-17.0,13.0,24.0,25.0,7.0,1650822191378314.0
7.0,8.0,22.0,24.0,14.0,16.0,-1.0,1.0,1650822191398859.0
-2.0,7.0,14.0,-13.0,5.0,4.0,8.0,-4.0,1650822191398859.0
-1.0,8.0,-12.0,-13.0,-13.0,-21.0,-13.0,4.0,1650822191400883.0
-5.0,11.0,-1.0,25.0,-9.0,-16.0,-6.0,-9.0,1650822191400883.0
-6.0,10.0,26.0,49.0,13.0,9.0,-1.0,-1.0,1650822191412892.0
8.0,-5.0,-16.0,-41.0,10.0,20.0,8.0,0.0,1650822191412892.0
-8.0,-8.0,8.0,49.0,-10.0,-15.0,-3.0,-2.0,1650822191419870.0
8.0,2.0,-9.0,-21.0,-11.0,-13.0,-9.0,-6.0,1650822191419870.0
-17.0,6.0,-11.0,-8.0,-1.0,2.0,5.0,6.0,1650822191436803.0
4.0,14.0,30.0,6.0,6.0,-1.0,0.0,15.0,1650822191436803.0
-1.0,0.0,0.0,-11.0,11.0,26.0,12.0,2.0,1650822191437769.0
1.0,2.0,-46.0,-35.0,-3.0,8.0,1.0,0.0,1650822191437769.0
1.0,-16.0,0.0,15.0,-1.0,-7.0,-4.0,11.0,1650822191466930.0
-1.0,12.0,26.0,21.0,-5.0,-6.0,-4.0,-14.0,1650822191466930.0
1.0,-8.0,-37.0,-23.0,-10.0,-17.0,-3.0,-21.0,1650822191473629.0
-22.0,0.0,-4.0,-27.0,-12.0,-10.0,-13.0,-14.0,1650822191473629.0
11.0,11.0,2.0,-16.0,-5.0,3.0,10.0,9.0,1650822191473629.0
-6.0,-11.0,-18.0,0.0,-7.0,-11.0,-4.0,16.0,1650822191473629.0
6.0,13.0,23.0,3.0,-7.0,-5.0,-8.0,-25.0,1650822191481610.0
-12.0,-9.0,-11.0,11.0,9.0,16.0,2.0,31.0,1650822191481610.0
1.0,5.0,-5.0,-7.0,13.0,15.0,10.0,-10.0,1650822191496777.0
5.0,-2.0,6.0,4.0,-4.0,-4.0,-11.0,-4.0,1650822191496777.0
8.0,1.0,5.0,-3.0,-6.0,-14.0,7.0,8.0,1650822191497777.0
-4.0,0.0,-2.0,0.0,-5.0,-21.0,-10.0,-8.0,1650822191497777.0
-4.0,0.0,5.0,0.0,3.0,19.0,-1.0,-2.0,1650822191517874.0
2.0,-3.0,-8.0,1.0,9.0,18.0,10.0,9.0,1650822191517874.0
-2.0,0.0,17.0,14.0,12.0,7.0,0.0,4.0,1650822191526151.0
1.0,1.0,-5.0,0.0,-10.0,-15.0,0.0,16.0,1650822191526151.0
-5.0,1.0,-7.0,-22.0,-10.0,-10.0,-8.0,-39.0,1650822191532978.0
-3.0,-7.0,-14.0,-18.0,-8.0,-10.0,3.0,0.0,1650822191532978.0
-2.0,-2.0,6.0,7.0,-2.0,-3.0,0.0,6.0,1650822191541984.0
-1.0,4.0,7.0,15.0,8.0,12.0,4.0,-6.0,1650822191541984.0
10.0,-2.0,-1.0,8.0,2.0,9.0,-3.0,9.0,1650822191556788.0
0.0,-6.0,-17.0,-39.0,-8.0,-1.0,0.0,4.0,1650822191556788.0
-1.0,-2.0,15.0,-7.0,-5.0,-6.0,-1.0,0.0,1650822191557781.0
5.0,8.0,7.0,6.0,-8.0,-25.0,-2.0,-4.0,1650822191557781.0
-5.0,-4.0,-17.0,-3.0,-4.0,-8.0,-8.0,0.0,1650822191578753.0
-8.0,3.0,14.0,37.0,20.0,24.0,0.0,-4.0,1650822191578753.0
4.0,-7.0,-16.0,-50.0,-10.0,-5.0,4.0,9.0,1650822191580740.0
-2.0,-4.0,9.0,6.0,6.0,6.0,-3.0,-8.0,1650822191580740.0
-1.0,2.0,5.0,0.0,-4.0,-12.0,-12.0,0.0,1650822191592688.0
0.0,0.0,-4.0,11.0,8.0,6.0,12.0,4.0,1650822191592688.0
1.0,4.0,3.0,10.0,1.0,10.0,0.0,2.0,1650822191601664.0
-2.0,-1.0,-4.0,-8.0,-2.0,-1.0,-2.0,-6.0,1650822191601664.0
1.0,1.0,1.0,-8.0,-7.0,-8.0,-2.0,2.0,1650822191616870.0
0.0,-8.0,-6.0,-6.0,-14.0,-28.0,-8.0,-2.0,1650822191616870.0
-1.0,1.0,-1.0,3.0,7.0,17.0,1.0,0.0,1650822191617867.0
-1.0,0.0,3.0,1.0,1.0,3.0,-1.0,-6.0,1650822191617867.0
2.0,-2.0,2.0,2.0,2.0,-4.0,-1.0,7.0,1650822191639116.0
-3.0,1.0,1.0,1.0,0.0,6.0,2.0,-1.0,1650822191639116.0
1.0,3.0,1.0,4.0,1.0,2.0,7.0,3.0,1650822191640060.0
2.0,1.0,0.0,5.0,8.0,8.0,1.0,-2.0,1650822191640060.0
0.0,0.0,0.0,-7.0,-11.0,-18.0,-4.0,0.0,1650822191653021.0
-1.0,-2.0,-5.0,-4.0,-6.0,-5.0,-4.0,-2.0,1650822191653021.0
-1.0,1.0,4.0,6.0,4.0,7.0,1.0,-1.0,1650822191661998.0
1.0,-3.0,-5.0,-7.0,7.0,11.0,3.0,1.0,1650822191661998.0
0.0,2.0,10.0,11.0,7.0,7.0,4.0,1.0,1650822191678060.0
1.0,-1.0,-3.0,-3.0,-6.0,-7.0,-2.0,-1.0,1650822191678060.0
0.0,0.0,1.0,2.0,-7.0,-24.0,-7.0,0.0,1650822191679056.0
-1.0,2.0,-3.0,-1.0,-5.0,-3.0,-1.0,-4.0,1650822191679056.0
0.0,1.0,-5.0,-3.0,-1.0,27.0,4.0,-1.0,1650822191698862.0
-1.0,-1.0,3.0,2.0,5.0,10.0,0.0,1.0,1650822191698862.0
-2.0,0.0,3.0,8.0,-4.0,-15.0,1.0,0.0,1650822191700884.0
2.0,-4.0,-3.0,-5.0,-7.0,-10.0,-4.0,-2.0,1650822191700884.0
0.0,0.0,-2.0,-3.0,5.0,1.0,-6.0,-1.0,1650822191712894.0
0.0,0.0,-5.0,-1.0,2.0,8.0,7.0,2.0,1650822191712894.0
2.0,-1.0,-3.0,-5.0,0.0,1.0,3.0,2.0,1650822191721804.0
-4.0,-6.0,2.0,1.0,-2.0,-8.0,-3.0,-2.0,1650822191721804.0
0.0,-2.0,0.0,-2.0,-4.0,3.0,2.0,0.0,1650822191743872.0
0.0,0.0,0.0,0.0,-1.0,6.0,-3.0,-2.0,1650822191743872.0
-2.0,0.0,0.0,-1.0,-8.0,-19.0,-5.0,-3.0,1650822191745893.0
0.0,1.0,1.0,0.0,-1.0,5.0,-2.0,-1.0,1650822191745893.0
2.0,0.0,3.0,0.0,2.0,10.0,8.0,14.0,1650822191758895.0
-1.0,2.0,1.0,5.0,21.0,11.0,-1.0,-12.0,1650822191758895.0
1.0,0.0,-3.0,-1.0,4.0,2.0,5.0,2.0,1650822191760852.0
-1.0,2.0,1.0,1.0,0.0,15.0,1.0,-2.0,1650822191760852.0
-1.0,-5.0,-3.0,-7.0,-7.0,-15.0,-1.0,1.0,1650822191772860.0
-4.0,0.0,1.0,-3.0,-16.0,-18.0,-4.0,2.0,1650822191772860.0
6.0,-6.0,-5.0,0.0,-2.0,2.0,1.0,1.0,1650822191781772.0
0.0,0.0,-2.0,-2.0,1.0,-4.0,0.0,0.0,1650822191781772.0
-5.0,-3.0,-2.0,-1.0,-1.0,-3.0,-2.0,-5.0,1650822191796825.0
2.0,3.0,1.0,-1.0,-12.0,-7.0,-1.0,2.0,1650822191796825.0
-4.0,-2.0,-4.0,-2.0,9.0,-1.0,-4.0,-4.0,1650822191797840.0
0.0,2.0,-1.0,1.0,6.0,12.0,-1.0,2.0,1650822191797840.0
-1.0,-1.0,8.0,10.0,9.0,18.0,3.0,-2.0,1650822191819037.0
-1.0,-1.0,0.0,-4.0,-2.0,-3.0,2.0,3.0,1650822191819037.0
-3.0,0.0,4.0,3.0,-3.0,-9.0,-7.0,1.0,1650822191819994.0
1.0,0.0,0.0,-3.0,-12.0,-11.0,-2.0,-1.0,1650822191819994.0
-2.0,1.0,-6.0,-12.0,-3.0,-17.0,-5.0,-2.0,1650822191832983.0
0.0,-2.0,2.0,5.0,3.0,2.0,-2.0,0.0,1650822191832983.0
-1.0,0.0,-7.0,-7.0,3.0,27.0,2.0,1.0,1650822191841988.0
1.0,4.0,9.0,10.0,3.0,2.0,2.0,-2.0,1650822191841988.0
0.0,-8.0,-7.0,0.0,-2.0,-5.0,0.0,-3.0,1650822191856686.0
-2.0,-1.0,0.0,-1.0,2.0,-2.0,0.0,1.0,1650822191856686.0
5.0,3.0,0.0,-2.0,-2.0,-3.0,1.0,-3.0,1650822191857644.0
-3.0,-1.0,-1.0,-2.0,-6.0,-8.0,-5.0,-3.0,1650822191857644.0
-1.0,5.0,0.0,-1.0,-5.0,-8.0,1.0,-2.0,1650822191878925.0
-3.0,-2.0,-3.0,0.0,3.0,0.0,-4.0,0.0,1650822191878925.0
-1.0,-2.0,1.0,1.0,2.0,7.0,0.0,0.0,1650822191880882.0
1.0,-1.0,-3.0,-5.0,0.0,2.0,-2.0,0.0,1650822191880882.0
-2.0,3.0,-1.0,-3.0,-9.0,-15.0,-5.0,-2.0,1650822191900983.0
-2.0,-3.0,-1.0,3.0,-15.0,-13.0,-1.0,0.0,1650822191900983.0
-3.0,2.0,-3.0,0.0,15.0,14.0,0.0,-1.0,1650822191902912.0
-1.0,-5.0,4.0,7.0,5.0,20.0,7.0,2.0,1650822191902912.0
1.0,1.0,-2.0,-4.0,7.0,5.0,-4.0,-1.0,1650822191915944.0
1.0,2.0,-2.0,-3.0,0.0,-7.0,5.0,2.0,1650822191915944.0
-2.0,0.0,3.0,1.0,-13.0,-10.0,-6.0,0.0,1650822191917873.0
-1.0,-2.0,-8.0,-10.0,3.0,-2.0,0.0,0.0,1650822191917873.0
-3.0,-1.0,2.0,3.0,-3.0,-7.0,0.0,-1.0,1650822191938857.0
0.0,-1.0,0.0,2.0,-6.0,-15.0,-8.0,-2.0,1650822191938857.0
0.0,2.0,-1.0,0.0,-3.0,6.0,0.0,2.0,1650822191940854.0
-1.0,2.0,0.0,4.0,13.0,16.0,9.0,-4.0,1650822191940854.0
8.0,3.0,9.0,1.0,5.0,4.0,1.0,12.0,1650822191961854.0
2.0,-2.0,-3.0,-3.0,-2.0,-5.0,-3.0,-13.0,1650822191961854.0
0.0,-2.0,-2.0,-5.0,-10.0,-11.0,1.0,0.0,1650822191962868.0
-3.0,1.0,-2.0,-1.0,-19.0,-22.0,-7.0,-1.0,1650822191962868.0
-4.0,-4.0,-6.0,-1.0,8.0,15.0,1.0,0.0,1650822191976802.0
-2.0,1.0,-3.0,-3.0,8.0,12.0,1.0,3.0,1650822191976802.0
2.0,4.0,1.0,0.0,-2.0,-2.0,1.0,0.0,1650822191977817.0
-2.0,-3.0,2.0,1.0,3.0,2.0,1.0,1.0,1650822191977817.0
-1.0,1.0,-5.0,-10.0,-9.0,-13.0,0.0,-4.0,1650822191999295.0
0.0,-7.0,2.0,9.0,5.0,17.0,3.0,1.0,1650822191999295.0
-3.0,-1.0,0.0,2.0,5.0,4.0,0.0,-4.0,1650822192000290.0
2.0,-1.0,-2.0,-3.0,-3.0,-11.0,-3.0,2.0,1650822192000290.0
-1.0,0.0,0.0,-1.0,0.0,3.0,2.0,-4.0,1650822192021854.0
0.0,2.0,-2.0,-5.0,-2.0,2.0,2.0,1.0,1650822192021854.0
-2.0,1.0,-2.0,-3.0,-7.0,-9.0,-3.0,-1.0,1650822192022852.0
-4.0,-6.0,-6.0,-6.0,-5.0,-19.0,-4.0,-3.0,1650822192022852.0
2.0,-5.0,5.0,5.0,10.0,23.0,-1.0,0.0,1650822192035883.0
-1.0,1.0,6.0,8.0,7.0,17.0,3.0,-1.0,1650822192035883.0
-2.0,-1.0,0.0,-4.0,-2.0,-8.0,1.0,-1.0,1650822192042919.0
-1.0,2.0,-2.0,-4.0,-12.0,-16.0,-6.0,-1.0,1650822192042919.0
-4.0,0.0,-6.0,-7.0,-16.0,-20.0,-5.0,-5.0,1650822192058946.0
-1.0,-1.0,-3.0,-2.0,7.0,6.0,0.0,2.0,1650822192058946.0
1.0,0.0,3.0,6.0,12.0,15.0,3.0,2.0,1650822192060903.0
0.0,4.0,0.0,2.0,10.0,13.0,8.0,2.0,1650822192060903.0
2.0,-1.0,-3.0,0.0,-2.0,0.0,0.0,2.0,1650822192081004.0
1.0,1.0,-5.0,-10.0,-4.0,-9.0,-1.0,1.0,1650822192081004.0
3.0,-1.0,6.0,11.0,0.0,3.0,-3.0,-2.0,1650822192082932.0
1.0,-1.0,6.0,0.0,-3.0,-2.0,-2.0,-1.0,1650822192082932.0
-2.0,0.0,0.0,2.0,-3.0,-1.0,0.0,-3.0,1650822192094965.0
-1.0,-3.0,-5.0,-9.0,-17.0,-33.0,-11.0,-2.0,1650822192094965.0
-2.0,0.0,-2.0,-3.0,-2.0,9.0,0.0,-3.0,1650822192103888.0
-1.0,2.0,4.0,7.0,17.0,35.0,9.0,4.0,1650822192103888.0
1.0,1.0,3.0,6.0,16.0,7.0,-1.0,2.0,1650822192118866.0
-3.0,-1.0,-4.0,-5.0,-1.0,-5.0,1.0,-3.0,1650822192118866.0
-2.0,-2.0,-3.0,-5.0,-10.0,-16.0,-5.0,-2.0,1650822192120863.0
-3.0,-2.0,-3.0,-5.0,-17.0,-16.0,-6.0,-1.0,1650822192120863.0
-2.0,2.0,0.0,-1.0,-5.0,-7.0,-2.0,-4.0,1650822192141852.0
1.0,1.0,-1.0,-2.0,-3.0,-7.0,-4.0,1.0,1650822192141852.0
-1.0,-2.0,-1.0,-1.0,0.0,1.0,2.0,-1.0,1650822192142848.0
2.0,-3.0,-1.0,3.0,11.0,18.0,3.0,-1.0,1650822192142848.0
-1.0,-1.0,-2.0,-1.0,15.0,14.0,7.0,3.0,1650822192155881.0
-7.0,0.0,3.0,9.0,1.0,3.0,2.0,1.0,1650822192155881.0
7.0,-1.0,-1.0,-8.0,-8.0,-5.0,-1.0,0.0,1650822192162886.0
0.0,-1.0,0.0,1.0,-10.0,-11.0,-7.0,-1.0,1650822192162886.0
-1.0,2.0,-6.0,-7.0,-21.0,-32.0,-8.0,-5.0,1650822192179023.0
-3.0,-2.0,-1.0,-2.0,-9.0,14.0,0.0,-2.0,1650822192179023.0
-3.0,2.0,0.0,5.0,23.0,20.0,3.0,3.0,1650822192179956.0
2.0,2.0,3.0,4.0,25.0,22.0,11.0,3.0,1650822192179956.0
1.0,-1.0,0.0,0.0,1.0,-6.0,-5.0,0.0,1650822192200977.0
2.0,1.0,0.0,-2.0,-8.0,-8.0,9.0,2.0,1650822192200977.0
-2.0,-2.0,-5.0,-5.0,-23.0,-19.0,-8.0,-1.0,1650822192202953.0
-2.0,-2.0,-3.0,-6.0,-9.0,-19.0,-8.0,-5.0,1650822192202953.0
-2.0,2.0,2.0,4.0,-1.0,4.0,1.0,-1.0,1650822192216109.0
4.0,1.0,-3.0,-4.0,5.0,3.0,-2.0,1.0,1650822192216109.0
1.0,-2.0,8.0,15.0,21.0,12.0,4.0,1.0,1650822192223028.0
1.0,0.0,-1.0,0.0,1.0,10.0,2.0,0.0,1650822192223028.0
-2.0,-2.0,-5.0,-5.0,-6.0,-4.0,-2.0,-1.0,1650822192238859.0
-2.0,1.0,2.0,-1.0,-6.0,-3.0,-2.0,0.0,1650822192238859.0
-2.0,-2.0,-2.0,-2.0,-12.0,-20.0,-3.0,-2.0,1650822192240856.0
-6.0,-1.0,-1.0,-3.0,2.0,-4.0,-6.0,-3.0,1650822192240856.0
8.0,-1.0,-2.0,-1.0,3.0,6.0,1.0,0.0,1650822192261022.0
-3.0,-1.0,2.0,2.0,5.0,6.0,0.0,1.0,1650822192261022.0
2.0,-1.0,-3.0,-5.0,2.0,-3.0,-1.0,0.0,1650822192262951.0
1.0,2.0,-4.0,-1.0,-10.0,-10.0,0.0,2.0,1650822192262951.0
-4.0,4.0,5.0,3.0,5.0,10.0,3.0,0.0,1650822192275993.0
-2.0,-8.0,-1.0,-1.0,1.0,-6.0,-3.0,-2.0,1650822192275993.0
0.0,0.0,-7.0,-6.0,-4.0,-1.0,-2.0,-1.0,1650822192290033.0
-2.0,-3.0,0.0,-2.0,-5.0,-8.0,0.0,-2.0,1650822192290033.0
2.0,1.0,0.0,0.0,-5.0,-1.0,0.0,0.0,1650822192299005.0
-5.0,0.0,1.0,5.0,9.0,11.0,3.0,0.0,1650822192299005.0
-3.0,0.0,1.0,3.0,5.0,1.0,3.0,1.0,1650822192300935.0
-1.0,-1.0,-2.0,-3.0,-1.0,7.0,-2.0,-1.0,1650822192300935.0
0.0,-1.0,-1.0,-2.0,0.0,3.0,3.0,3.0,1650822192321245.0
3.0,0.0,0.0,-2.0,-6.0,-20.0,-8.0,-4.0,1650822192321245.0
0.0,-3.0,-4.0,-6.0,-7.0,-2.0,-6.0,0.0,1650822192323175.0
-1.0,0.0,3.0,2.0,-4.0,3.0,1.0,1.0,1650822192323175.0
-2.0,-5.0,1.0,3.0,2.0,-5.0,-2.0,0.0,1650822192336154.0
0.0,2.0,-2.0,1.0,2.0,8.0,0.0,0.0,1650822192336154.0
-1.0,-1.0,1.0,0.0,-1.0,7.0,6.0,1.0,1650822192342208.0
-1.0,2.0,1.0,2.0,2.0,-8.0,-1.0,0.0,1650822192342208.0
1.0,-3.0,0.0,0.0,7.0,5.0,1.0,0.0,1650822192358931.0
2.0,-2.0,-3.0,-2.0,0.0,4.0,-2.0,-1.0,1650822192358931.0
-2.0,-1.0,-2.0,-5.0,-2.0,-2.0,-1.0,-1.0,1650822192360882.0
2.0,-1.0,0.0,-3.0,-11.0,-13.0,-2.0,0.0,1650822192360882.0
-5.0,-2.0,-2.0,-3.0,-13.0,-16.0,-6.0,-3.0,1650822192381031.0
-1.0,2.0,0.0,0.0,5.0,11.0,2.0,1.0,1650822192381031.0
0.0,-4.0,2.0,4.0,8.0,19.0,6.0,-1.0,1650822192382960.0
0.0,1.0,0.0,3.0,18.0,20.0,4.0,2.0,1650822192382960.0
0.0,-2.0,-2.0,0.0,8.0,-1.0,3.0,-1.0,1650822192394994.0
0.0,1.0,-2.0,-4.0,-16.0,-17.0,-3.0,-2.0,1650822192394994.0
-4.0,0.0,-4.0,-6.0,-7.0,-15.0,-4.0,-2.0,1650822192403987.0
-1.0,0.0,-1.0,1.0,-2.0,-7.0,-5.0,-1.0,1650822192403987.0
0.0,2.0,1.0,3.0,-5.0,10.0,0.0,-1.0,1650822192418796.0
5.0,0.0,2.0,2.0,7.0,11.0,1.0,1.0,1650822192418796.0
-7.0,1.0,-2.0,-1.0,5.0,2.0,3.0,0.0,1650822192420823.0
-2.0,-1.0,0.0,-2.0,-8.0,-9.0,-1.0,0.0,1650822192420823.0
5.0,2.0,-1.0,-3.0,2.0,-4.0,-6.0,-4.0,1650822192440958.0
-4.0,-5.0,-4.0,-3.0,-5.0,-9.0,0.0,1.0,1650822192440958.0
1.0,-1.0,-3.0,-3.0,-3.0,8.0,-2.0,0.0,1650822192442887.0
0.0,-1.0,0.0,0.0,0.0,0.0,-1.0,0.0,1650822192442887.0
-1.0,0.0,4.0,4.0,0.0,-9.0,-3.0,-1.0,1650822192454921.0
1.0,3.0,1.0,-1.0,-7.0,-12.0,-2.0,1.0,1650822192454921.0
0.0,1.0,-2.0,-2.0,0.0,12.0,2.0,0.0,1650822192463944.0
0.0,-2.0,-3.0,1.0,16.0,20.0,4.0,0.0,1650822192463944.0
-3.0,-2.0,0.0,-3.0,-4.0,1.0,-1.0,-1.0,1650822192478871.0
-1.0,1.0,-2.0,-4.0,3.0,-8.0,-3.0,-2.0,1650822192478871.0
1.0,1.0,1.0,-1.0,-15.0,-18.0,-4.0,-1.0,1650822192480907.0
-1.0,0.0,2.0,3.0,0.0,-3.0,-1.0,-3.0,1650822192480907.0
-4.0,-5.0,-6.0,-1.0,-1.0,-3.0,-1.0,0.0,1650822192500934.0
0.0,0.0,1.0,1.0,3.0,7.0,1.0,1.0,1650822192500934.0
0.0,0.0,2.0,-2.0,9.0,19.0,3.0,-1.0,1650822192502862.0
0.0,-1.0,-3.0,-3.0,-4.0,-2.0,-1.0,1.0,1650822192502862.0
0.0,-1.0,-1.0,-2.0,-3.0,-6.0,-1.0,1.0,1650822192514897.0
0.0,0.0,-2.0,-4.0,-7.0,-11.0,-3.0,-3.0,1650822192514897.0
0.0,-2.0,-4.0,0.0,-3.0,3.0,-3.0,-2.0,1650822192523740.0
0.0,1.0,2.0,2.0,4.0,4.0,2.0,0.0,1650822192523740.0
-3.0,1.0,4.0,5.0,7.0,6.0,3.0,-2.0,1650822192538928.0
0.0,-1.0,0.0,0.0,3.0,7.0,2.0,1.0,1650822192538928.0
-1.0,-2.0,-3.0,-2.0,-6.0,-18.0,-5.0,0.0,1650822192540881.0
0.0,-3.0,-6.0,-12.0,-14.0,-9.0,-6.0,-10.0,1650822192540881.0
0.0,2.0,-1.0,-1.0,-6.0,6.0,-1.0,0.0,1650822192560815.0
-2.0,2.0,5.0,6.0,10.0,11.0,0.0,-1.0,1650822192560815.0
1.0,1.0,3.0,5.0,6.0,-11.0,-1.0,0.0,1650822192568891.0
-3.0,-5.0,-2.0,0.0,1.0,10.0,4.0,3.0,1650822192568891.0
5.0,0.0,-2.0,-4.0,-7.0,2.0,0.0,-1.0,1650822192574898.0
0.0,-1.0,-3.0,-4.0,-1.0,-6.0,-2.0,-2.0,1650822192574898.0
-1.0,-2.0,4.0,4.0,2.0,-13.0,-5.0,-2.0,1650822192583877.0
-1.0,1.0,-2.0,-1.0,-6.0,1.0,0.0,2.0,1650822192583877.0
-1.0,-2.0,-3.0,0.0,4.0,7.0,2.0,-1.0,1650822192598860.0
1.0,-1.0,2.0,2.0,3.0,5.0,2.0,3.0,1650822192598860.0
0.0,2.0,2.0,-1.0,-4.0,-7.0,0.0,0.0,1650822192600857.0
-1.0,0.0,-1.0,-4.0,-8.0,-17.0,-6.0,-3.0,1650822192600857.0
-1.0,-1.0,-5.0,1.0,5.0,17.0,3.0,2.0,1650822192621867.0
-1.0,-4.0,-1.0,3.0,4.0,8.0,3.0,0.0,1650822192621867.0
0.0,0.0,0.0,2.0,4.0,4.0,2.0,-3.0,1650822192622852.0
0.0,3.0,-1.0,-4.0,-9.0,-23.0,-4.0,0.0,1650822192622852.0
-4.0,-2.0,-4.0,-3.0,-9.0,-2.0,-3.0,-2.0,1650822192634886.0
-4.0,-1.0,-2.0,-1.0,13.0,20.0,0.0,-1.0,1650822192634886.0
-2.0,0.0,2.0,4.0,9.0,11.0,8.0,3.0,1650822192643796.0
1.0,-7.0,-5.0,-10.0,-19.0,-35.0,-8.0,0.0,1650822192643796.0
-1.0,1.0,-4.0,-5.0,-2.0,-5.0,-1.0,1.0,1650822192658936.0
0.0,3.0,4.0,4.0,0.0,19.0,0.0,-2.0,1650822192658936.0
-2.0,-1.0,2.0,5.0,-1.0,4.0,5.0,0.0,1650822192660910.0
2.0,5.0,4.0,6.0,9.0,5.0,3.0,0.0,1650822192660910.0
-2.0,0.0,-2.0,-3.0,2.0,-12.0,-2.0,1.0,1650822192680936.0
0.0,-3.0,-12.0,-11.0,-8.0,-6.0,-1.0,-1.0,1650822192680936.0
-1.0,-2.0,9.0,11.0,-6.0,4.0,-4.0,0.0,1650822192682865.0
-1.0,-1.0,7.0,14.0,3.0,9.0,-1.0,0.0,1650822192682865.0
-2.0,-2.0,-5.0,-15.0,3.0,-1.0,5.0,1.0,1650822192694899.0
4.0,2.0,-5.0,-7.0,-6.0,-10.0,-4.0,2.0,1650822192694899.0
0.0,-3.0,-10.0,-12.0,0.0,-3.0,-3.0,-2.0,1650822192703620.0
0.0,-2.0,-1.0,2.0,9.0,10.0,3.0,-1.0,1650822192703620.0
-5.0,1.0,5.0,3.0,-6.0,-10.0,-6.0,-2.0,1650822192718739.0
-1.0,1.0,0.0,0.0,-10.0,9.0,8.0,1.0,1650822192718739.0
0.0,-2.0,-2.0,-5.0,3.0,6.0,-8.0,-2.0,1650822192720737.0
-3.0,0.0,3.0,5.0,8.0,11.0,17.0,3.0,1650822192720737.0
-1.0,-1.0,-2.0,0.0,-2.0,-6.0,-3.0,-1.0,1650822192741852.0
-3.0,-4.0,-1.0,-3.0,-13.0,-24.0,-3.0,-2.0,1650822192741852.0
4.0,3.0,-1.0,-1.0,-2.0,-6.0,-3.0,-2.0,1650822192742851.0
-2.0,0.0,-2.0,-3.0,3.0,21.0,-1.0,1.0,1650822192742851.0
0.0,-1.0,10.0,11.0,5.0,9.0,1.0,-2.0,1650822192755007.0
-1.0,1.0,1.0,-1.0,-1.0,-16.0,-3.0,-2.0,1650822192755007.0
-2.0,0.0,-3.0,-5.0,-8.0,-14.0,-4.0,0.0,1650822192763915.0
2.0,5.0,0.0,2.0,8.0,18.0,-1.0,1.0,1650822192763915.0
-3.0,-3.0,-1.0,-1.0,2.0,5.0,3.0,0.0,1650822192778906.0
2.0,2.0,1.0,0.0,4.0,5.0,-3.0,0.0,1650822192778906.0
-4.0,-3.0,4.0,7.0,-2.0,-7.0,3.0,1.0,1650822192780903.0
2.0,0.0,-2.0,-4.0,-5.0,-19.0,-11.0,-5.0,1650822192780903.0
1.0,0.0,0.0,-1.0,-11.0,5.0,8.0,1.0,1650822192801144.0
-4.0,-5.0,-6.0,-3.0,2.0,8.0,-1.0,0.0,1650822192801144.0
3.0,0.0,-6.0,-6.0,-4.0,-1.0,0.0,0.0,1650822192803074.0
-11.0,-3.0,-1.0,-2.0,-5.0,-10.0,-2.0,0.0,1650822192803074.0
2.0,4.0,8.0,5.0,1.0,-2.0,-5.0,-2.0,1650822192824004.0
0.0,0.0,-4.0,0.0,6.0,1.0,0.0,-1.0,1650822192824004.0
-4.0,-1.0,-8.0,-3.0,0.0,21.0,4.0,0.0,1650822192825004.0
3.0,-1.0,1.0,1.0,9.0,16.0,6.0,0.0,1650822192825004.0
2.0,2.0,9.0,4.0,7.0,-5.0,-1.0,3.0,1650822192846165.0
1.0,4.0,11.0,6.0,-4.0,-12.0,1.0,0.0,1650822192846165.0
-4.0,-7.0,-20.0,-11.0,-10.0,-24.0,-8.0,-6.0,1650822192848120.0
-2.0,-4.0,-6.0,-7.0,-6.0,0.0,-1.0,-3.0,1650822192848120.0
0.0,2.0,-4.0,-3.0,-3.0,4.0,-1.0,-2.0,1650822192861128.0
-4.0,-1.0,5.0,6.0,5.0,4.0,1.0,0.0,1650822192861128.0
2.0,4.0,6.0,2.0,-6.0,-14.0,-1.0,1.0,1650822192863080.0
1.0,-1.0,7.0,2.0,-14.0,-9.0,-3.0,-2.0,1650822192863080.0
-4.0,-2.0,1.0,3.0,20.0,18.0,0.0,0.0,1650822192884310.0
2.0,0.0,-8.0,-2.0,9.0,15.0,5.0,1.0,1650822192884310.0
-2.0,-1.0,-7.0,-9.0,-4.0,-5.0,-1.0,0.0,1650822192885276.0
3.0,2.0,-1.0,3.0,-4.0,-12.0,-1.0,0.0,1650822192885276.0
0.0,-1.0,-3.0,-7.0,-17.0,-18.0,-4.0,1.0,1650822192899350.0
1.0,-4.0,2.0,1.0,-3.0,1.0,-6.0,0.0,1650822192899350.0
0.0,-4.0,-15.0,-7.0,5.0,11.0,9.0,-7.0,1650822192900347.0
2.0,0.0,-4.0,-1.0,-1.0,-8.0,-2.0,0.0,1650822192900347.0
0.0,-3.0,-4.0,-7.0,-6.0,-10.0,-2.0,-1.0,1650822192921521.0
-3.0,5.0,20.0,16.0,0.0,-9.0,-1.0,2.0,1650822192921521.0
0.0,3.0,-4.0,-7.0,12.0,36.0,1.0,1.0,1650822192922475.0
-2.0,-7.0,-10.0,-8.0,3.0,5.0,0.0,1.0,1650822192922475.0
8.0,6.0,-6.0,6.0,4.0,-11.0,-2.0,-4.0,1650822192944268.0
-3.0,-5.0,-12.0,-22.0,-15.0,-20.0,-5.0,-3.0,1650822192944268.0
1.0,3.0,15.0,14.0,-2.0,-9.0,-2.0,1.0,1650822192945804.0
14.0,7.0,-2.0,-11.0,-1.0,6.0,0.0,0.0,1650822192945804.0
-25.0,-7.0,4.0,19.0,-9.0,-2.0,-1.0,17.0,1650822192957921.0
6.0,0.0,4.0,-1.0,-3.0,-1.0,3.0,-25.0,1650822192957921.0
-7.0,-11.0,-26.0,-14.0,13.0,5.0,-3.0,-1.0,1650822192964902.0
-1.0,-1.0,1.0,-2.0,0.0,6.0,1.0,12.0,1650822192964902.0
47.0,10.0,24.0,9.0,0.0,7.0,2.0,-1.0,1650822192981855.0
-24.0,-7.0,9.0,12.0,4.0,2.0,4.0,9.0,1650822192981855.0
25.0,-15.0,-39.0,-10.0,8.0,4.0,-1.0,0.0,1650822192982852.0
-41.0,-1.0,4.0,-6.0,-1.0,-14.0,-3.0,19.0,1650822192982852.0
0.0,-4.0,-3.0,1.0,-8.0,6.0,-3.0,-16.0,1650822193003980.0
-11.0,11.0,-10.0,-20.0,-7.0,5.0,0.0,-17.0,1650822193003980.0
24.0,12.0,18.0,1.0,-17.0,-17.0,1.0,21.0,1650822193005914.0
-9.0,-4.0,16.0,22.0,15.0,4.0,-2.0,-18.0,1650822193005914.0
-4.0,12.0,25.0,18.0,14.0,7.0,2.0,6.0,1650822193018024.0
4.0,-18.0,-48.0,-34.0,1.0,5.0,0.0,21.0,1650822193018024.0
-25.0,6.0,23.0,6.0,-12.0,-15.0,-4.0,-20.0,1650822193025427.0
11.0,-14.0,-48.0,-26.0,-18.0,-9.0,-6.0,-12.0,1650822193025427.0
-16.0,20.0,62.0,39.0,6.0,1.0,3.0,2.0,1650822193041605.0
-36.0,-27.0,-62.0,-26.0,0.0,1.0,3.0,39.0,1650822193041605.0
16.0,19.0,53.0,22.0,6.0,13.0,-4.0,-50.0,1650822193042581.0
2.0,-1.0,27.0,22.0,9.0,8.0,5.0,-2.0,1650822193042581.0
12.0,-10.0,-44.0,-36.0,11.0,0.0,-3.0,-31.0,1650822193063834.0
35.0,18.0,58.0,48.0,-2.0,-15.0,-6.0,-3.0,1650822193063834.0
-38.0,-52.0,-85.0,-37.0,-31.0,-24.0,-10.0,39.0,1650822193065833.0
29.0,25.0,57.0,29.0,13.0,7.0,-1.0,-14.0,1650822193065833.0
35.0,14.0,5.0,1.0,4.0,7.0,9.0,29.0,1650822193077920.0
-24.0,-5.0,11.0,-3.0,0.0,4.0,3.0,61.0,1650822193077920.0
6.0,-15.0,-22.0,-10.0,-6.0,-5.0,-11.0,-66.0,1650822193084969.0
-18.0,6.0,6.0,4.0,-6.0,-1.0,9.0,26.0,1650822193084969.0
19.0,12.0,25.0,15.0,-7.0,-26.0,-8.0,2.0,1650822193101140.0
-4.0,7.0,1.0,5.0,7.0,29.0,-2.0,-35.0,1650822193101140.0
-34.0,7.0,24.0,34.0,19.0,20.0,8.0,26.0,1650822193103070.0
-18.0,-38.0,-100.0,-67.0,-24.0,-23.0,-2.0,29.0,1650822193103070.0
-13.0,-17.0,15.0,9.0,23.0,7.0,-1.0,-13.0,1650822193124179.0
38.0,47.0,96.0,53.0,0.0,0.0,15.0,53.0,1650822193124179.0
-6.0,-13.0,-38.0,-39.0,-6.0,-5.0,-6.0,-37.0,1650822193126176.0
-14.0,12.0,58.0,72.0,24.0,20.0,3.0,-9.0,1650822193126176.0
8.0,-39.0,-128.0,-81.0,-27.0,-8.0,2.0,32.0,1650822193138568.0
-7.0,6.0,23.0,8.0,-8.0,-16.0,1.0,-7.0,1650822193138568.0
20.0,29.0,70.0,48.0,16.0,9.0,10.0,10.0,1650822193144883.0
-1.0,2.0,-41.0,-13.0,2.0,7.0,5.0,26.0,1650822193144883.0
1.0,-4.0,14.0,5.0,-8.0,-9.0,-7.0,-11.0,1650822193161667.0
-6.0,-4.0,-32.0,-4.0,8.0,7.0,1.0,-2.0,1650822193161667.0
33.0,19.0,21.0,-14.0,-12.0,-2.0,5.0,23.0,1650822193162595.0
-58.0,-27.0,-2.0,32.0,2.0,-7.0,-4.0,-22.0,1650822193162595.0
-8.0,48.0,97.0,38.0,20.0,25.0,6.0,-14.0,1650822193184054.0
-4.0,-36.0,-104.0,-18.0,-9.0,-22.0,-8.0,-7.0,1650822193184054.0
-5.0,0.0,11.0,-54.0,-22.0,-20.0,-4.0,2.0,1650822193184992.0
26.0,15.0,42.0,19.0,8.0,10.0,4.0,43.0,1650822193184992.0
-51.0,-12.0,-35.0,-10.0,17.0,29.0,-7.0,-83.0,1650822193198187.0
4.0,0.0,8.0,-53.0,-10.0,-10.0,-9.0,-17.0,1650822193198187.0
-1.0,-13.0,-26.0,31.0,11.0,2.0,1.0,10.0,1650822193204980.0
10.0,33.0,14.0,-42.0,-11.0,-17.0,-4.0,9.0,1650822193204980.0
-33.0,-68.0,-88.0,-44.0,-14.0,0.0,-2.0,-5.0,1650822193221109.0
36.0,8.0,56.0,42.0,1.0,0.0,-6.0,-18.0,1650822193221109.0
-34.0,2.0,6.0,7.0,11.0,12.0,11.0,0.0,1650822193223067.0
27.0,10.0,11.0,-24.0,-6.0,-6.0,-5.0,-13.0,1650822193223067.0
12.0,40.0,92.0,95.0,15.0,-13.0,2.0,5.0,1650822193244804.0
12.0,-45.0,-66.0,-41.0,-11.0,-6.0,-12.0,-38.0,1650822193244804.0
