EMG_s0,EMG_s1,EMG_s2,EMG_s3,EMG_s4,EMG_s5,EMG_s6,EMG_s7,timestamp
-3.0,-1.0,1.0,4.0,0.0,-3.0,-2.0,2.0,1650821302133856.0
-1.0,0.0,1.0,3.0,4.0,0.0,0.0,0.0,1650821302133856.0
1.0,-3.0,-2.0,-7.0,-4.0,-2.0,0.0,1.0,1650821302135785.0
-2.0,0.0,2.0,3.0,-2.0,-3.0,-2.0,-1.0,1650821302135785.0
-1.0,1.0,-1.0,-3.0,1.0,1.0,-2.0,2.0,1650821302136783.0
1.0,-1.0,1.0,-1.0,-1.0,0.0,1.0,1.0,1650821302136783.0
0.0,1.0,-1.0,-1.0,4.0,8.0,2.0,-1.0,1650821302137780.0
-1.0,-2.0,0.0,1.0,5.0,-1.0,0.0,1.0,1650821302137780.0
1.0,0.0,1.0,-1.0,1.0,0.0,1.0,-2.0,1650821302138777.0
1.0,-1.0,-2.0,-6.0,-6.0,-7.0,-2.0,-1.0,1650821302138777.0
0.0,0.0,1.0,4.0,7.0,2.0,0.0,-3.0,1650821302152740.0
-1.0,1.0,-2.0,-1.0,-3.0,-6.0,-2.0,-2.0,1650821302152740.0
0.0,-1.0,-2.0,-4.0,-7.0,-1.0,-1.0,-4.0,1650821302162463.0
-2.0,0.0,-1.0,-3.0,-6.0,5.0,0.0,1.0,1650821302162463.0
2.0,0.0,-2.0,-3.0,-3.0,-6.0,2.0,1.0,1650821302168469.0
1.0,0.0,2.0,7.0,7.0,5.0,1.0,2.0,1650821302168469.0
0.0,-1.0,2.0,2.0,3.0,-2.0,-2.0,-1.0,1650821302183665.0
1.0,0.0,0.0,-2.0,0.0,3.0,0.0,-1.0,1650821302183665.0
-1.0,-1.0,-1.0,-1.0,-1.0,3.0,0.0,-1.0,1650821302198586.0
-2.0,0.0,3.0,0.0,-4.0,-3.0,-1.0,-2.0,1650821302198586.0
1.0,-1.0,-2.0,-4.0,-4.0,-5.0,0.0,-1.0,1650821302199555.0
1.0,-1.0,0.0,1.0,2.0,2.0,1.0,0.0,1650821302199555.0
0.0,-1.0,-2.0,-2.0,-1.0,-3.0,-4.0,-1.0,1650821302246104.0
1.0,0.0,-5.0,-3.0,0.0,-4.0,-2.0,-2.0,1650821302246104.0
-1.0,-1.0,8.0,8.0,2.0,6.0,0.0,-1.0,1650821302246104.0
-1.0,-1.0,0.0,0.0,4.0,6.0,0.0,-1.0,1650821302246104.0
1.0,0.0,0.0,-3.0,-4.0,-5.0,0.0,1.0,1650821302247104.0
-2.0,-1.0,-2.0,-3.0,-4.0,-5.0,-2.0,-2.0,1650821302247104.0
-3.0,0.0,-1.0,-3.0,-3.0,-5.0,-2.0,-1.0,1650821302250095.0
-2.0,-1.0,-1.0,1.0,-4.0,-6.0,-3.0,0.0,1650821302250095.0
-2.0,1.0,-1.0,0.0,4.0,3.0,0.0,-1.0,1650821302258094.0
0.0,0.0,0.0,1.0,4.0,1.0,1.0,0.0,1650821302258094.0
1.0,0.0,-2.0,-3.0,-3.0,-2.0,-2.0,-1.0,1650821302267050.0
-1.0,1.0,0.0,1.0,2.0,5.0,1.0,0.0,1650821302267050.0
0.0,1.0,0.0,0.0,-1.0,-2.0,1.0,0.0,1650821302273428.0
0.0,-1.0,-1.0,-1.0,-8.0,-6.0,-1.0,-2.0,1650821302273428.0
-1.0,-2.0,-2.0,2.0,3.0,-2.0,2.0,-1.0,1650821302287867.0
1.0,-1.0,2.0,3.0,8.0,4.0,-1.0,-1.0,1650821302287867.0
0.0,-2.0,-3.0,0.0,-5.0,-11.0,-3.0,0.0,1650821302295846.0
-1.0,1.0,5.0,4.0,3.0,10.0,2.0,2.0,1650821302295846.0
1.0,0.0,-4.0,-6.0,-1.0,8.0,3.0,-1.0,1650821302318906.0
-1.0,-1.0,-2.0,-4.0,-5.0,-7.0,-2.0,-1.0,1650821302318906.0
-1.0,0.0,-1.0,0.0,5.0,3.0,1.0,0.0,1650821302319842.0
0.0,-1.0,2.0,1.0,0.0,-4.0,-2.0,-1.0,1650821302319842.0
-1.0,0.0,0.0,0.0,-5.0,-7.0,-3.0,-1.0,1650821302333866.0
-2.0,-1.0,-3.0,-3.0,-2.0,-4.0,-3.0,0.0,1650821302333866.0
-3.0,0.0,1.0,0.0,1.0,3.0,0.0,-1.0,1650821302334797.0
-2.0,-1.0,-2.0,-1.0,3.0,4.0,-1.0,0.0,1650821302334797.0
0.0,-1.0,1.0,-1.0,1.0,0.0,0.0,0.0,1650821302356604.0
0.0,-1.0,2.0,0.0,0.0,-2.0,2.0,-1.0,1650821302356604.0
-1.0,-2.0,-2.0,-2.0,-3.0,1.0,0.0,0.0,1650821302356604.0
-1.0,0.0,1.0,1.0,-1.0,-1.0,2.0,0.0,1650821302356604.0
-1.0,-1.0,-1.0,0.0,-3.0,-10.0,-2.0,-1.0,1650821302378855.0
0.0,-1.0,0.0,-1.0,3.0,8.0,0.0,-1.0,1650821302378855.0
-1.0,-1.0,0.0,-1.0,1.0,8.0,1.0,0.0,1650821302379825.0
1.0,-1.0,-5.0,-5.0,1.0,-2.0,1.0,0.0,1650821302379825.0
-2.0,0.0,2.0,4.0,-4.0,-5.0,-1.0,0.0,1650821302393839.0
0.0,1.0,-4.0,-3.0,-9.0,-8.0,-1.0,1.0,1650821302393839.0
-1.0,-2.0,1.0,2.0,3.0,6.0,-2.0,0.0,1650821302394771.0
-2.0,-4.0,0.0,-2.0,3.0,1.0,-2.0,-1.0,1650821302394771.0
1.0,-1.0,0.0,-1.0,1.0,-5.0,-2.0,-1.0,1650821302415959.0
-1.0,0.0,1.0,2.0,-1.0,0.0,1.0,-2.0,1650821302415959.0
0.0,-1.0,-3.0,-4.0,1.0,1.0,0.0,0.0,1650821302416924.0
1.0,0.0,-2.0,-4.0,-4.0,-2.0,0.0,-1.0,1650821302416924.0
-1.0,-1.0,0.0,0.0,-2.0,0.0,1.0,-3.0,1650821302438874.0
-1.0,0.0,0.0,1.0,1.0,-2.0,-1.0,0.0,1650821302438874.0
0.0,0.0,-1.0,-1.0,-6.0,-12.0,-3.0,-2.0,1650821302439874.0
-1.0,-1.0,-2.0,0.0,2.0,9.0,0.0,0.0,1650821302439874.0
-1.0,-1.0,-1.0,-1.0,8.0,13.0,2.0,2.0,1650821302453983.0
2.0,1.0,0.0,1.0,2.0,-1.0,0.0,-1.0,1650821302453983.0
-1.0,-1.0,0.0,-1.0,-5.0,-7.0,-1.0,-2.0,1650821302453983.0
-3.0,0.0,0.0,1.0,-5.0,-7.0,-3.0,0.0,1650821302453983.0
0.0,1.0,-4.0,-2.0,-1.0,1.0,-2.0,1.0,1650821302476146.0
-2.0,-1.0,1.0,2.0,2.0,0.0,1.0,-1.0,1650821302476146.0
-1.0,-1.0,-3.0,-5.0,-1.0,-3.0,-1.0,1.0,1650821302477077.0
0.0,-1.0,5.0,7.0,-1.0,-2.0,0.0,-1.0,1650821302477077.0
-1.0,-1.0,-1.0,-2.0,1.0,4.0,0.0,0.0,1650821302498287.0
-1.0,0.0,-4.0,-1.0,1.0,3.0,1.0,1.0,1650821302498287.0
-1.0,0.0,0.0,-1.0,2.0,1.0,0.0,0.0,1650821302499217.0
0.0,-2.0,2.0,3.0,-1.0,1.0,0.0,1.0,1650821302499217.0
-1.0,-1.0,-3.0,-2.0,-2.0,-3.0,-1.0,-1.0,1650821302514146.0
1.0,-2.0,-1.0,-2.0,-2.0,-1.0,0.0,-1.0,1650821302514146.0
-1.0,1.0,0.0,-1.0,-1.0,-1.0,1.0,-2.0,1650821302514801.0
-1.0,0.0,0.0,-1.0,3.0,-4.0,-2.0,1.0,1650821302514801.0
0.0,1.0,-2.0,0.0,1.0,4.0,0.0,-2.0,1650821302535940.0
2.0,-1.0,-3.0,-2.0,-3.0,0.0,-2.0,-1.0,1650821302535940.0
0.0,-1.0,2.0,3.0,1.0,-1.0,-1.0,-1.0,1650821302536870.0
-2.0,0.0,-1.0,0.0,-1.0,-6.0,-1.0,-1.0,1650821302536870.0
0.0,0.0,0.0,-3.0,-3.0,-7.0,-3.0,2.0,1650821302558043.0
0.0,-1.0,-5.0,-7.0,-3.0,1.0,1.0,-1.0,1650821302558043.0
1.0,-3.0,6.0,5.0,-1.0,0.0,0.0,0.0,1650821302566090.0
0.0,0.0,2.0,-1.0,-6.0,-2.0,-1.0,-1.0,1650821302566090.0
0.0,-1.0,-3.0,0.0,3.0,4.0,1.0,0.0,1650821302574072.0
-1.0,0.0,0.0,1.0,5.0,0.0,1.0,0.0,1650821302574072.0
1.0,-1.0,-4.0,-3.0,0.0,1.0,0.0,-2.0,1650821302574804.0
-1.0,0.0,-2.0,-4.0,2.0,0.0,0.0,-1.0,1650821302574804.0
0.0,0.0,0.0,-3.0,-6.0,-4.0,-3.0,-2.0,1650821302596631.0
-2.0,0.0,-2.0,-3.0,-7.0,-17.0,-5.0,-1.0,1650821302596631.0
-2.0,1.0,-1.0,0.0,5.0,14.0,1.0,-1.0,1650821302596631.0
-1.0,2.0,1.0,4.0,10.0,14.0,3.0,0.0,1650821302596631.0
0.0,1.0,1.0,0.0,1.0,-1.0,0.0,1.0,1650821302618850.0
-1.0,-2.0,1.0,0.0,-4.0,-4.0,-3.0,-2.0,1650821302618850.0
0.0,-2.0,1.0,2.0,-3.0,-8.0,-3.0,0.0,1650821302625861.0
0.0,0.0,-6.0,-3.0,-12.0,-11.0,-4.0,-2.0,1650821302625861.0
-2.0,0.0,0.0,-1.0,3.0,1.0,1.0,0.0,1650821302633879.0
-1.0,-2.0,-1.0,-3.0,-1.0,0.0,-1.0,-1.0,1650821302633879.0
-1.0,0.0,1.0,1.0,-2.0,0.0,2.0,-3.0,1650821302634840.0
0.0,0.0,-1.0,-1.0,1.0,2.0,2.0,2.0,1650821302634840.0
-1.0,-3.0,-2.0,2.0,4.0,-4.0,-2.0,-1.0,1650821302655928.0
-1.0,0.0,2.0,0.0,-2.0,-2.0,-1.0,-1.0,1650821302655928.0
-1.0,-1.0,-2.0,-3.0,-2.0,-3.0,-3.0,-2.0,1650821302656859.0
0.0,-1.0,-1.0,-1.0,-6.0,-2.0,0.0,-1.0,1650821302656859.0
-2.0,-2.0,0.0,1.0,6.0,9.0,4.0,-2.0,1650821302678996.0
-1.0,2.0,5.0,5.0,7.0,2.0,0.0,-2.0,1650821302678996.0
-1.0,-2.0,-4.0,-5.0,0.0,5.0,-1.0,0.0,1650821302678996.0
-1.0,-1.0,4.0,2.0,-5.0,-6.0,-3.0,0.0,1650821302678996.0
0.0,-2.0,-1.0,-3.0,-9.0,-7.0,-3.0,-1.0,1650821302692958.0
-1.0,0.0,-1.0,-1.0,-1.0,-2.0,-1.0,0.0,1650821302692958.0
-1.0,0.0,0.0,1.0,2.0,-3.0,1.0,1.0,1650821302700936.0
1.0,-2.0,-4.0,-4.0,8.0,8.0,1.0,-1.0,1650821302700936.0
-1.0,0.0,2.0,4.0,-1.0,0.0,1.0,-1.0,1650821302716008.0
0.0,0.0,-1.0,-1.0,-5.0,-2.0,-1.0,-1.0,1650821302716008.0
-1.0,0.0,-2.0,-1.0,-5.0,-9.0,-4.0,-1.0,1650821302716941.0
-1.0,-1.0,-2.0,-6.0,-2.0,1.0,1.0,1.0,1650821302716941.0
0.0,-1.0,0.0,-1.0,2.0,-2.0,1.0,1.0,1650821302739147.0
-1.0,0.0,-2.0,-1.0,2.0,2.0,0.0,1.0,1650821302739147.0
1.0,0.0,-2.0,0.0,-2.0,-1.0,0.0,0.0,1650821302739147.0
-1.0,2.0,1.0,2.0,5.0,7.0,-1.0,-1.0,1650821302739147.0
-2.0,0.0,2.0,0.0,1.0,0.0,-1.0,-3.0,1650821302753191.0
-1.0,-1.0,-2.0,-1.0,-2.0,-5.0,-1.0,-1.0,1650821302753191.0
-1.0,-1.0,-1.0,-1.0,-5.0,-1.0,0.0,-1.0,1650821302761238.0
-1.0,0.0,-2.0,-1.0,-1.0,2.0,0.0,-1.0,1650821302761238.0
-3.0,0.0,2.0,2.0,-4.0,-2.0,1.0,2.0,1650821302776545.0
0.0,-1.0,-1.0,2.0,5.0,8.0,1.0,1.0,1650821302776545.0
0.0,0.0,0.0,1.0,9.0,3.0,2.0,-1.0,1650821302776903.0
0.0,0.0,-1.0,-1.0,-6.0,-9.0,-2.0,-1.0,1650821302776903.0
-1.0,-1.0,-3.0,-3.0,1.0,4.0,-1.0,-1.0,1650821302799086.0
-1.0,0.0,3.0,3.0,-4.0,-6.0,-1.0,0.0,1650821302799086.0
-2.0,0.0,-1.0,0.0,0.0,3.0,3.0,-1.0,1650821302799086.0
-2.0,-2.0,3.0,3.0,-2.0,-9.0,-1.0,-1.0,1650821302799086.0
-1.0,0.0,-5.0,-4.0,2.0,8.0,1.0,0.0,1650821302813161.0
0.0,0.0,-4.0,-4.0,2.0,6.0,2.0,1.0,1650821302813161.0
-1.0,0.0,6.0,6.0,-5.0,-8.0,-4.0,1.0,1650821302821210.0
0.0,-1.0,-3.0,-5.0,2.0,0.0,-1.0,-1.0,1650821302821210.0
2.0,0.0,-4.0,-5.0,-4.0,-5.0,-3.0,-1.0,1650821302835936.0
1.0,-1.0,-2.0,-4.0,-3.0,-2.0,-1.0,-1.0,1650821302835936.0
0.0,-1.0,-1.0,-3.0,-2.0,0.0,-1.0,-1.0,1650821302843802.0
-2.0,-1.0,1.0,4.0,-2.0,-1.0,-2.0,-2.0,1650821302843802.0
0.0,2.0,0.0,2.0,5.0,-1.0,1.0,0.0,1650821302858862.0
0.0,0.0,-2.0,-2.0,2.0,3.0,0.0,-1.0,1650821302858862.0
1.0,1.0,0.0,0.0,-2.0,-2.0,0.0,0.0,1650821302859874.0
-1.0,-1.0,-1.0,-2.0,-1.0,-5.0,-4.0,-1.0,1650821302859874.0
-1.0,0.0,0.0,-1.0,4.0,5.0,-1.0,-2.0,1650821302872941.0
-1.0,-2.0,1.0,0.0,2.0,5.0,2.0,0.0,1650821302872941.0
-1.0,0.0,-2.0,-2.0,-6.0,-12.0,-3.0,0.0,1650821302880975.0
-3.0,0.0,-3.0,-4.0,-4.0,9.0,1.0,-2.0,1650821302880975.0
-1.0,0.0,3.0,3.0,2.0,2.0,1.0,0.0,1650821302904824.0
-2.0,-2.0,0.0,-1.0,3.0,-1.0,1.0,0.0,1650821302904824.0
-1.0,-1.0,-2.0,-1.0,-2.0,2.0,1.0,0.0,1650821302904824.0
0.0,-3.0,-1.0,1.0,3.0,1.0,1.0,0.0,1650821302904824.0
0.0,-2.0,-3.0,-4.0,-8.0,-10.0,-3.0,-2.0,1650821302918877.0
-2.0,-1.0,1.0,2.0,-6.0,-5.0,-4.0,-2.0,1650821302918877.0
1.0,1.0,-1.0,-2.0,2.0,6.0,0.0,-1.0,1650821302919877.0
0.0,0.0,-4.0,-1.0,4.0,-1.0,1.0,1.0,1650821302919877.0
1.0,0.0,-1.0,0.0,-2.0,-2.0,1.0,0.0,1650821302932908.0
-1.0,0.0,-3.0,-4.0,-7.0,-4.0,-3.0,-1.0,1650821302932908.0
-2.0,-2.0,-1.0,0.0,-6.0,-4.0,-3.0,-1.0,1650821302940887.0
-2.0,-1.0,2.0,-2.0,4.0,-9.0,-2.0,0.0,1650821302940887.0
-1.0,1.0,2.0,2.0,3.0,15.0,3.0,-2.0,1650821302956627.0
0.0,0.0,-2.0,0.0,5.0,11.0,2.0,3.0,1650821302956627.0
0.0,-1.0,4.0,5.0,3.0,1.0,1.0,-1.0,1650821302956627.0
1.0,-1.0,-3.0,-5.0,-6.0,-8.0,-2.0,-2.0,1650821302956627.0
-2.0,-2.0,-3.0,-1.0,-9.0,-17.0,-4.0,-2.0,1650821302978564.0
-1.0,0.0,2.0,2.0,0.0,-2.0,0.0,0.0,1650821302978564.0
-1.0,-1.0,-7.0,-7.0,1.0,7.0,-1.0,-3.0,1650821302979499.0
1.0,-2.0,1.0,2.0,3.0,6.0,0.0,1.0,1650821302979499.0
-2.0,-2.0,-1.0,-2.0,-4.0,-8.0,-3.0,0.0,1650821302993459.0
-1.0,-1.0,2.0,-1.0,-6.0,-1.0,0.0,-1.0,1650821302993459.0
-1.0,0.0,1.0,0.0,5.0,0.0,0.0,1.0,1650821303000506.0
0.0,0.0,0.0,-1.0,2.0,2.0,-2.0,-2.0,1650821303000506.0
-2.0,-2.0,-1.0,-3.0,-9.0,-12.0,-5.0,-1.0,1650821303016676.0
-2.0,-1.0,0.0,-1.0,1.0,9.0,3.0,-2.0,1650821303016676.0
2.0,0.0,2.0,4.0,7.0,11.0,4.0,1.0,1650821303016676.0
0.0,0.0,0.0,0.0,-2.0,2.0,3.0,0.0,1650821303016676.0
0.0,-1.0,-2.0,0.0,0.0,-5.0,-2.0,0.0,1650821303038874.0
-1.0,-1.0,-2.0,-4.0,0.0,-7.0,-2.0,-2.0,1650821303038874.0
-2.0,0.0,-1.0,0.0,0.0,-3.0,0.0,-1.0,1650821303039875.0
-1.0,0.0,-1.0,0.0,-4.0,1.0,0.0,-1.0,1650821303039875.0
2.0,0.0,-1.0,-1.0,-2.0,-3.0,2.0,0.0,1650821303052907.0
-1.0,-1.0,2.0,2.0,-4.0,-4.0,-5.0,-2.0,1650821303052907.0
-2.0,-1.0,-1.0,-1.0,-4.0,2.0,1.0,2.0,1650821303060885.0
-1.0,0.0,-1.0,-4.0,-5.0,-6.0,-2.0,0.0,1650821303060885.0
-1.0,0.0,0.0,1.0,-2.0,0.0,-1.0,-2.0,1650821303076653.0
0.0,0.0,-2.0,3.0,15.0,-1.0,1.0,1.0,1650821303076653.0
1.0,1.0,1.0,0.0,8.0,14.0,2.0,-2.0,1650821303076653.0
0.0,-1.0,-1.0,-2.0,-4.0,1.0,3.0,1.0,1650821303076653.0
1.0,0.0,1.0,0.0,3.0,1.0,-2.0,1.0,1650821303098860.0
1.0,-2.0,-4.0,-6.0,-7.0,-9.0,-4.0,-1.0,1650821303098860.0
-1.0,-2.0,0.0,2.0,-3.0,-13.0,-5.0,-2.0,1650821303099818.0
-2.0,1.0,-1.0,-1.0,-8.0,-1.0,-1.0,-2.0,1650821303099818.0
-1.0,0.0,0.0,2.0,6.0,14.0,6.0,-1.0,1650821303120969.0
1.0,0.0,1.0,2.0,-1.0,2.0,1.0,1.0,1650821303120969.0
1.0,-3.0,-4.0,-5.0,-1.0,-3.0,-2.0,-1.0,1650821303121901.0
-2.0,-2.0,2.0,1.0,-3.0,-4.0,-1.0,-2.0,1650821303121901.0
0.0,0.0,-2.0,-4.0,-5.0,-4.0,-4.0,-1.0,1650821303135928.0
0.0,0.0,-1.0,-3.0,-15.0,-8.0,-3.0,-4.0,1650821303135928.0
-1.0,1.0,0.0,4.0,9.0,18.0,5.0,1.0,1650821303136860.0
3.0,1.0,1.0,4.0,17.0,9.0,0.0,1.0,1650821303136860.0
-2.0,1.0,2.0,0.0,0.0,-1.0,0.0,-2.0,1650821303158876.0
-1.0,-2.0,-1.0,-3.0,0.0,-1.0,0.0,0.0,1650821303158876.0
-1.0,-2.0,-4.0,-8.0,-17.0,-17.0,-6.0,-2.0,1650821303159877.0
1.0,-1.0,-1.0,2.0,-3.0,-3.0,-1.0,-1.0,1650821303159877.0
-1.0,1.0,1.0,1.0,5.0,11.0,1.0,1.0,1650821303182098.0
-1.0,0.0,-2.0,-1.0,-2.0,0.0,-1.0,0.0,1650821303182098.0
0.0,0.0,-1.0,-1.0,-8.0,-8.0,0.0,0.0,1650821303182098.0
-1.0,1.0,2.0,-1.0,8.0,3.0,0.0,0.0,1650821303182098.0
-1.0,-2.0,-3.0,-1.0,-1.0,1.0,0.0,0.0,1650821303196033.0
-1.0,1.0,2.0,2.0,-3.0,-9.0,0.0,-2.0,1650821303196033.0
-2.0,-2.0,-1.0,1.0,-1.0,7.0,0.0,1.0,1650821303197058.0
0.0,0.0,1.0,2.0,7.0,9.0,1.0,1.0,1650821303197058.0
0.0,-1.0,-2.0,0.0,-1.0,-3.0,-1.0,0.0,1650821303218903.0
-1.0,-1.0,0.0,-1.0,2.0,2.0,0.0,1.0,1650821303218903.0
0.0,1.0,-1.0,-1.0,-2.0,-7.0,-1.0,-1.0,1650821303218903.0
-2.0,-2.0,-3.0,-4.0,-11.0,-11.0,-4.0,-2.0,1650821303218903.0
-1.0,-1.0,1.0,3.0,-1.0,2.0,0.0,0.0,1650821303240920.0
2.0,-1.0,-2.0,-3.0,3.0,6.0,0.0,0.0,1650821303240920.0
0.0,0.0,-4.0,-5.0,-2.0,-4.0,-2.0,-1.0,1650821303241852.0
0.0,-1.0,-1.0,-1.0,-3.0,1.0,-1.0,0.0,1650821303241852.0
0.0,-1.0,-1.0,-3.0,0.0,0.0,0.0,0.0,1650821303264802.0
1.0,1.0,1.0,3.0,3.0,1.0,-1.0,0.0,1650821303264802.0
-2.0,-2.0,-1.0,1.0,4.0,6.0,0.0,-3.0,1650821303264802.0
1.0,-1.0,-2.0,1.0,3.0,-5.0,-2.0,0.0,1650821303264802.0
0.0,-1.0,0.0,-1.0,-4.0,0.0,0.0,-4.0,1650821303278371.0
0.0,-1.0,-1.0,-3.0,-3.0,2.0,0.0,2.0,1650821303278371.0
-2.0,0.0,2.0,1.0,2.0,-2.0,-2.0,0.0,1650821303285843.0
0.0,0.0,4.0,8.0,3.0,5.0,2.0,6.0,1650821303285843.0
1.0,0.0,-2.0,2.0,6.0,3.0,4.0,-3.0,1650821303300923.0
-2.0,-3.0,-1.0,-3.0,-3.0,-2.0,-4.0,-4.0,1650821303300923.0
0.0,-2.0,-4.0,-9.0,-7.0,-9.0,-4.0,-7.0,1650821303301855.0
0.0,1.0,3.0,5.0,-7.0,-6.0,-1.0,1.0,1650821303301855.0
-2.0,-2.0,-4.0,-2.0,1.0,2.0,-3.0,-1.0,1650821303323961.0
-3.0,-2.0,-7.0,-19.0,-2.0,2.0,0.0,1.0,1650821303323961.0
0.0,-3.0,4.0,6.0,1.0,-8.0,0.0,1.0,1650821303324908.0
2.0,2.0,2.0,-1.0,2.0,10.0,3.0,4.0,1650821303324908.0
-5.0,3.0,0.0,0.0,-5.0,2.0,-1.0,-4.0,1650821303337923.0
2.0,-3.0,3.0,7.0,3.0,1.0,-1.0,-16.0,1650821303337923.0
-4.0,-4.0,-7.0,-9.0,-7.0,-11.0,-5.0,2.0,1650821303346384.0
1.0,0.0,-1.0,-2.0,8.0,5.0,-3.0,-5.0,1650821303346384.0
-1.0,-4.0,4.0,7.0,5.0,5.0,3.0,6.0,1650821303361478.0
0.0,4.0,-3.0,1.0,3.0,-4.0,1.0,7.0,1650821303361478.0
5.0,12.0,7.0,3.0,-5.0,0.0,-1.0,-3.0,1650821303361478.0
7.0,22.0,8.0,0.0,-6.0,-4.0,2.0,3.0,1650821303361478.0
-8.0,-30.0,-14.0,-5.0,-3.0,-3.0,1.0,1.0,1650821303384626.0
-9.0,-12.0,-4.0,0.0,-2.0,0.0,-6.0,-9.0,1650821303384626.0
3.0,-5.0,-3.0,5.0,5.0,5.0,9.0,15.0,1650821303384626.0
2.0,0.0,0.0,-4.0,-8.0,-17.0,-4.0,-6.0,1650821303384626.0
3.0,14.0,-1.0,-7.0,-2.0,6.0,0.0,2.0,1650821303398397.0
-2.0,-2.0,4.0,2.0,7.0,10.0,1.0,-4.0,1650821303398397.0
0.0,2.0,0.0,2.0,4.0,4.0,3.0,4.0,1650821303406652.0
-9.0,-18.0,-13.0,-5.0,-5.0,-6.0,-6.0,-13.0,1650821303406652.0
7.0,10.0,11.0,10.0,0.0,-14.0,-5.0,-14.0,1650821303420836.0
13.0,0.0,-7.0,-17.0,-10.0,-4.0,8.0,31.0,1650821303420836.0
9.0,4.0,14.0,16.0,14.0,12.0,11.0,8.0,1650821303421767.0
-8.0,-5.0,-4.0,-8.0,1.0,9.0,1.0,2.0,1650821303421767.0
-1.0,-1.0,-2.0,-6.0,-7.0,-6.0,-6.0,8.0,1650821303444825.0
-15.0,28.0,-7.0,-9.0,3.0,2.0,-9.0,-34.0,1650821303444825.0
22.0,0.0,-3.0,-4.0,-2.0,1.0,-1.0,0.0,1650821303444825.0
-18.0,-48.0,-15.0,-4.0,-9.0,-8.0,-3.0,1.0,1650821303444825.0
3.0,3.0,1.0,5.0,1.0,-3.0,-1.0,15.0,1650821303458898.0
-7.0,-16.0,8.0,13.0,-2.0,-5.0,-7.0,-9.0,1650821303458898.0
-7.0,5.0,5.0,-5.0,-3.0,-6.0,1.0,-5.0,1650821303465910.0
3.0,18.0,6.0,5.0,5.0,-2.0,-4.0,0.0,1650821303465910.0
22.0,6.0,-9.0,8.0,0.0,2.0,-4.0,-32.0,1650821303481109.0
-24.0,-1.0,8.0,-13.0,-2.0,3.0,-10.0,1.0,1650821303481109.0
-11.0,6.0,-8.0,1.0,6.0,11.0,1.0,-19.0,1650821303482040.0
12.0,-17.0,-7.0,1.0,-1.0,-1.0,17.0,52.0,1650821303482040.0
-25.0,-2.0,4.0,-2.0,-5.0,-8.0,-5.0,-31.0,1650821303504836.0
7.0,8.0,5.0,20.0,4.0,-2.0,1.0,-5.0,1650821303504836.0
1.0,5.0,10.0,-26.0,-3.0,5.0,7.0,24.0,1650821303504836.0
-9.0,1.0,-23.0,-9.0,-3.0,-4.0,-13.0,-33.0,1650821303504836.0
-13.0,12.0,25.0,3.0,-5.0,-7.0,0.0,17.0,1650821303517803.0
31.0,25.0,18.0,6.0,-1.0,2.0,7.0,-12.0,1650821303517803.0
-37.0,-36.0,-36.0,-8.0,-8.0,-6.0,-13.0,-34.0,1650821303525894.0
-11.0,-19.0,-7.0,0.0,1.0,0.0,5.0,-2.0,1650821303525894.0
-3.0,-26.0,5.0,36.0,15.0,10.0,12.0,20.0,1650821303540930.0
-27.0,5.0,-11.0,-54.0,-14.0,-9.0,-10.0,-14.0,1650821303540930.0
4.0,15.0,9.0,4.0,-3.0,-5.0,-4.0,8.0,1650821303541863.0
-1.0,13.0,11.0,-17.0,-12.0,-5.0,-15.0,-13.0,1650821303541863.0
10.0,11.0,10.0,7.0,14.0,15.0,9.0,6.0,1650821303563980.0
19.0,5.0,24.0,39.0,13.0,7.0,20.0,39.0,1650821303563980.0
-9.0,-41.0,-22.0,-17.0,-3.0,-7.0,-13.0,-19.0,1650821303564921.0
1.0,32.0,-14.0,-11.0,-8.0,-4.0,4.0,-3.0,1650821303564921.0
15.0,37.0,35.0,3.0,-7.0,-10.0,-17.0,-13.0,1650821303577942.0
-5.0,-100.0,-24.0,-1.0,4.0,5.0,27.0,76.0,1650821303577942.0
-12.0,3.0,6.0,6.0,6.0,5.0,-13.0,-16.0,1650821303585726.0
29.0,28.0,43.0,24.0,6.0,10.0,10.0,-12.0,1650821303585726.0
28.0,62.0,12.0,-9.0,1.0,0.0,7.0,11.0,1650821303600919.0
-13.0,50.0,-44.0,-13.0,-7.0,-9.0,-22.0,-47.0,1650821303600919.0
-2.0,-71.0,-20.0,-2.0,-10.0,-6.0,4.0,26.0,1650821303601865.0
8.0,-17.0,-5.0,-17.0,-3.0,-6.0,-13.0,-6.0,1650821303601865.0
-21.0,-16.0,-49.0,-33.0,-14.0,-12.0,-8.0,-9.0,1650821303624848.0
9.0,11.0,33.0,14.0,1.0,-1.0,-9.0,-13.0,1650821303624848.0
4.0,23.0,2.0,20.0,19.0,21.0,13.0,19.0,1650821303624848.0
18.0,35.0,19.0,6.0,13.0,16.0,5.0,-21.0,1650821303624848.0
16.0,-15.0,-41.0,-13.0,-9.0,-1.0,22.0,42.0,1650821303647301.0
-5.0,-16.0,4.0,15.0,-5.0,-11.0,-10.0,-12.0,1650821303647301.0
1.0,26.0,22.0,24.0,21.0,9.0,-5.0,-15.0,1650821303647301.0
-3.0,-14.0,-12.0,-16.0,-2.0,9.0,9.0,4.0,1650821303647301.0
-14.0,-3.0,3.0,-16.0,-5.0,-7.0,-19.0,-34.0,1650821303661445.0
8.0,5.0,14.0,14.0,-2.0,-2.0,13.0,35.0,1650821303661445.0
18.0,22.0,-5.0,1.0,-10.0,-7.0,4.0,-9.0,1650821303662385.0
16.0,-6.0,42.0,20.0,12.0,8.0,19.0,52.0,1650821303662385.0
-38.0,-17.0,-21.0,-14.0,-1.0,-1.0,-4.0,-26.0,1650821303683979.0
0.0,-16.0,7.0,-1.0,-3.0,-2.0,-6.0,-11.0,1650821303683979.0
6.0,-21.0,-7.0,7.0,4.0,11.0,8.0,-12.0,1650821303684984.0
1.0,14.0,-49.0,2.0,6.0,-1.0,0.0,36.0,1650821303684984.0
1.0,-6.0,18.0,0.0,6.0,3.0,-9.0,-37.0,1650821303707263.0
-4.0,11.0,-7.0,-1.0,3.0,4.0,12.0,23.0,1650821303707263.0
-10.0,-6.0,-12.0,-19.0,-26.0,-26.0,-17.0,-19.0,1650821303707740.0
-2.0,3.0,-4.0,3.0,-5.0,-8.0,-19.0,-26.0,1650821303707740.0
9.0,-18.0,8.0,19.0,12.0,10.0,16.0,43.0,1650821303720893.0
-8.0,-3.0,-15.0,-8.0,12.0,13.0,5.0,4.0,1650821303720893.0
-15.0,-5.0,16.0,-5.0,-3.0,-9.0,-12.0,-54.0,1650821303721829.0
5.0,-1.0,-18.0,-5.0,1.0,9.0,16.0,37.0,1650821303721829.0
11.0,-5.0,-28.0,-17.0,-11.0,-6.0,-8.0,1.0,1650821303744257.0
-4.0,-15.0,7.0,6.0,-8.0,-11.0,-2.0,4.0,1650821303744257.0
4.0,22.0,-2.0,-9.0,-31.0,-32.0,-21.0,-12.0,1650821303745188.0
-25.0,-17.0,15.0,-7.0,7.0,1.0,-7.0,-18.0,1650821303745188.0
3.0,-2.0,-15.0,15.0,13.0,15.0,10.0,27.0,1650821303767270.0
8.0,13.0,6.0,-17.0,7.0,16.0,-2.0,-27.0,1650821303767270.0
-14.0,-24.0,-8.0,-1.0,-5.0,-3.0,-1.0,6.0,1650821303767802.0
11.0,7.0,8.0,2.0,-15.0,-21.0,-21.0,-25.0,1650821303767802.0
-1.0,-21.0,-41.0,-14.0,-5.0,-4.0,2.0,0.0,1650821303782167.0
-4.0,-2.0,-10.0,3.0,8.0,7.0,0.0,-12.0,1650821303782167.0
5.0,10.0,9.0,5.0,6.0,-1.0,19.0,62.0,1650821303783166.0
-4.0,0.0,-11.0,-11.0,-7.0,-3.0,-6.0,8.0,1650821303783166.0
3.0,2.0,-5.0,0.0,-1.0,4.0,9.0,14.0,1650821303804177.0
5.0,-5.0,-3.0,-1.0,-3.0,-9.0,-21.0,-42.0,1650821303804177.0
8.0,12.0,1.0,-9.0,6.0,14.0,18.0,26.0,1650821303805108.0
-9.0,3.0,10.0,22.0,14.0,10.0,30.0,81.0,1650821303805108.0
-37.0,3.0,44.0,10.0,0.0,-6.0,-2.0,-5.0,1650821303827250.0
61.0,6.0,-20.0,-10.0,-12.0,-8.0,5.0,12.0,1650821303827250.0
9.0,16.0,21.0,6.0,8.0,10.0,-8.0,-9.0,1650821303827250.0
-21.0,-26.0,-34.0,-5.0,-10.0,-7.0,-22.0,-68.0,1650821303827250.0
9.0,6.0,15.0,-3.0,0.0,-4.0,1.0,23.0,1650821303840923.0
-22.0,11.0,0.0,1.0,-2.0,-14.0,-16.0,-39.0,1650821303840923.0
-6.0,-28.0,-23.0,-21.0,-5.0,12.0,9.0,47.0,1650821303841854.0
-5.0,-16.0,-8.0,15.0,13.0,7.0,6.0,-16.0,1650821303841854.0
1.0,33.0,4.0,-17.0,-25.0,-19.0,-9.0,-25.0,1650821303863945.0
3.0,-17.0,-5.0,14.0,19.0,15.0,16.0,32.0,1650821303863945.0
19.0,31.0,2.0,9.0,9.0,1.0,4.0,1.0,1650821303864954.0
-5.0,19.0,35.0,3.0,-4.0,1.0,1.0,-2.0,1650821303864954.0
-4.0,-17.0,-5.0,3.0,-3.0,-8.0,-5.0,0.0,1650821303887303.0
-2.0,13.0,24.0,2.0,-8.0,1.0,-9.0,-7.0,1650821303887303.0
-6.0,-5.0,-1.0,14.0,10.0,10.0,-9.0,-13.0,1650821303887303.0
1.0,-10.0,-9.0,-12.0,-1.0,3.0,0.0,-2.0,1650821303887303.0
2.0,1.0,8.0,0.0,-1.0,-4.0,-8.0,-17.0,1650821303900938.0
-7.0,-9.0,6.0,4.0,-8.0,-19.0,-4.0,2.0,1650821303900938.0
-28.0,-15.0,-8.0,-13.0,-8.0,-1.0,-34.0,-66.0,1650821303901869.0
15.0,-1.0,13.0,16.0,9.0,13.0,26.0,19.0,1650821303901869.0
18.0,-20.0,-59.0,-17.0,2.0,-3.0,3.0,28.0,1650821303923999.0
-2.0,23.0,43.0,6.0,-6.0,-5.0,-4.0,6.0,1650821303923999.0
-8.0,-4.0,-25.0,-25.0,-23.0,-19.0,-35.0,-86.0,1650821303924932.0
-5.0,-7.0,-3.0,9.0,13.0,0.0,8.0,36.0,1650821303924932.0
-14.0,-25.0,3.0,8.0,5.0,11.0,-3.0,-12.0,1650821303947322.0
-1.0,-13.0,-20.0,-31.0,-16.0,-4.0,5.0,31.0,1650821303947322.0
24.0,17.0,9.0,-3.0,-7.0,-9.0,12.0,10.0,1650821303947322.0
-11.0,-11.0,-13.0,-7.0,0.0,2.0,-5.0,-32.0,1650821303947322.0
10.0,-12.0,10.0,13.0,11.0,5.0,-11.0,-24.0,1650821303960923.0
-13.0,4.0,-24.0,-2.0,-4.0,1.0,1.0,4.0,1650821303960923.0
17.0,4.0,29.0,8.0,1.0,-10.0,13.0,23.0,1650821303961855.0
-20.0,-8.0,-20.0,-34.0,-32.0,-30.0,-32.0,-25.0,1650821303961855.0
-22.0,-12.0,-21.0,2.0,-4.0,5.0,-3.0,25.0,1650821303983991.0
17.0,11.0,14.0,21.0,26.0,27.0,10.0,-80.0,1650821303983991.0
2.0,26.0,-6.0,-4.0,9.0,8.0,25.0,77.0,1650821303985004.0
-4.0,-11.0,-4.0,9.0,1.0,-5.0,-8.0,-21.0,1650821303985004.0
3.0,11.0,23.0,7.0,-4.0,-6.0,-4.0,-18.0,1650821304014514.0
4.0,10.0,29.0,9.0,2.0,2.0,9.0,26.0,1650821304014514.0
3.0,-3.0,-46.0,-4.0,-5.0,-1.0,4.0,12.0,1650821304015524.0
9.0,2.0,-5.0,-6.0,10.0,7.0,7.0,10.0,1650821304015524.0
-6.0,7.0,-2.0,-18.0,-12.0,-5.0,5.0,-12.0,1650821304021529.0
1.0,0.0,-5.0,7.0,10.0,10.0,6.0,15.0,1650821304021529.0
-4.0,3.0,24.0,2.0,2.0,-2.0,-4.0,-9.0,1650821304021529.0
9.0,9.0,-7.0,0.0,-7.0,0.0,20.0,33.0,1650821304021529.0
13.0,18.0,25.0,6.0,-4.0,-17.0,-14.0,-10.0,1650821304044843.0
7.0,-3.0,-13.0,-6.0,-7.0,7.0,30.0,104.0,1650821304044843.0
-10.0,19.0,22.0,12.0,26.0,27.0,7.0,-51.0,1650821304044843.0
-10.0,-29.0,-53.0,-8.0,1.0,1.0,-4.0,-6.0,1650821304044843.0
26.0,4.0,-20.0,4.0,4.0,4.0,13.0,-5.0,1650821304066791.0
-13.0,3.0,50.0,-4.0,-15.0,-21.0,-17.0,-14.0,1650821304066791.0
-14.0,-19.0,10.0,4.0,4.0,1.0,-2.0,12.0,1650821304067723.0
9.0,25.0,39.0,3.0,-11.0,-9.0,-15.0,-15.0,1650821304067723.0
-12.0,-16.0,-21.0,-12.0,1.0,3.0,-1.0,-1.0,1650821304080754.0
-13.0,-17.0,-50.0,-12.0,-5.0,-5.0,-15.0,-18.0,1650821304080754.0
12.0,2.0,10.0,5.0,-1.0,-1.0,1.0,7.0,1650821304081721.0
-9.0,-16.0,-7.0,-1.0,0.0,-10.0,-12.0,-25.0,1650821304081721.0
-14.0,1.0,19.0,5.0,-11.0,-7.0,-14.0,0.0,1650821304104665.0
-4.0,-19.0,-3.0,0.0,4.0,13.0,1.0,-4.0,1650821304104665.0
-4.0,-11.0,-9.0,9.0,6.0,-1.0,-5.0,-4.0,1650821304104665.0
-4.0,4.0,-13.0,-8.0,-5.0,-10.0,2.0,37.0,1650821304104665.0
1.0,0.0,29.0,-7.0,-7.0,-9.0,-9.0,-51.0,1650821304127277.0
1.0,17.0,-6.0,4.0,0.0,-4.0,-3.0,-5.0,1650821304127277.0
-4.0,-9.0,9.0,3.0,-10.0,-4.0,0.0,17.0,1650821304127277.0
-2.0,7.0,19.0,12.0,6.0,4.0,3.0,-15.0,1650821304127277.0
-22.0,-17.0,-18.0,5.0,16.0,19.0,10.0,46.0,1650821304140926.0
33.0,-7.0,-31.0,-6.0,5.0,7.0,4.0,15.0,1650821304140926.0
6.0,24.0,-2.0,-7.0,-3.0,-4.0,-1.0,-24.0,1650821304141861.0
-5.0,-2.0,-7.0,-8.0,-18.0,-14.0,-11.0,14.0,1650821304141861.0
2.0,14.0,28.0,19.0,8.0,3.0,12.0,4.0,1650821304164747.0
-8.0,-3.0,14.0,1.0,3.0,6.0,12.0,46.0,1650821304164747.0
8.0,-1.0,20.0,1.0,-8.0,-15.0,4.0,19.0,1650821304164747.0
-1.0,7.0,-5.0,-1.0,-3.0,8.0,-9.0,-32.0,1650821304164747.0
8.0,-6.0,-21.0,-18.0,-11.0,-3.0,-1.0,11.0,1650821304187245.0
-16.0,9.0,8.0,18.0,13.0,1.0,-14.0,-37.0,1650821304187245.0
5.0,-20.0,-22.0,-10.0,-7.0,-5.0,-4.0,-6.0,1650821304187739.0
5.0,12.0,33.0,15.0,16.0,11.0,10.0,8.0,1650821304187739.0
6.0,-25.0,5.0,-9.0,-3.0,1.0,4.0,18.0,1650821304200773.0
-15.0,-4.0,-14.0,-11.0,-13.0,-14.0,-8.0,-29.0,1650821304200773.0
-3.0,1.0,-11.0,7.0,10.0,8.0,1.0,8.0,1650821304208861.0
-6.0,-6.0,1.0,-11.0,-12.0,-11.0,-21.0,-28.0,1650821304208861.0
9.0,10.0,17.0,11.0,2.0,6.0,-1.0,1.0,1650821304224584.0
-12.0,-6.0,-5.0,-6.0,-7.0,-5.0,2.0,-3.0,1650821304224584.0
3.0,4.0,31.0,15.0,-1.0,-2.0,14.0,24.0,1650821304224825.0
-11.0,-20.0,-24.0,3.0,6.0,3.0,-4.0,-14.0,1650821304224825.0
-3.0,-4.0,-10.0,-17.0,3.0,1.0,2.0,1.0,1650821304247050.0
15.0,3.0,-6.0,-8.0,-5.0,2.0,-5.0,19.0,1650821304247050.0
1.0,2.0,-25.0,-7.0,2.0,2.0,-3.0,-13.0,1650821304248010.0
-13.0,-34.0,22.0,5.0,-3.0,-1.0,17.0,14.0,1650821304248010.0
27.0,45.0,7.0,21.0,0.0,-5.0,-1.0,-11.0,1650821304260975.0
-7.0,-22.0,-15.0,-13.0,-10.0,-12.0,-6.0,6.0,1650821304260975.0
6.0,-11.0,-13.0,-5.0,3.0,11.0,9.0,12.0,1650821304269924.0
3.0,35.0,17.0,7.0,5.0,0.0,-4.0,-10.0,1650821304269924.0
-11.0,-4.0,-2.0,2.0,7.0,8.0,10.0,20.0,1650821304292084.0
-2.0,11.0,22.0,8.0,5.0,0.0,-7.0,-30.0,1650821304292084.0
-7.0,-6.0,-10.0,-7.0,-5.0,-2.0,-7.0,-5.0,1650821304293015.0
-1.0,14.0,8.0,-8.0,-12.0,-14.0,-8.0,-7.0,1650821304293015.0
30.0,48.0,20.0,4.0,2.0,3.0,4.0,19.0,1650821304307271.0
-23.0,-31.0,28.0,15.0,-1.0,-8.0,-4.0,-19.0,1650821304307271.0
-16.0,-43.0,-25.0,-12.0,1.0,14.0,5.0,15.0,1650821304308282.0
-18.0,-36.0,-19.0,-4.0,10.0,14.0,2.0,-25.0,1650821304308282.0
2.0,9.0,-5.0,3.0,1.0,-5.0,5.0,19.0,1650821304320872.0
2.0,-11.0,8.0,1.0,-5.0,-6.0,-8.0,-19.0,1650821304320872.0
22.0,62.0,37.0,10.0,-2.0,-3.0,4.0,10.0,1650821304329862.0
13.0,-16.0,-12.0,-28.0,-9.0,-2.0,1.0,19.0,1650821304329862.0
-18.0,2.0,2.0,2.0,-4.0,-5.0,-6.0,-32.0,1650821304343971.0
-7.0,-5.0,-26.0,-9.0,-7.0,-6.0,-2.0,-3.0,1650821304343971.0
-15.0,-19.0,3.0,8.0,2.0,-1.0,-13.0,-24.0,1650821304345995.0
32.0,42.0,34.0,9.0,17.0,18.0,20.0,23.0,1650821304345995.0
-17.0,17.0,-26.0,-17.0,-4.0,-5.0,-10.0,-18.0,1650821304366980.0
19.0,38.0,24.0,4.0,1.0,-3.0,-3.0,-1.0,1650821304366980.0
-6.0,-50.0,-4.0,5.0,-2.0,-1.0,-3.0,5.0,1650821304367909.0
-15.0,20.0,-17.0,-1.0,-4.0,-3.0,-5.0,-4.0,1650821304367909.0
-12.0,-39.0,1.0,3.0,2.0,-3.0,-13.0,-9.0,1650821304380925.0
11.0,33.0,3.0,-4.0,-5.0,-3.0,9.0,-10.0,1650821304380925.0
11.0,27.0,-25.0,4.0,4.0,5.0,-7.0,-8.0,1650821304389835.0
19.0,16.0,16.0,4.0,7.0,19.0,14.0,45.0,1650821304389835.0
-34.0,-40.0,29.0,12.0,4.0,2.0,-5.0,-36.0,1650821304402916.0
-9.0,11.0,26.0,-6.0,-8.0,-6.0,-3.0,13.0,1650821304402916.0
5.0,-7.0,-38.0,-3.0,-1.0,-13.0,-4.0,-13.0,1650821304411831.0
1.0,24.0,15.0,9.0,2.0,-5.0,-7.0,-15.0,1650821304411831.0
-6.0,-44.0,-16.0,-6.0,-11.0,-2.0,1.0,25.0,1650821304427244.0
1.0,-7.0,-13.0,-1.0,0.0,4.0,0.0,-24.0,1650821304427244.0
-9.0,31.0,8.0,-26.0,-12.0,-5.0,6.0,-8.0,1650821304428767.0
-5.0,-50.0,-17.0,0.0,-3.0,-3.0,-5.0,-12.0,1650821304428767.0
12.0,6.0,-6.0,-10.0,-2.0,-3.0,2.0,20.0,1650821304440884.0
4.0,-21.0,0.0,12.0,16.0,9.0,6.0,1.0,1650821304440884.0
-31.0,-23.0,15.0,3.0,-4.0,-14.0,-12.0,1.0,1650821304449853.0
-4.0,2.0,-30.0,-6.0,-3.0,5.0,-1.0,-3.0,1650821304449853.0
1.0,-19.0,-9.0,-1.0,2.0,3.0,-2.0,-14.0,1650821304464784.0
0.0,17.0,-12.0,-4.0,-5.0,-1.0,2.0,17.0,1650821304464784.0
13.0,28.0,-4.0,4.0,2.0,3.0,14.0,22.0,1650821304465784.0
9.0,52.0,25.0,6.0,2.0,-7.0,2.0,14.0,1650821304465784.0
-15.0,-82.0,18.0,4.0,9.0,7.0,4.0,-9.0,1650821304487270.0
-7.0,-1.0,-13.0,7.0,0.0,2.0,-5.0,-8.0,1650821304487270.0
-1.0,-16.0,-5.0,-7.0,-2.0,-1.0,-4.0,11.0,1650821304488836.0
-3.0,-5.0,-21.0,-13.0,-10.0,-10.0,-9.0,-20.0,1650821304488836.0
21.0,39.0,6.0,7.0,4.0,5.0,14.0,27.0,1650821304500843.0
-5.0,-5.0,-20.0,-12.0,-5.0,-5.0,0.0,14.0,1650821304500843.0
-1.0,11.0,5.0,0.0,-7.0,-12.0,-7.0,-29.0,1650821304509753.0
1.0,11.0,50.0,18.0,2.0,11.0,2.0,5.0,1650821304509753.0
-2.0,1.0,-25.0,-11.0,9.0,13.0,13.0,5.0,1650821304524825.0
-3.0,-4.0,9.0,5.0,12.0,8.0,8.0,17.0,1650821304524825.0
11.0,-25.0,-21.0,-4.0,-5.0,-9.0,-7.0,18.0,1650821304525822.0
9.0,13.0,26.0,8.0,3.0,0.0,8.0,9.0,1650821304525822.0
-9.0,8.0,1.0,-4.0,-14.0,-12.0,-11.0,-26.0,1650821304546974.0
-12.0,9.0,-11.0,-4.0,-2.0,-3.0,-5.0,-4.0,1650821304546974.0
5.0,-6.0,-4.0,0.0,0.0,6.0,5.0,2.0,1650821304547940.0
-2.0,-2.0,6.0,3.0,2.0,-2.0,2.0,10.0,1650821304547940.0
0.0,16.0,1.0,-4.0,-3.0,-3.0,-8.0,-15.0,1650821304568873.0
12.0,40.0,44.0,2.0,-2.0,-6.0,-3.0,8.0,1650821304568873.0
-10.0,-20.0,10.0,-2.0,0.0,8.0,1.0,-2.0,1650821304570870.0
6.0,-13.0,0.0,-1.0,10.0,12.0,6.0,27.0,1650821304570870.0
-12.0,15.0,-1.0,8.0,3.0,1.0,1.0,-36.0,1650821304584849.0
8.0,12.0,13.0,12.0,6.0,2.0,5.0,-1.0,1650821304584849.0
-4.0,10.0,-2.0,-11.0,-8.0,-8.0,-6.0,-8.0,1650821304585830.0
-9.0,-27.0,-56.0,-14.0,-10.0,-13.0,-16.0,-20.0,1650821304585830.0
19.0,17.0,-1.0,-6.0,-3.0,-2.0,4.0,22.0,1650821304607332.0
-4.0,-41.0,-35.0,-2.0,-1.0,-9.0,-2.0,-8.0,1650821304607332.0
-11.0,18.0,34.0,13.0,4.0,12.0,2.0,5.0,1650821304608336.0
3.0,-13.0,-33.0,-11.0,1.0,-1.0,-11.0,-28.0,1650821304608336.0
23.0,43.0,30.0,11.0,4.0,1.0,0.0,7.0,1650821304629496.0
-5.0,-12.0,-6.0,-9.0,-11.0,-9.0,8.0,9.0,1650821304629496.0
21.0,16.0,-21.0,1.0,5.0,-4.0,0.0,32.0,1650821304630454.0
-14.0,-59.0,9.0,6.0,6.0,8.0,1.0,-19.0,1650821304630454.0
3.0,14.0,-3.0,-4.0,4.0,6.0,0.0,1.0,1650821304644457.0
6.0,-25.0,9.0,13.0,8.0,13.0,-3.0,-17.0,1650821304644457.0
-4.0,-27.0,9.0,2.0,-4.0,-16.0,5.0,33.0,1650821304645399.0
9.0,28.0,8.0,1.0,-18.0,-11.0,2.0,-3.0,1650821304645399.0
3.0,-25.0,-13.0,4.0,14.0,14.0,-3.0,11.0,1650821304667270.0
-16.0,-2.0,10.0,-8.0,1.0,-4.0,-6.0,-15.0,1650821304667270.0
13.0,32.0,3.0,2.0,1.0,-3.0,6.0,1.0,1650821304668783.0
16.0,12.0,14.0,15.0,2.0,7.0,4.0,-3.0,1650821304668783.0
-14.0,-16.0,-9.0,1.0,4.0,2.0,4.0,7.0,1650821304689774.0
-5.0,-9.0,-34.0,-25.0,-3.0,5.0,-6.0,-6.0,1650821304689774.0
-8.0,-1.0,17.0,8.0,1.0,-3.0,-4.0,-17.0,1650821304690697.0
6.0,92.0,7.0,-8.0,-17.0,-19.0,4.0,10.0,1650821304690697.0
2.0,-69.0,6.0,-4.0,-12.0,-13.0,-8.0,-9.0,1650821304703728.0
2.0,-26.0,-31.0,-2.0,3.0,9.0,6.0,37.0,1650821304703728.0
-55.0,-67.0,-11.0,-7.0,-6.0,-16.0,-19.0,-77.0,1650821304710709.0
21.0,-26.0,-14.0,-6.0,0.0,8.0,6.0,9.0,1650821304710709.0
43.0,92.0,1.0,0.0,-3.0,3.0,10.0,47.0,1650821304727270.0
-15.0,-27.0,7.0,1.0,2.0,-5.0,-11.0,-22.0,1650821304727270.0
16.0,58.0,37.0,0.0,-6.0,1.0,4.0,14.0,1650821304728067.0
-37.0,-76.0,-22.0,-2.0,3.0,-11.0,-17.0,-33.0,1650821304728067.0
18.0,24.0,-5.0,-7.0,-5.0,-4.0,-3.0,-6.0,1650821304749842.0
4.0,9.0,-5.0,6.0,5.0,14.0,10.0,19.0,1650821304749842.0
11.0,44.0,40.0,10.0,10.0,17.0,7.0,2.0,1650821304750842.0
-6.0,-11.0,-27.0,-2.0,10.0,1.0,-3.0,-4.0,1650821304750842.0
-16.0,-30.0,-15.0,-11.0,-19.0,-19.0,-6.0,-4.0,1650821304763802.0
5.0,20.0,-2.0,4.0,3.0,-4.0,-4.0,-9.0,1650821304763802.0
-6.0,-14.0,11.0,-2.0,1.0,11.0,2.0,-1.0,1650821304770852.0
3.0,8.0,-4.0,-1.0,-3.0,6.0,4.0,10.0,1650821304770852.0
-12.0,-8.0,7.0,7.0,2.0,-2.0,0.0,20.0,1650821304787319.0
-6.0,41.0,18.0,4.0,2.0,-2.0,-3.0,-62.0,1650821304787319.0
22.0,5.0,0.0,-4.0,-3.0,4.0,12.0,35.0,1650821304788316.0
-10.0,-27.0,-25.0,-6.0,-3.0,-8.0,-6.0,-1.0,1650821304788316.0
-9.0,8.0,5.0,-1.0,-3.0,-1.0,1.0,-3.0,1650821304809868.0
-2.0,12.0,1.0,6.0,8.0,7.0,-2.0,5.0,1650821304809868.0
33.0,1.0,-5.0,-1.0,7.0,5.0,6.0,19.0,1650821304810866.0
-18.0,5.0,16.0,-5.0,-7.0,-4.0,-14.0,-28.0,1650821304810866.0
-20.0,21.0,-8.0,2.0,2.0,0.0,14.0,-12.0,1650821304823893.0
6.0,-46.0,-20.0,-4.0,-8.0,-8.0,-2.0,12.0,1650821304823893.0
-5.0,-4.0,-39.0,-11.0,0.0,4.0,-6.0,-13.0,1650821304830812.0
-3.0,-3.0,35.0,3.0,4.0,-1.0,-2.0,6.0,1650821304830812.0
13.0,4.0,-11.0,4.0,0.0,-1.0,-1.0,8.0,1650821304847720.0
2.0,-17.0,-7.0,-6.0,-10.0,6.0,4.0,4.0,1650821304847720.0
-12.0,-20.0,11.0,15.0,14.0,5.0,-3.0,-40.0,1650821304848720.0
15.0,39.0,0.0,0.0,4.0,0.0,11.0,12.0,1650821304848720.0
-16.0,-18.0,-2.0,-2.0,-2.0,-4.0,-8.0,3.0,1650821304869136.0
6.0,9.0,-6.0,-9.0,-11.0,-10.0,-6.0,-8.0,1650821304869136.0
-4.0,-7.0,3.0,2.0,-11.0,-6.0,-3.0,1.0,1650821304871093.0
9.0,21.0,-12.0,-1.0,13.0,9.0,10.0,21.0,1650821304871093.0
-1.0,-20.0,-1.0,-1.0,6.0,10.0,-3.0,-17.0,1650821304884144.0
19.0,40.0,12.0,4.0,0.0,-3.0,1.0,16.0,1650821304884144.0
-35.0,-33.0,-8.0,-8.0,-6.0,-9.0,-9.0,-7.0,1650821304890857.0
-8.0,-44.0,6.0,1.0,-8.0,-15.0,-4.0,-10.0,1650821304890857.0
-9.0,-16.0,-23.0,-7.0,-4.0,10.0,2.0,4.0,1650821304906906.0
-7.0,-26.0,-8.0,1.0,8.0,8.0,2.0,-2.0,1650821304906906.0
22.0,34.0,-14.0,-13.0,-4.0,-7.0,-1.0,8.0,1650821304908835.0
7.0,16.0,30.0,6.0,-5.0,-7.0,6.0,8.0,1650821304908835.0
-4.0,-18.0,11.0,4.0,-2.0,-2.0,-10.0,-23.0,1650821304929818.0
7.0,20.0,2.0,0.0,-5.0,-1.0,10.0,25.0,1650821304929818.0
-1.0,2.0,-14.0,3.0,11.0,8.0,-2.0,-27.0,1650821304930790.0
-7.0,-12.0,-12.0,-1.0,1.0,5.0,13.0,16.0,1650821304930790.0
4.0,-4.0,3.0,-2.0,-1.0,-11.0,-6.0,-10.0,1650821304944144.0
-20.0,-19.0,-12.0,-8.0,-11.0,-9.0,-5.0,7.0,1650821304944144.0
11.0,4.0,-2.0,2.0,-1.0,2.0,-1.0,6.0,1650821304950859.0
3.0,-4.0,1.0,4.0,1.0,-9.0,-5.0,-5.0,1650821304950859.0
1.0,21.0,16.0,4.0,2.0,7.0,4.0,-2.0,1650821304966937.0
-4.0,-18.0,-4.0,1.0,14.0,14.0,4.0,5.0,1650821304966937.0
-5.0,-11.0,-1.0,2.0,-1.0,-3.0,1.0,10.0,1650821304968867.0
-11.0,-12.0,-22.0,-15.0,-19.0,-15.0,-11.0,-11.0,1650821304968867.0
3.0,14.0,-8.0,0.0,0.0,-6.0,-3.0,0.0,1650821304989082.0
0.0,-18.0,-5.0,-7.0,0.0,-1.0,-5.0,-7.0,1650821304989082.0
5.0,-2.0,4.0,1.0,4.0,12.0,2.0,0.0,1650821304991039.0
-2.0,36.0,14.0,8.0,7.0,6.0,-1.0,0.0,1650821304991039.0
-1.0,-4.0,9.0,-6.0,-7.0,-5.0,2.0,24.0,1650821305004042.0
-7.0,11.0,0.0,-5.0,-10.0,-13.0,-7.0,-56.0,1650821305004042.0
-7.0,-9.0,-13.0,-1.0,-7.0,-8.0,-1.0,4.0,1650821305011019.0
2.0,1.0,7.0,7.0,11.0,13.0,3.0,5.0,1650821305011019.0
-4.0,-2.0,6.0,2.0,14.0,4.0,-3.0,-9.0,1650821305027330.0
17.0,13.0,11.0,10.0,2.0,1.0,4.0,18.0,1650821305027330.0
-14.0,-24.0,-13.0,-10.0,-12.0,-11.0,2.0,6.0,1650821305028306.0
-4.0,-8.0,-6.0,-1.0,-5.0,5.0,-4.0,-9.0,1650821305028306.0
-1.0,5.0,-2.0,-2.0,-5.0,0.0,2.0,5.0,1650821305048875.0
3.0,5.0,-1.0,2.0,2.0,-6.0,-4.0,1.0,1650821305048875.0
-3.0,12.0,8.0,2.0,-1.0,-6.0,-1.0,0.0,1650821305050872.0
15.0,-1.0,1.0,0.0,0.0,1.0,2.0,7.0,1650821305050872.0
-3.0,-7.0,0.0,2.0,7.0,5.0,-2.0,-3.0,1650821305062906.0
1.0,3.0,2.0,-3.0,-1.0,-2.0,-1.0,7.0,1650821305062906.0
1.0,1.0,-2.0,0.0,1.0,4.0,-2.0,0.0,1650821305072480.0
-8.0,-4.0,0.0,-4.0,2.0,9.0,1.0,-2.0,1650821305072480.0
2.0,0.0,-2.0,1.0,-2.0,-3.0,1.0,-8.0,1650821305087305.0
-4.0,-1.0,-5.0,-6.0,-14.0,-11.0,-4.0,-3.0,1650821305087305.0
-2.0,-1.0,1.0,0.0,4.0,-10.0,-4.0,-2.0,1650821305088326.0
-2.0,-1.0,-2.0,-1.0,5.0,15.0,-1.0,-3.0,1650821305088326.0
3.0,1.0,5.0,2.0,-3.0,0.0,2.0,4.0,1650821305109359.0
-2.0,-2.0,-5.0,-4.0,-1.0,1.0,1.0,18.0,1650821305109359.0
-2.0,3.0,3.0,1.0,-5.0,-5.0,-2.0,-32.0,1650821305111347.0
0.0,1.0,6.0,11.0,4.0,-4.0,-2.0,2.0,1650821305111347.0
1.0,-3.0,0.0,0.0,2.0,-1.0,-4.0,-2.0,1650821305123361.0
-10.0,-4.0,-5.0,-8.0,-3.0,1.0,0.0,-1.0,1650821305123361.0
12.0,2.0,-4.0,2.0,2.0,2.0,2.0,11.0,1650821305132272.0
-1.0,0.0,0.0,-10.0,1.0,-3.0,1.0,-3.0,1650821305132272.0
-1.0,-3.0,-6.0,-3.0,-5.0,2.0,-3.0,-10.0,1650821305147356.0
-6.0,-3.0,-7.0,-9.0,-1.0,1.0,-1.0,-1.0,1650821305147356.0
2.0,0.0,2.0,6.0,-1.0,4.0,2.0,7.0,1650821305148361.0
2.0,4.0,5.0,10.0,6.0,-8.0,0.0,-2.0,1650821305148361.0
1.0,0.0,5.0,-6.0,-1.0,5.0,-1.0,3.0,1650821305170325.0
2.0,0.0,8.0,8.0,1.0,3.0,0.0,9.0,1650821305170325.0
-8.0,0.0,-15.0,-29.0,-12.0,-1.0,-3.0,-10.0,1650821305172292.0
-1.0,-1.0,-8.0,0.0,-6.0,-8.0,-4.0,-1.0,1650821305172292.0
-4.0,-5.0,4.0,7.0,-1.0,-7.0,-2.0,-4.0,1650821305183456.0
5.0,2.0,7.0,5.0,5.0,5.0,2.0,2.0,1650821305183456.0
-2.0,3.0,10.0,9.0,7.0,5.0,2.0,5.0,1650821305192438.0
-3.0,-2.0,-3.0,-5.0,-5.0,1.0,2.0,3.0,1650821305192438.0
3.0,1.0,-1.0,-3.0,-9.0,-7.0,-3.0,-5.0,1650821305207197.0
-3.0,-4.0,-5.0,3.0,1.0,-3.0,0.0,-5.0,1650821305207197.0
3.0,2.0,-5.0,3.0,14.0,7.0,2.0,9.0,1650821305208164.0
-1.0,0.0,0.0,-6.0,3.0,4.0,-3.0,-5.0,1650821305208164.0
-12.0,0.0,5.0,9.0,-1.0,-2.0,1.0,-1.0,1650821305229287.0
11.0,0.0,-7.0,-6.0,-7.0,-2.0,-2.0,-3.0,1650821305229287.0
-2.0,0.0,-5.0,-7.0,-3.0,0.0,-1.0,1.0,1650821305231216.0
5.0,2.0,7.0,0.0,0.0,-2.0,-1.0,0.0,1650821305231216.0
-1.0,-3.0,-2.0,19.0,-2.0,-12.0,-3.0,-3.0,1650821305243395.0
-4.0,-4.0,-19.0,-47.0,-8.0,2.0,3.0,-4.0,1650821305243395.0
-3.0,-3.0,13.0,15.0,-1.0,5.0,-3.0,1.0,1650821305251748.0
-1.0,-2.0,-3.0,-1.0,-3.0,-5.0,-2.0,-1.0,1650821305251748.0
0.0,-1.0,-2.0,-8.0,0.0,-4.0,-1.0,-1.0,1650821305266742.0
-4.0,0.0,-6.0,6.0,-4.0,-14.0,-5.0,-4.0,1650821305266742.0
4.0,1.0,-8.0,-4.0,-1.0,6.0,1.0,3.0,1650821305268672.0
-3.0,3.0,7.0,1.0,2.0,4.0,2.0,1.0,1650821305268672.0
2.0,0.0,3.0,1.0,6.0,4.0,1.0,1.0,1650821305289858.0
0.0,1.0,2.0,12.0,7.0,3.0,0.0,0.0,1650821305289858.0
0.0,3.0,5.0,-2.0,-2.0,1.0,2.0,1.0,1650821305290856.0
-2.0,-2.0,-3.0,1.0,-14.0,-18.0,-4.0,-2.0,1650821305290856.0
-1.0,-2.0,-5.0,-9.0,-7.0,1.0,-1.0,-1.0,1650821305302888.0
3.0,0.0,6.0,8.0,12.0,14.0,1.0,-2.0,1650821305302888.0
-6.0,-1.0,1.0,6.0,6.0,8.0,6.0,3.0,1650821305311799.0
0.0,2.0,-6.0,-7.0,6.0,0.0,1.0,1.0,1650821305311799.0
0.0,-3.0,0.0,-3.0,-7.0,-6.0,-1.0,-4.0,1650821305326994.0
-2.0,1.0,6.0,18.0,-7.0,-9.0,-2.0,0.0,1650821305326994.0
1.0,-3.0,10.0,7.0,4.0,-4.0,-2.0,0.0,1650821305327954.0
0.0,-6.0,-28.0,-29.0,-8.0,5.0,-2.0,-3.0,1650821305327954.0
-3.0,-4.0,-10.0,-12.0,4.0,1.0,-1.0,0.0,1650821305349066.0
-1.0,3.0,3.0,-1.0,4.0,4.0,1.0,1.0,1650821305349066.0
3.0,1.0,1.0,8.0,-2.0,-5.0,-1.0,1.0,1650821305350995.0
-4.0,0.0,9.0,2.0,-4.0,-4.0,-2.0,-1.0,1650821305350995.0
0.0,-1.0,-3.0,1.0,5.0,7.0,2.0,0.0,1650821305363028.0
0.0,-1.0,-4.0,1.0,0.0,-4.0,-1.0,-1.0,1650821305363028.0
-3.0,-3.0,-3.0,-3.0,-5.0,-2.0,-1.0,-1.0,1650821305371939.0
0.0,3.0,9.0,6.0,4.0,11.0,2.0,-1.0,1650821305371939.0
-1.0,-4.0,-12.0,-13.0,2.0,3.0,0.0,2.0,1650821305387245.0
-1.0,2.0,11.0,4.0,-4.0,-8.0,-2.0,-2.0,1650821305387245.0
-1.0,1.0,-1.0,-6.0,-4.0,-11.0,-3.0,0.0,1650821305388757.0
0.0,-8.0,-10.0,-1.0,-6.0,0.0,-4.0,-3.0,1650821305388757.0
0.0,1.0,4.0,10.0,6.0,4.0,4.0,1.0,1650821305409869.0
-2.0,0.0,-3.0,-7.0,8.0,8.0,1.0,1.0,1650821305409869.0
1.0,1.0,0.0,3.0,-4.0,-5.0,-1.0,1.0,1650821305410856.0
-2.0,0.0,5.0,2.0,-6.0,-6.0,-2.0,-1.0,1650821305410856.0
0.0,1.0,-3.0,-4.0,6.0,5.0,-3.0,-1.0,1650821305423430.0
-1.0,-7.0,2.0,11.0,0.0,-2.0,1.0,-2.0,1650821305423430.0
-1.0,-1.0,-2.0,-8.0,-7.0,-12.0,-4.0,0.0,1650821305432412.0
-1.0,-4.0,-15.0,-10.0,0.0,8.0,2.0,0.0,1650821305432412.0
0.0,0.0,2.0,2.0,1.0,8.0,1.0,0.0,1650821305447245.0
-4.0,3.0,8.0,10.0,-1.0,-2.0,-1.0,0.0,1650821305447245.0
2.0,-3.0,-17.0,-18.0,0.0,-2.0,-2.0,0.0,1650821305448507.0
3.0,2.0,10.0,13.0,2.0,-5.0,0.0,1.0,1650821305448507.0
-3.0,1.0,4.0,-1.0,-9.0,-7.0,-1.0,-1.0,1650821305468935.0
0.0,0.0,-8.0,-6.0,-4.0,0.0,-3.0,-1.0,1650821305468935.0
-4.0,-1.0,6.0,1.0,5.0,0.0,0.0,-2.0,1650821305470862.0
-3.0,-6.0,-2.0,4.0,2.0,5.0,2.0,1.0,1650821305470862.0
4.0,5.0,5.0,5.0,6.0,5.0,2.0,0.0,1650821305492228.0
-2.0,0.0,-1.0,-3.0,-2.0,-3.0,0.0,0.0,1650821305492228.0
4.0,0.0,-5.0,-3.0,-8.0,-4.0,-2.0,0.0,1650821305493225.0
-8.0,3.0,3.0,-1.0,-1.0,-10.0,-3.0,0.0,1650821305493225.0
-1.0,-2.0,-2.0,4.0,8.0,6.0,2.0,0.0,1650821305507303.0
1.0,-4.0,3.0,3.0,1.0,2.0,1.0,-1.0,1650821305507303.0
0.0,2.0,-1.0,-1.0,1.0,7.0,3.0,0.0,1650821305508302.0
4.0,0.0,3.0,8.0,-1.0,-3.0,-1.0,1.0,1650821305508302.0
-1.0,-6.0,-9.0,-20.0,-12.0,-13.0,-5.0,-3.0,1650821305529173.0
-3.0,-1.0,4.0,6.0,-3.0,-4.0,-4.0,-3.0,1650821305529173.0
0.0,-2.0,0.0,3.0,4.0,5.0,0.0,0.0,1650821305531128.0
0.0,2.0,8.0,5.0,6.0,10.0,3.0,0.0,1650821305531128.0
-1.0,-2.0,-1.0,2.0,-2.0,-3.0,1.0,0.0,1650821305552275.0
2.0,0.0,-14.0,-21.0,-3.0,-1.0,1.0,1.0,1650821305552275.0
1.0,-2.0,3.0,6.0,-1.0,1.0,-2.0,-2.0,1650821305553209.0
-2.0,0.0,-6.0,-2.0,4.0,5.0,0.0,-1.0,1650821305553209.0
-5.0,0.0,-1.0,-7.0,-1.0,-4.0,-2.0,0.0,1650821305566904.0
11.0,1.0,5.0,5.0,1.0,-13.0,-4.0,0.0,1650821305566904.0
-3.0,-1.0,-1.0,-2.0,-7.0,-2.0,1.0,2.0,1650821305568744.0
3.0,5.0,0.0,0.0,3.0,8.0,1.0,-1.0,1650821305568744.0
-1.0,-4.0,0.0,5.0,-2.0,-2.0,-1.0,1.0,1650821305589866.0
-3.0,0.0,-1.0,2.0,4.0,3.0,3.0,0.0,1650821305589866.0
2.0,-2.0,-3.0,-1.0,4.0,3.0,-2.0,0.0,1650821305590873.0
4.0,1.0,3.0,-4.0,-7.0,-9.0,-3.0,0.0,1650821305590873.0
-2.0,4.0,-1.0,-5.0,-6.0,-2.0,-1.0,-2.0,1650821305611921.0
-4.0,-5.0,-3.0,2.0,-5.0,-4.0,-1.0,2.0,1650821305611921.0
3.0,-1.0,5.0,5.0,0.0,0.0,-2.0,-3.0,1650821305612852.0
-1.0,-5.0,-6.0,-11.0,2.0,2.0,-2.0,-1.0,1650821305612852.0
3.0,2.0,5.0,7.0,-2.0,-3.0,-3.0,-2.0,1650821305625873.0
-2.0,2.0,-2.0,-4.0,1.0,0.0,-2.0,-1.0,1650821305625873.0
-2.0,-3.0,-8.0,-3.0,1.0,11.0,5.0,2.0,1650821305633420.0
-1.0,0.0,3.0,0.0,-9.0,-7.0,-3.0,-2.0,1650821305633420.0
0.0,-2.0,-2.0,0.0,6.0,-6.0,-1.0,-1.0,1650821305649028.0
-1.0,-1.0,-2.0,-2.0,4.0,5.0,1.0,0.0,1650821305649028.0
-1.0,1.0,-1.0,0.0,-3.0,-5.0,-3.0,1.0,1650821305650958.0
0.0,2.0,4.0,2.0,-3.0,-5.0,1.0,-1.0,1650821305650958.0
0.0,3.0,-2.0,-4.0,-6.0,-3.0,-2.0,0.0,1650821305671120.0
-2.0,-4.0,-5.0,-4.0,-1.0,2.0,-2.0,-3.0,1650821305671120.0
-7.0,4.0,8.0,8.0,1.0,-1.0,-2.0,-2.0,1650821305679886.0
6.0,-5.0,-6.0,-3.0,-3.0,-1.0,1.0,0.0,1650821305679886.0
2.0,5.0,4.0,1.0,3.0,4.0,2.0,1.0,1650821305685982.0
0.0,-1.0,-5.0,-3.0,0.0,0.0,-1.0,0.0,1650821305685982.0
-4.0,-5.0,-7.0,-8.0,-1.0,0.0,-1.0,-2.0,1650821305693454.0
1.0,2.0,6.0,3.0,-4.0,-7.0,-3.0,-1.0,1650821305693454.0
-5.0,-4.0,2.0,5.0,6.0,11.0,2.0,-2.0,1650821305709601.0
-1.0,-5.0,-10.0,-9.0,-5.0,2.0,0.0,-1.0,1650821305709601.0
2.0,2.0,4.0,1.0,3.0,-2.0,0.0,-1.0,1650821305710558.0
-1.0,1.0,0.0,3.0,-1.0,-8.0,-1.0,1.0,1650821305710558.0
2.0,-2.0,1.0,-4.0,2.0,4.0,0.0,-1.0,1650821305731646.0
-2.0,2.0,4.0,5.0,6.0,6.0,3.0,1.0,1650821305731646.0
-1.0,-1.0,-2.0,-5.0,-2.0,-2.0,0.0,-1.0,1650821305733603.0
-3.0,1.0,5.0,8.0,-5.0,-4.0,-2.0,-1.0,1650821305733603.0
-4.0,-5.0,-6.0,-1.0,-7.0,-9.0,-3.0,-1.0,1650821305746719.0
3.0,3.0,5.0,4.0,0.0,1.0,-1.0,0.0,1650821305746719.0
1.0,-1.0,-4.0,-2.0,4.0,-5.0,-3.0,-1.0,1650821305752702.0
-2.0,-1.0,1.0,-1.0,5.0,15.0,1.0,-1.0,1650821305752702.0
-2.0,-4.0,-9.0,-8.0,-9.0,-2.0,-3.0,-1.0,1650821305769063.0
2.0,0.0,-1.0,1.0,1.0,-1.0,0.0,0.0,1650821305769063.0
1.0,0.0,-1.0,0.0,5.0,4.0,4.0,0.0,1650821305770992.0
1.0,0.0,-3.0,-4.0,1.0,1.0,0.0,0.0,1650821305770992.0
-5.0,-2.0,0.0,-3.0,-4.0,-4.0,0.0,-2.0,1650821305792157.0
-3.0,0.0,-2.0,-7.0,-12.0,-15.0,-6.0,-1.0,1650821305792157.0
-1.0,1.0,0.0,-3.0,-8.0,-4.0,-1.0,0.0,1650821305793132.0
3.0,-1.0,1.0,5.0,8.0,10.0,0.0,1.0,1650821305793132.0
3.0,2.0,2.0,2.0,6.0,4.0,1.0,0.0,1650821305805865.0
-2.0,-2.0,0.0,1.0,-2.0,-3.0,-4.0,-1.0,1650821305805865.0
-3.0,0.0,-3.0,-5.0,-7.0,-3.0,-1.0,-2.0,1650821305813480.0
-4.0,-3.0,-4.0,-3.0,-6.0,-3.0,0.0,0.0,1650821305813480.0
3.0,1.0,0.0,3.0,4.0,5.0,3.0,1.0,1650821305829655.0
-1.0,2.0,1.0,1.0,-1.0,0.0,0.0,-1.0,1650821305829655.0
1.0,3.0,1.0,-3.0,-3.0,3.0,-3.0,-2.0,1650821305830607.0
-4.0,-10.0,-12.0,-2.0,2.0,-1.0,-3.0,-3.0,1650821305830607.0
1.0,-2.0,7.0,6.0,3.0,1.0,1.0,0.0,1650821305851746.0
-2.0,-1.0,-11.0,-7.0,6.0,11.0,7.0,2.0,1650821305851746.0
1.0,0.0,0.0,-5.0,-5.0,-7.0,-2.0,1.0,1650821305853701.0
-2.0,2.0,5.0,0.0,-7.0,-11.0,-4.0,-2.0,1650821305853701.0
0.0,-2.0,-7.0,-5.0,-8.0,-5.0,-4.0,-1.0,1650821305865895.0
1.0,-2.0,4.0,5.0,1.0,4.0,0.0,-1.0,1650821305865895.0
0.0,0.0,1.0,5.0,9.0,10.0,1.0,1.0,1650821305873369.0
-3.0,0.0,-5.0,-6.0,6.0,1.0,0.0,0.0,1650821305873369.0
-1.0,-1.0,5.0,3.0,-6.0,-11.0,-3.0,0.0,1650821305888886.0
-1.0,1.0,-2.0,-5.0,-2.0,5.0,0.0,-1.0,1650821305888886.0
0.0,-3.0,-1.0,5.0,-3.0,2.0,0.0,-2.0,1650821305890883.0
0.0,0.0,-1.0,-3.0,-9.0,-10.0,-1.0,-1.0,1650821305890883.0
-8.0,3.0,-5.0,-6.0,7.0,1.0,1.0,1.0,1650821305911992.0
-1.0,-3.0,1.0,1.0,5.0,2.0,-1.0,-1.0,1650821305911992.0
0.0,-2.0,-2.0,-1.0,1.0,-3.0,0.0,1.0,1650821305913921.0
-1.0,2.0,3.0,-4.0,-4.0,0.0,-1.0,0.0,1650821305913921.0
2.0,-1.0,-7.0,-3.0,-9.0,-5.0,-4.0,-2.0,1650821305925982.0
-1.0,0.0,3.0,4.0,-3.0,-2.0,0.0,0.0,1650821305925982.0
0.0,2.0,1.0,0.0,2.0,3.0,1.0,-2.0,1650821305933454.0
-5.0,0.0,0.0,0.0,7.0,4.0,1.0,-3.0,1650821305933454.0
11.0,1.0,2.0,3.0,-2.0,-1.0,1.0,1.0,1650821305956924.0
2.0,-2.0,-2.0,-1.0,-1.0,-12.0,-4.0,-2.0,1650821305956924.0
-1.0,-5.0,-4.0,-1.0,4.0,11.0,1.0,-2.0,1650821305958858.0
0.0,3.0,7.0,3.0,0.0,4.0,1.0,1.0,1650821305958858.0
-2.0,0.0,-5.0,-11.0,-3.0,-2.0,-1.0,-1.0,1650821305971884.0
-1.0,-1.0,10.0,18.0,-2.0,-5.0,-1.0,0.0,1650821305971884.0
1.0,-1.0,-5.0,-5.0,-15.0,-17.0,-2.0,-1.0,1650821305973818.0
-3.0,-1.0,-3.0,-2.0,12.0,1.0,0.0,-1.0,1650821305973818.0
-4.0,-3.0,-10.0,-10.0,5.0,17.0,2.0,0.0,1650821305985814.0
5.0,0.0,-1.0,-3.0,-2.0,0.0,2.0,0.0,1650821305985814.0
-2.0,-1.0,2.0,-1.0,-2.0,-5.0,1.0,0.0,1650821305994762.0
-1.0,-1.0,-4.0,0.0,-5.0,-3.0,-2.0,-1.0,1650821305994762.0
1.0,0.0,-1.0,-2.0,-6.0,-3.0,1.0,-1.0,1650821306008861.0
-4.0,-1.0,-4.0,-3.0,6.0,8.0,-1.0,0.0,1650821306008861.0
-2.0,-3.0,2.0,5.0,2.0,2.0,-1.0,0.0,1650821306010871.0
4.0,-3.0,-3.0,-3.0,-4.0,-11.0,-4.0,-2.0,1650821306010871.0
-1.0,1.0,6.0,7.0,2.0,6.0,0.0,-1.0,1650821306031950.0
-1.0,0.0,0.0,-3.0,-3.0,5.0,2.0,1.0,1650821306031950.0
1.0,1.0,-1.0,-5.0,-3.0,-5.0,-1.0,-2.0,1650821306032947.0
-1.0,-1.0,-3.0,3.0,1.0,-7.0,-2.0,-1.0,1650821306032947.0
1.0,-3.0,-4.0,1.0,-5.0,-3.0,-1.0,-1.0,1650821306045991.0
0.0,1.0,-2.0,0.0,-3.0,0.0,0.0,0.0,1650821306045991.0
-1.0,2.0,5.0,3.0,9.0,12.0,3.0,1.0,1650821306054999.0
0.0,-1.0,-3.0,-4.0,3.0,3.0,1.0,-3.0,1650821306054999.0
-1.0,-1.0,3.0,3.0,-6.0,-10.0,-1.0,-1.0,1650821306069219.0
-2.0,1.0,2.0,0.0,0.0,-3.0,-3.0,-3.0,1650821306069219.0
-1.0,1.0,1.0,2.0,-1.0,-1.0,1.0,-1.0,1650821306071175.0
0.0,-2.0,-2.0,-2.0,-3.0,6.0,3.0,1.0,1650821306071175.0
-2.0,1.0,3.0,4.0,5.0,5.0,3.0,0.0,1650821306091920.0
0.0,0.0,1.0,1.0,-3.0,-15.0,-2.0,-1.0,1650821306091920.0
0.0,-2.0,-1.0,-3.0,-7.0,-5.0,-3.0,-1.0,1650821306093847.0
-2.0,1.0,-2.0,0.0,-4.0,5.0,1.0,2.0,1650821306093847.0
-1.0,-1.0,-1.0,2.0,10.0,3.0,1.0,1.0,1650821306105939.0
0.0,1.0,3.0,1.0,5.0,2.0,1.0,0.0,1650821306105939.0
1.0,-1.0,-6.0,-3.0,-1.0,-4.0,-3.0,0.0,1650821306114808.0
0.0,-3.0,-5.0,-5.0,-7.0,-4.0,1.0,-2.0,1650821306114808.0
1.0,1.0,6.0,5.0,-9.0,-8.0,-3.0,-3.0,1650821306129871.0
-2.0,-4.0,-9.0,-8.0,-3.0,1.0,-3.0,0.0,1650821306129871.0
-2.0,-3.0,0.0,5.0,9.0,7.0,4.0,0.0,1650821306130856.0
0.0,0.0,-2.0,1.0,1.0,5.0,-1.0,2.0,1650821306130856.0
1.0,0.0,6.0,0.0,0.0,-3.0,-2.0,-2.0,1650821306151927.0
0.0,-1.0,2.0,3.0,-3.0,5.0,-2.0,-2.0,1650821306151927.0
-3.0,0.0,-3.0,-7.0,-3.0,-1.0,1.0,-1.0,1650821306152925.0
3.0,1.0,-1.0,1.0,1.0,-2.0,1.0,-1.0,1650821306152925.0
-9.0,-4.0,1.0,2.0,-2.0,-6.0,-2.0,-2.0,1650821306165980.0
-1.0,-1.0,-1.0,-5.0,-9.0,1.0,2.0,1.0,1650821306165980.0
-1.0,0.0,-4.0,-3.0,-1.0,2.0,-1.0,0.0,1650821306174027.0
1.0,1.0,6.0,6.0,16.0,9.0,3.0,1.0,1650821306174027.0
2.0,0.0,-8.0,-6.0,-5.0,-6.0,-3.0,-1.0,1650821306189805.0
-1.0,-3.0,2.0,1.0,0.0,2.0,-1.0,-1.0,1650821306189805.0
1.0,3.0,-1.0,-2.0,-2.0,-4.0,-2.0,-1.0,1650821306190796.0
-4.0,0.0,5.0,4.0,-8.0,-11.0,-4.0,-1.0,1650821306190796.0
3.0,2.0,-1.0,-2.0,-1.0,5.0,3.0,0.0,1650821306211805.0
0.0,0.0,-3.0,3.0,3.0,4.0,3.0,1.0,1650821306211805.0
2.0,-2.0,-4.0,-11.0,4.0,6.0,1.0,-2.0,1650821306213735.0
-2.0,-2.0,6.0,5.0,-1.0,0.0,-1.0,-1.0,1650821306213735.0
-2.0,-1.0,-1.0,-2.0,-6.0,-7.0,-3.0,1.0,1650821306225730.0
-2.0,0.0,-3.0,-5.0,-2.0,-11.0,-3.0,-2.0,1650821306225730.0
-1.0,-1.0,3.0,5.0,0.0,4.0,1.0,-3.0,1650821306234678.0
0.0,0.0,-7.0,-7.0,-2.0,4.0,2.0,1.0,1650821306234678.0
-1.0,1.0,3.0,2.0,7.0,4.0,2.0,1.0,1650821306249793.0
2.0,1.0,3.0,3.0,-3.0,-5.0,0.0,-1.0,1650821306249793.0
1.0,1.0,1.0,0.0,-8.0,-9.0,-4.0,0.0,1650821306250765.0
-3.0,0.0,0.0,-1.0,2.0,2.0,-1.0,-2.0,1650821306250765.0
-2.0,1.0,-1.0,0.0,7.0,7.0,2.0,-1.0,1650821306272331.0
5.0,0.0,-3.0,-4.0,2.0,0.0,-2.0,0.0,1650821306272331.0
2.0,-1.0,-2.0,-4.0,-12.0,-13.0,-4.0,-2.0,1650821306273341.0
-1.0,-1.0,3.0,5.0,-10.0,-5.0,-1.0,-1.0,1650821306273341.0
0.0,0.0,-2.0,1.0,15.0,16.0,1.0,0.0,1650821306285429.0
-2.0,1.0,0.0,0.0,6.0,8.0,2.0,0.0,1650821306285429.0
-5.0,-1.0,-4.0,-3.0,-9.0,-16.0,-3.0,0.0,1650821306294804.0
2.0,-1.0,2.0,2.0,-3.0,-2.0,-1.0,1.0,1650821306294804.0
-1.0,-3.0,-5.0,-2.0,-3.0,1.0,-1.0,-2.0,1650821306308983.0
-3.0,1.0,-1.0,-1.0,4.0,8.0,1.0,0.0,1650821306308983.0
0.0,1.0,3.0,3.0,1.0,0.0,-1.0,1.0,1650821306310913.0
-1.0,0.0,-2.0,-2.0,-4.0,-11.0,-2.0,-1.0,1650821306310913.0
1.0,1.0,1.0,0.0,-4.0,-1.0,-1.0,1.0,1650821306331966.0
-3.0,-2.0,-4.0,-10.0,1.0,4.0,1.0,0.0,1650821306331966.0
-3.0,-5.0,0.0,5.0,3.0,5.0,0.0,0.0,1650821306332925.0
-1.0,-2.0,1.0,0.0,-4.0,0.0,1.0,-1.0,1650821306332925.0
4.0,1.0,-3.0,-4.0,-1.0,-11.0,-6.0,0.0,1650821306345889.0
0.0,-2.0,-2.0,-1.0,-1.0,-1.0,11.0,1.0,1650821306345889.0
1.0,0.0,8.0,9.0,13.0,15.0,3.0,-1.0,1650821306354852.0
0.0,3.0,-5.0,-2.0,-1.0,2.0,-3.0,-3.0,1650821306354852.0
-2.0,0.0,-5.0,-5.0,-9.0,-4.0,1.0,2.0,1650821306369809.0
4.0,-1.0,-4.0,-1.0,-4.0,-2.0,-6.0,0.0,1650821306369809.0
-2.0,-2.0,-5.0,-2.0,0.0,-1.0,-1.0,0.0,1650821306370776.0
0.0,-1.0,0.0,-1.0,3.0,4.0,-1.0,-2.0,1650821306370776.0
-2.0,-1.0,-1.0,-1.0,-7.0,-9.0,-6.0,-3.0,1650821306391934.0
-7.0,-4.0,-4.0,-5.0,-4.0,-8.0,-4.0,-2.0,1650821306391934.0
1.0,1.0,5.0,6.0,2.0,5.0,-1.0,1.0,1650821306393863.0
0.0,1.0,-1.0,-2.0,3.0,4.0,-3.0,1.0,1650821306393863.0
-2.0,-1.0,2.0,2.0,0.0,2.0,4.0,-1.0,1650821306415324.0
-3.0,0.0,1.0,-1.0,1.0,1.0,-4.0,-2.0,1650821306415324.0
2.0,1.0,-4.0,-9.0,-7.0,-7.0,-2.0,0.0,1650821306416324.0
3.0,0.0,2.0,1.0,2.0,-1.0,3.0,3.0,1650821306416324.0
0.0,0.0,1.0,-1.0,2.0,1.0,-5.0,-3.0,1650821306429354.0
-3.0,3.0,2.0,4.0,-5.0,-6.0,-3.0,-3.0,1650821306429354.0
-1.0,-2.0,-3.0,-1.0,6.0,14.0,7.0,-3.0,1650821306431313.0
-2.0,-6.0,-5.0,-5.0,3.0,5.0,7.0,0.0,1650821306431313.0
3.0,-1.0,-1.0,-1.0,-1.0,-1.0,2.0,1.0,1650821306452779.0
3.0,4.0,5.0,4.0,-1.0,-5.0,-4.0,-5.0,1650821306452779.0
-4.0,2.0,0.0,-1.0,-4.0,-9.0,-2.0,6.0,1650821306453785.0
2.0,6.0,-3.0,-1.0,0.0,-1.0,0.0,2.0,1650821306453785.0
-1.0,-12.0,-4.0,-2.0,5.0,5.0,1.0,-4.0,1650821306474830.0
-3.0,-2.0,0.0,-1.0,-8.0,-8.0,-4.0,-2.0,1650821306474830.0
0.0,-1.0,4.0,2.0,-5.0,-7.0,-1.0,0.0,1650821306475830.0
-4.0,-5.0,-3.0,-1.0,7.0,6.0,-1.0,-1.0,1650821306475830.0
0.0,9.0,2.0,1.0,-4.0,-2.0,-7.0,-2.0,1650821306489820.0
2.0,-5.0,-3.0,-3.0,-3.0,-5.0,1.0,-12.0,1650821306489820.0
-5.0,0.0,-2.0,-1.0,10.0,12.0,15.0,31.0,1650821306490790.0
0.0,6.0,7.0,3.0,0.0,1.0,-5.0,-29.0,1650821306490790.0
2.0,-5.0,-4.0,-2.0,-4.0,-7.0,-2.0,16.0,1650821306511953.0
-7.0,-10.0,-2.0,1.0,-2.0,-3.0,-7.0,-18.0,1650821306511953.0
-8.0,4.0,-2.0,-1.0,-3.0,-6.0,-13.0,-11.0,1650821306513894.0
15.0,-1.0,-1.0,-4.0,-4.0,-4.0,9.0,30.0,1650821306513894.0
6.0,3.0,-4.0,-9.0,-5.0,4.0,9.0,-4.0,1650821306534000.0
-1.0,5.0,4.0,5.0,-3.0,0.0,-6.0,-19.0,1650821306534000.0
14.0,-4.0,-1.0,2.0,5.0,-1.0,-7.0,-3.0,1650821306535998.0
-13.0,4.0,2.0,2.0,10.0,6.0,-8.0,-7.0,1650821306535998.0
-3.0,2.0,5.0,0.0,-5.0,-5.0,-9.0,-22.0,1650821306549177.0
-5.0,-3.0,-3.0,-4.0,-2.0,2.0,8.0,42.0,1650821306549177.0
-5.0,-6.0,-10.0,-7.0,-10.0,-7.0,18.0,22.0,1650821306551133.0
5.0,1.0,0.0,-1.0,-12.0,-19.0,-3.0,14.0,1650821306551133.0
17.0,-2.0,-3.0,1.0,6.0,10.0,-6.0,-29.0,1650821306572283.0
-32.0,5.0,1.0,1.0,13.0,13.0,-6.0,-9.0,1650821306572283.0
-9.0,-8.0,-3.0,-4.0,-4.0,-1.0,-5.0,-16.0,1650821306573277.0
-2.0,0.0,5.0,3.0,-9.0,-7.0,6.0,18.0,1650821306573277.0
1.0,-2.0,-2.0,5.0,-1.0,-6.0,4.0,7.0,1650821306594297.0
24.0,-1.0,-5.0,-1.0,11.0,9.0,-6.0,6.0,1650821306594297.0
-7.0,-3.0,2.0,-2.0,4.0,5.0,-2.0,-7.0,1650821306596224.0
-4.0,2.0,-2.0,-6.0,-14.0,-14.0,-10.0,-19.0,1650821306596224.0
-11.0,-11.0,-2.0,-1.0,-4.0,1.0,10.0,21.0,1650821306609204.0
16.0,11.0,2.0,1.0,3.0,4.0,3.0,6.0,1650821306609204.0
9.0,-10.0,-22.0,-9.0,-1.0,-13.0,-15.0,-24.0,1650821306615255.0
13.0,-2.0,5.0,-1.0,-7.0,5.0,11.0,22.0,1650821306615255.0
-10.0,-1.0,6.0,5.0,11.0,13.0,-2.0,-7.0,1650821306631482.0
-1.0,-7.0,-7.0,-3.0,-2.0,-3.0,10.0,25.0,1650821306631482.0
-4.0,3.0,6.0,-3.0,-7.0,-5.0,-8.0,-20.0,1650821306633411.0
13.0,4.0,-4.0,0.0,-2.0,-2.0,-11.0,-19.0,1650821306633411.0
-25.0,6.0,-3.0,3.0,4.0,-2.0,0.0,7.0,1650821306654421.0
-21.0,-10.0,5.0,1.0,-2.0,4.0,4.0,-7.0,1650821306654421.0
4.0,3.0,5.0,4.0,0.0,2.0,-1.0,-6.0,1650821306656349.0
7.0,-11.0,-11.0,-9.0,6.0,5.0,1.0,2.0,1650821306656349.0
-39.0,10.0,6.0,0.0,-6.0,-3.0,2.0,8.0,1650821306668382.0
7.0,-13.0,-5.0,-2.0,-8.0,-11.0,-12.0,-28.0,1650821306668382.0
-8.0,5.0,-3.0,-1.0,-6.0,-5.0,4.0,30.0,1650821306675355.0
14.0,12.0,7.0,2.0,0.0,-6.0,7.0,-6.0,1650821306675355.0
20.0,-13.0,-11.0,-2.0,-1.0,6.0,-4.0,-1.0,1650821306692262.0
-2.0,-1.0,-2.0,-2.0,2.0,3.0,-2.0,-20.0,1650821306692262.0
5.0,6.0,11.0,7.0,16.0,15.0,-2.0,-11.0,1650821306693262.0
-23.0,-2.0,-1.0,5.0,6.0,3.0,5.0,30.0,1650821306693262.0
16.0,0.0,-1.0,-2.0,-7.0,-17.0,-3.0,-14.0,1650821306714828.0
-21.0,2.0,0.0,0.0,-2.0,-1.0,-3.0,5.0,1650821306714828.0
35.0,-1.0,0.0,0.0,-6.0,3.0,10.0,2.0,1650821306715838.0
-34.0,-7.0,-5.0,-5.0,5.0,6.0,-7.0,-19.0,1650821306715838.0
8.0,6.0,-1.0,1.0,-6.0,-8.0,-1.0,10.0,1650821306728924.0
1.0,-2.0,10.0,4.0,-10.0,-14.0,-3.0,0.0,1650821306728924.0
-8.0,6.0,0.0,2.0,7.0,9.0,-1.0,-6.0,1650821306735868.0
-11.0,-3.0,-17.0,-1.0,7.0,10.0,1.0,-5.0,1650821306735868.0
14.0,7.0,14.0,0.0,-7.0,-9.0,2.0,9.0,1650821306752311.0
11.0,-6.0,-2.0,2.0,0.0,-2.0,7.0,30.0,1650821306752311.0
-29.0,-1.0,-4.0,-2.0,4.0,0.0,-17.0,-70.0,1650821306753311.0
5.0,-4.0,-4.0,1.0,8.0,9.0,3.0,25.0,1650821306753311.0
-1.0,2.0,-1.0,-5.0,-1.0,3.0,10.0,11.0,1650821306774000.0
4.0,6.0,-4.0,-3.0,4.0,-1.0,5.0,5.0,1650821306774000.0
16.0,5.0,1.0,-4.0,-16.0,-16.0,0.0,16.0,1650821306775997.0
-11.0,-19.0,-24.0,-8.0,-20.0,-13.0,-15.0,-24.0,1650821306775997.0
4.0,-6.0,5.0,-1.0,10.0,7.0,-12.0,-23.0,1650821306789028.0
9.0,6.0,1.0,2.0,5.0,-1.0,3.0,15.0,1650821306789028.0
-1.0,2.0,1.0,1.0,-2.0,6.0,2.0,10.0,1650821306795970.0
-1.0,1.0,2.0,-2.0,2.0,2.0,-2.0,-16.0,1650821306795970.0
-8.0,7.0,8.0,4.0,13.0,8.0,7.0,23.0,1650821306812062.0
1.0,16.0,-24.0,-3.0,0.0,3.0,3.0,-2.0,1650821306812062.0
44.0,1.0,10.0,1.0,-4.0,-12.0,-8.0,5.0,1650821306813058.0
-52.0,5.0,12.0,-2.0,-21.0,-14.0,-1.0,8.0,1650821306813058.0
24.0,-2.0,-5.0,1.0,4.0,0.0,4.0,5.0,1650821306833961.0
-11.0,-11.0,-7.0,2.0,12.0,14.0,-6.0,-32.0,1650821306833961.0
16.0,3.0,1.0,2.0,3.0,9.0,2.0,33.0,1650821306835958.0
17.0,-6.0,-5.0,-5.0,-2.0,-2.0,6.0,18.0,1650821306835958.0
-4.0,-2.0,4.0,-4.0,-13.0,-10.0,1.0,10.0,1650821306848859.0
2.0,3.0,-1.0,-3.0,-5.0,-8.0,-4.0,-9.0,1650821306848859.0
-21.0,-4.0,-2.0,0.0,-4.0,-2.0,-3.0,-15.0,1650821306855929.0
17.0,1.0,9.0,6.0,9.0,-8.0,-4.0,5.0,1650821306855929.0
-11.0,-6.0,-10.0,-5.0,4.0,9.0,-6.0,-6.0,1650821306871999.0
4.0,-1.0,-2.0,-4.0,-6.0,5.0,2.0,8.0,1650821306871999.0
-20.0,-16.0,-4.0,1.0,-1.0,-2.0,7.0,6.0,1650821306872957.0
23.0,14.0,23.0,1.0,4.0,-10.0,-3.0,-12.0,1650821306872957.0
-4.0,-2.0,-22.0,-3.0,-8.0,0.0,-3.0,-7.0,1650821306894805.0
-6.0,-4.0,9.0,6.0,-1.0,6.0,5.0,0.0,1650821306894805.0
-4.0,5.0,6.0,0.0,6.0,0.0,5.0,11.0,1650821306895806.0
2.0,-2.0,-4.0,-1.0,-3.0,-3.0,-3.0,-9.0,1650821306895806.0
-6.0,-4.0,-5.0,-1.0,-3.0,-11.0,-9.0,-18.0,1650821306907839.0
12.0,-1.0,9.0,-4.0,-5.0,-2.0,-4.0,10.0,1650821306907839.0
-11.0,5.0,3.0,5.0,3.0,13.0,9.0,10.0,1650821306916750.0
8.0,-12.0,-17.0,-1.0,1.0,2.0,1.0,-10.0,1650821306916750.0
-3.0,-3.0,8.0,-4.0,-13.0,-12.0,-8.0,-1.0,1650821306931770.0
-1.0,6.0,-6.0,-1.0,21.0,15.0,4.0,10.0,1650821306931770.0
0.0,-9.0,-3.0,-4.0,1.0,-3.0,-6.0,-9.0,1650821306933727.0
-11.0,4.0,-9.0,1.0,-5.0,2.0,-3.0,-29.0,1650821306933727.0
-3.0,1.0,17.0,6.0,0.0,-1.0,3.0,10.0,1650821306953933.0
-20.0,-10.0,-8.0,-5.0,-15.0,-20.0,-11.0,-39.0,1650821306953933.0
13.0,1.0,-2.0,1.0,-1.0,7.0,6.0,6.0,1650821306955930.0
0.0,10.0,8.0,3.0,12.0,16.0,-6.0,-9.0,1650821306955930.0
10.0,7.0,3.0,6.0,7.0,10.0,13.0,17.0,1650821306967997.0
-3.0,-15.0,-11.0,-8.0,-4.0,-10.0,-6.0,4.0,1650821306967997.0
-13.0,-10.0,-7.0,-7.0,-7.0,-12.0,-8.0,-12.0,1650821306976648.0
23.0,9.0,10.0,0.0,-10.0,-3.0,-5.0,-11.0,1650821306976648.0
-61.0,-10.0,-17.0,-5.0,-3.0,-2.0,4.0,17.0,1650821306991724.0
21.0,11.0,19.0,6.0,-3.0,-1.0,5.0,16.0,1650821306991724.0
-4.0,3.0,-2.0,1.0,16.0,9.0,1.0,8.0,1650821306993654.0
-7.0,-9.0,-10.0,-2.0,14.0,22.0,3.0,-18.0,1650821306993654.0
17.0,5.0,7.0,1.0,4.0,-1.0,4.0,-1.0,1650821307014827.0
-4.0,-4.0,-12.0,-1.0,-11.0,-11.0,2.0,5.0,1650821307014827.0
-11.0,-1.0,-13.0,-8.0,-10.0,-9.0,-2.0,-4.0,1650821307015828.0
2.0,-3.0,0.0,-2.0,-5.0,-5.0,1.0,5.0,1650821307015828.0
9.0,12.0,14.0,4.0,2.0,1.0,-6.0,-9.0,1650821307028395.0
-4.0,-2.0,-4.0,1.0,0.0,2.0,-1.0,-7.0,1650821307028395.0
19.0,14.0,18.0,4.0,2.0,0.0,-1.0,-2.0,1650821307036887.0
-2.0,-8.0,-7.0,1.0,9.0,8.0,6.0,30.0,1650821307036887.0
-3.0,-9.0,-19.0,-7.0,-3.0,-2.0,-7.0,-45.0,1650821307052159.0
12.0,12.0,9.0,-1.0,-14.0,-19.0,2.0,22.0,1650821307052159.0
-29.0,-7.0,1.0,-3.0,2.0,-6.0,-5.0,-2.0,1650821307053085.0
1.0,1.0,14.0,4.0,9.0,31.0,10.0,11.0,1650821307053085.0
11.0,-4.0,1.0,4.0,15.0,17.0,9.0,22.0,1650821307074843.0
37.0,5.0,6.0,4.0,5.0,-7.0,-2.0,-29.0,1650821307074843.0
-24.0,-11.0,-7.0,-9.0,-20.0,-22.0,-3.0,7.0,1650821307075840.0
-4.0,7.0,4.0,-3.0,-9.0,-14.0,-2.0,-1.0,1650821307075840.0
8.0,5.0,-4.0,-6.0,-14.0,-3.0,0.0,10.0,1650821307087942.0
-9.0,-9.0,-7.0,-2.0,5.0,5.0,5.0,17.0,1650821307087942.0
19.0,1.0,-18.0,-5.0,6.0,-8.0,-7.0,-9.0,1650821307097041.0
-5.0,5.0,5.0,2.0,1.0,16.0,2.0,-1.0,1650821307097041.0
-4.0,-9.0,-14.0,-1.0,9.0,14.0,0.0,-9.0,1650821307112147.0
-8.0,7.0,15.0,1.0,-7.0,-5.0,2.0,13.0,1650821307112147.0
-7.0,13.0,10.0,5.0,-7.0,-8.0,-3.0,-37.0,1650821307113076.0
-9.0,-11.0,-24.0,-7.0,-3.0,-16.0,-6.0,7.0,1650821307113076.0
8.0,-1.0,3.0,-6.0,-9.0,-8.0,-7.0,-9.0,1650821307134705.0
-2.0,-5.0,-6.0,-1.0,3.0,2.0,-1.0,-1.0,1650821307134705.0
6.0,-1.0,10.0,8.0,8.0,15.0,7.0,23.0,1650821307135708.0
6.0,-9.0,-4.0,4.0,12.0,10.0,6.0,6.0,1650821307135708.0
-9.0,-4.0,-14.0,-3.0,-11.0,-7.0,-8.0,-38.0,1650821307147785.0
14.0,-14.0,-3.0,-6.0,-7.0,-3.0,0.0,16.0,1650821307147785.0
15.0,-5.0,-9.0,-3.0,-5.0,-1.0,1.0,2.0,1650821307157299.0
-6.0,12.0,23.0,6.0,-5.0,-11.0,-6.0,-3.0,1650821307157299.0
-2.0,-9.0,2.0,1.0,2.0,-4.0,3.0,13.0,1650821307172270.0
4.0,3.0,-4.0,4.0,5.0,16.0,1.0,-15.0,1650821307172270.0
-5.0,-4.0,-9.0,-4.0,-2.0,1.0,-5.0,-3.0,1650821307173245.0
15.0,-2.0,-4.0,0.0,-3.0,-7.0,1.0,3.0,1650821307173245.0
10.0,-4.0,3.0,-2.0,-2.0,0.0,-3.0,-1.0,1650821307201544.0
-7.0,3.0,2.0,2.0,5.0,2.0,2.0,21.0,1650821307201544.0
-8.0,-12.0,-9.0,2.0,9.0,12.0,1.0,-22.0,1650821307203488.0
-1.0,5.0,7.0,-2.0,-14.0,-18.0,-5.0,7.0,1650821307203488.0
1.0,-1.0,-4.0,1.0,-4.0,-10.0,-1.0,5.0,1650821307207462.0
-7.0,6.0,9.0,6.0,20.0,23.0,4.0,1.0,1650821307207462.0
-2.0,5.0,12.0,-1.0,2.0,8.0,1.0,21.0,1650821307216654.0
10.0,1.0,-7.0,-5.0,-4.0,-12.0,-5.0,-7.0,1650821307216654.0
-5.0,-4.0,0.0,0.0,-14.0,-7.0,6.0,17.0,1650821307231864.0
-22.0,8.0,6.0,-1.0,-3.0,-3.0,-3.0,-14.0,1650821307231864.0
23.0,3.0,-3.0,4.0,7.0,0.0,3.0,9.0,1650821307233819.0
12.0,-2.0,9.0,-1.0,2.0,14.0,3.0,-10.0,1650821307233819.0
13.0,-6.0,-11.0,-7.0,4.0,2.0,0.0,23.0,1650821307254039.0
-3.0,9.0,4.0,1.0,-6.0,-8.0,-3.0,6.0,1650821307254039.0
-9.0,2.0,1.0,-1.0,-8.0,-6.0,-1.0,-17.0,1650821307256037.0
0.0,5.0,-5.0,-3.0,-6.0,-8.0,1.0,2.0,1650821307256037.0
3.0,8.0,10.0,8.0,16.0,10.0,-1.0,-9.0,1650821307268368.0
2.0,3.0,0.0,-5.0,2.0,5.0,0.0,7.0,1650821307268368.0
4.0,-3.0,-7.0,1.0,-1.0,2.0,4.0,12.0,1650821307276578.0
-4.0,-4.0,-12.0,-1.0,-3.0,-11.0,-2.0,0.0,1650821307276578.0
-4.0,6.0,8.0,5.0,4.0,3.0,0.0,0.0,1650821307291753.0
-8.0,-9.0,1.0,1.0,16.0,18.0,1.0,-13.0,1650821307291753.0
-5.0,0.0,-6.0,-3.0,-2.0,1.0,-1.0,2.0,1650821307293709.0
-15.0,3.0,10.0,-1.0,-8.0,-13.0,4.0,15.0,1650821307293709.0
2.0,8.0,-5.0,-3.0,-8.0,-8.0,0.0,2.0,1650821307314818.0
3.0,1.0,5.0,-1.0,-7.0,-3.0,2.0,-14.0,1650821307314818.0
-5.0,-9.0,-11.0,-3.0,-2.0,-5.0,-1.0,3.0,1650821307315798.0
-2.0,-4.0,-4.0,0.0,1.0,-1.0,-7.0,-3.0,1650821307315798.0
-2.0,0.0,16.0,5.0,5.0,2.0,-4.0,-5.0,1650821307327864.0
-2.0,-4.0,-18.0,0.0,0.0,7.0,2.0,12.0,1650821307327864.0
-14.0,7.0,10.0,3.0,4.0,2.0,1.0,-20.0,1650821307344847.0
12.0,-4.0,-7.0,-5.0,-3.0,-3.0,-4.0,-10.0,1650821307344847.0
-49.0,-6.0,-10.0,-7.0,-8.0,-10.0,-4.0,-10.0,1650821307352329.0
1.0,3.0,6.0,0.0,-9.0,-7.0,-6.0,-11.0,1650821307352329.0
-3.0,3.0,5.0,5.0,3.0,-4.0,-1.0,11.0,1650821307353328.0
-6.0,-8.0,-8.0,4.0,15.0,24.0,7.0,7.0,1650821307353328.0
23.0,-1.0,-2.0,1.0,10.0,14.0,3.0,-7.0,1650821307374338.0
-16.0,7.0,9.0,-7.0,-13.0,-17.0,-8.0,-6.0,1650821307374338.0
6.0,-2.0,0.0,0.0,-11.0,-13.0,-6.0,-12.0,1650821307376295.0
4.0,-1.0,4.0,-2.0,-19.0,-16.0,-1.0,7.0,1650821307376295.0
2.0,-1.0,5.0,5.0,13.0,5.0,2.0,3.0,1650821307396936.0
0.0,-1.0,-10.0,0.0,15.0,22.0,0.0,-3.0,1650821307396936.0
6.0,-4.0,-4.0,1.0,2.0,10.0,1.0,2.0,1650821307398884.0
-8.0,-10.0,-7.0,-1.0,-1.0,-5.0,-2.0,-2.0,1650821307398884.0
2.0,-4.0,-14.0,-4.0,-14.0,-20.0,-3.0,4.0,1650821307411896.0
1.0,-2.0,1.0,1.0,-7.0,-10.0,-3.0,3.0,1650821307411896.0
-3.0,9.0,8.0,-1.0,7.0,14.0,-4.0,-26.0,1650821307413824.0
-1.0,-2.0,-7.0,2.0,3.0,0.0,6.0,21.0,1650821307413824.0
1.0,5.0,9.0,-2.0,-6.0,-6.0,-4.0,-6.0,1650821307433937.0
-1.0,-2.0,2.0,3.0,9.0,6.0,3.0,-5.0,1650821307433937.0
2.0,0.0,8.0,2.0,4.0,2.0,5.0,17.0,1650821307435934.0
-3.0,5.0,4.0,1.0,-1.0,3.0,-1.0,-4.0,1650821307435934.0
23.0,-4.0,-18.0,-8.0,-8.0,-14.0,-7.0,-12.0,1650821307457197.0
-16.0,-9.0,-6.0,1.0,1.0,-1.0,-1.0,3.0,1650821307457197.0
3.0,-4.0,-3.0,-5.0,-9.0,5.0,2.0,6.0,1650821307458197.0
-5.0,1.0,2.0,3.0,11.0,7.0,1.0,-4.0,1650821307458197.0
5.0,-3.0,-4.0,-1.0,7.0,6.0,-5.0,-9.0,1650821307472307.0
5.0,2.0,-6.0,-5.0,-22.0,-27.0,-3.0,1.0,1650821307472307.0
-15.0,-12.0,2.0,-4.0,4.0,4.0,6.0,15.0,1650821307473316.0
4.0,1.0,-3.0,-7.0,-3.0,0.0,-8.0,-18.0,1650821307473316.0
-6.0,-1.0,7.0,4.0,-6.0,5.0,4.0,7.0,1650821307494038.0
16.0,3.0,-3.0,1.0,3.0,-1.0,0.0,16.0,1650821307494038.0
-34.0,3.0,-3.0,1.0,-5.0,-8.0,-4.0,-53.0,1650821307496066.0
-1.0,-7.0,-9.0,0.0,3.0,-9.0,-4.0,2.0,1650821307496066.0
-16.0,-5.0,5.0,1.0,3.0,17.0,0.0,2.0,1650821307517244.0
8.0,-3.0,-2.0,1.0,3.0,8.0,3.0,-5.0,1650821307517244.0
-3.0,0.0,2.0,-2.0,-10.0,-15.0,0.0,23.0,1650821307518006.0
14.0,11.0,16.0,3.0,5.0,1.0,-3.0,-7.0,1650821307518006.0
-14.0,-10.0,-15.0,-6.0,-1.0,0.0,0.0,-4.0,1650821307530940.0
5.0,-6.0,-7.0,-1.0,6.0,2.0,0.0,-4.0,1650821307530940.0
12.0,4.0,3.0,0.0,-6.0,-8.0,-4.0,10.0,1650821307538369.0
13.0,7.0,5.0,0.0,-1.0,5.0,-1.0,-4.0,1650821307538369.0
5.0,11.0,8.0,-1.0,-2.0,2.0,4.0,11.0,1650821307553941.0
-4.0,4.0,6.0,2.0,0.0,0.0,1.0,-3.0,1650821307553941.0
8.0,2.0,-1.0,-2.0,1.0,-4.0,-3.0,2.0,1650821307555870.0
-8.0,-9.0,-4.0,2.0,-6.0,-8.0,2.0,-1.0,1650821307555870.0
5.0,1.0,-2.0,-3.0,0.0,4.0,0.0,-2.0,1650821307576922.0
-7.0,5.0,25.0,4.0,10.0,6.0,0.0,-9.0,1650821307576922.0
23.0,-5.0,-29.0,-7.0,-7.0,-12.0,1.0,40.0,1650821307578923.0
-9.0,15.0,11.0,5.0,-1.0,-1.0,-4.0,-30.0,1650821307578923.0
-4.0,-10.0,-4.0,2.0,5.0,3.0,-1.0,-7.0,1650821307591071.0
-7.0,-4.0,-2.0,-5.0,0.0,5.0,5.0,12.0,1650821307591071.0
-1.0,-3.0,5.0,2.0,-3.0,-5.0,1.0,10.0,1650821307598053.0
1.0,-4.0,-12.0,-2.0,0.0,9.0,2.0,7.0,1650821307598053.0
7.0,2.0,-4.0,5.0,9.0,10.0,2.0,1.0,1650821307622108.0
-6.0,1.0,4.0,-4.0,-7.0,-13.0,-4.0,-4.0,1650821307622108.0
2.0,1.0,-3.0,-2.0,4.0,2.0,-1.0,-7.0,1650821307623122.0
-9.0,-7.0,-7.0,-2.0,-7.0,-4.0,1.0,4.0,1650821307623122.0
1.0,6.0,7.0,-1.0,-5.0,-16.0,-2.0,-5.0,1650821307637270.0
5.0,-4.0,-8.0,4.0,1.0,8.0,-2.0,-6.0,1650821307637270.0
-7.0,-7.0,-6.0,-3.0,1.0,2.0,2.0,3.0,1650821307638135.0
-8.0,0.0,-2.0,1.0,2.0,1.0,1.0,-1.0,1650821307638135.0
2.0,-1.0,-12.0,0.0,6.0,5.0,1.0,7.0,1650821307651125.0
4.0,3.0,3.0,-4.0,-5.0,-3.0,-1.0,-5.0,1650821307651125.0
-2.0,0.0,5.0,2.0,-4.0,-2.0,-3.0,-9.0,1650821307658157.0
-6.0,-13.0,-16.0,-4.0,3.0,-1.0,0.0,14.0,1650821307658157.0
2.0,6.0,18.0,3.0,-5.0,-10.0,-2.0,-9.0,1650821307673948.0
4.0,1.0,-15.0,-6.0,-2.0,6.0,-1.0,-6.0,1650821307673948.0
-2.0,-3.0,-7.0,3.0,12.0,14.0,0.0,-10.0,1650821307675944.0
2.0,12.0,30.0,4.0,-4.0,-1.0,4.0,14.0,1650821307675944.0
-9.0,-5.0,-9.0,0.0,-4.0,-10.0,-2.0,0.0,1650821307697280.0
-8.0,-14.0,-18.0,-5.0,-3.0,-10.0,-2.0,-7.0,1650821307697280.0
5.0,1.0,3.0,-1.0,-7.0,-2.0,-3.0,7.0,1650821307698287.0
8.0,0.0,-5.0,-3.0,1.0,3.0,0.0,-13.0,1650821307698287.0
-38.0,0.0,9.0,2.0,-1.0,-2.0,1.0,4.0,1650821307711310.0
6.0,-2.0,-5.0,-1.0,0.0,-1.0,2.0,4.0,1650821307711310.0
-7.0,2.0,1.0,-1.0,-7.0,-7.0,-5.0,-8.0,1650821307718293.0
-14.0,-9.0,-11.0,0.0,4.0,9.0,2.0,4.0,1650821307718293.0
12.0,13.0,11.0,-2.0,10.0,19.0,-2.0,-10.0,1650821307734828.0
1.0,0.0,5.0,3.0,0.0,-7.0,2.0,21.0,1650821307734828.0
-3.0,6.0,9.0,3.0,0.0,0.0,1.0,-12.0,1650821307735832.0
7.0,-5.0,0.0,-6.0,-13.0,-14.0,-10.0,1.0,1650821307735832.0
-9.0,-10.0,-9.0,-2.0,0.0,-1.0,0.0,-27.0,1650821307757300.0
-2.0,6.0,2.0,2.0,8.0,7.0,2.0,6.0,1650821307757300.0
7.0,-3.0,-5.0,-1.0,-5.0,1.0,-1.0,2.0,1650821307758300.0
-5.0,4.0,2.0,2.0,1.0,1.0,0.0,-3.0,1650821307758300.0
11.0,-3.0,5.0,1.0,0.0,-3.0,0.0,11.0,1650821307771354.0
-7.0,-1.0,-1.0,-3.0,-9.0,-11.0,-7.0,-12.0,1650821307771354.0
0.0,3.0,-4.0,-6.0,-6.0,-6.0,-2.0,-5.0,1650821307778419.0
3.0,3.0,0.0,0.0,-2.0,4.0,3.0,3.0,1650821307778419.0
-1.0,-8.0,6.0,3.0,13.0,1.0,1.0,6.0,1650821307793907.0
-3.0,-4.0,-1.0,4.0,4.0,4.0,1.0,-10.0,1650821307793907.0
-1.0,0.0,16.0,3.0,-2.0,5.0,2.0,10.0,1650821307795903.0
-3.0,-6.0,-6.0,-2.0,2.0,-3.0,-2.0,-2.0,1650821307795903.0
8.0,10.0,7.0,-6.0,-13.0,-13.0,-1.0,3.0,1650821307816953.0
-4.0,1.0,0.0,0.0,-1.0,3.0,-5.0,-20.0,1650821307816953.0
2.0,-8.0,-5.0,2.0,15.0,11.0,5.0,13.0,1650821307817908.0
20.0,3.0,1.0,2.0,-8.0,-4.0,2.0,-8.0,1650821307817908.0
-21.0,3.0,-1.0,0.0,4.0,-2.0,1.0,19.0,1650821307830914.0
4.0,-1.0,-3.0,-5.0,-29.0,-27.0,-9.0,-3.0,1650821307830914.0
-3.0,13.0,0.0,-3.0,11.0,5.0,-5.0,-10.0,1650821307837901.0
-2.0,-14.0,-4.0,4.0,15.0,27.0,3.0,-2.0,1650821307837901.0
13.0,3.0,-9.0,-2.0,3.0,10.0,6.0,14.0,1650821307854121.0
-3.0,-12.0,0.0,3.0,3.0,0.0,0.0,-2.0,1650821307854121.0
-2.0,9.0,3.0,-2.0,-18.0,-29.0,-5.0,-3.0,1650821307856050.0
1.0,3.0,1.0,-2.0,-3.0,-7.0,-6.0,-1.0,1650821307856050.0
0.0,-6.0,-9.0,-2.0,3.0,10.0,0.0,-6.0,1650821307877269.0
-8.0,-1.0,1.0,0.0,2.0,5.0,2.0,0.0,1650821307877269.0
3.0,-15.0,-7.0,-3.0,-3.0,-8.0,-1.0,4.0,1650821307878873.0
-9.0,0.0,-2.0,-5.0,1.0,-7.0,-6.0,-21.0,1650821307878873.0
1.0,-8.0,-9.0,-2.0,-11.0,-5.0,-3.0,-4.0,1650821307899117.0
5.0,2.0,1.0,-3.0,1.0,3.0,2.0,2.0,1650821307899117.0
-1.0,2.0,2.0,6.0,9.0,17.0,8.0,9.0,1650821307901044.0
-4.0,-1.0,4.0,-4.0,3.0,0.0,0.0,5.0,1650821307901044.0
4.0,4.0,-7.0,-1.0,-5.0,-5.0,-2.0,-2.0,1650821307914157.0
-2.0,-4.0,0.0,-2.0,-3.0,-6.0,-4.0,-6.0,1650821307914157.0
-1.0,-3.0,3.0,1.0,-3.0,0.0,0.0,-2.0,1650821307916155.0
-6.0,2.0,4.0,1.0,-10.0,-12.0,2.0,-1.0,1650821307916155.0
10.0,6.0,2.0,-1.0,6.0,11.0,2.0,15.0,1650821307937302.0
0.0,2.0,4.0,1.0,9.0,14.0,6.0,-4.0,1650821307937302.0
0.0,0.0,-13.0,-8.0,-7.0,-8.0,-4.0,-6.0,1650821307938307.0
-3.0,-5.0,-2.0,-2.0,-5.0,-5.0,-1.0,0.0,1650821307938307.0
2.0,0.0,5.0,-2.0,-13.0,-18.0,-6.0,1.0,1650821307950824.0
1.0,1.0,-1.0,6.0,10.0,4.0,4.0,6.0,1650821307950824.0
1.0,0.0,5.0,1.0,11.0,16.0,2.0,-2.0,1650821307959376.0
-7.0,0.0,-6.0,-1.0,-4.0,-6.0,2.0,5.0,1650821307959376.0
0.0,0.0,8.0,0.0,-4.0,0.0,-2.0,-11.0,1650821307974845.0
0.0,-4.0,-9.0,-3.0,1.0,8.0,0.0,2.0,1650821307974845.0
-2.0,0.0,2.0,4.0,0.0,-5.0,-1.0,-5.0,1650821307975843.0
0.0,0.0,2.0,2.0,0.0,-2.0,-1.0,5.0,1650821307975843.0
-2.0,-5.0,-4.0,2.0,6.0,6.0,2.0,-5.0,1650821307997328.0
5.0,0.0,-1.0,-4.0,-2.0,-6.0,1.0,-1.0,1650821307997328.0
2.0,-1.0,-2.0,-2.0,-3.0,-1.0,0.0,15.0,1650821307998328.0
-3.0,-1.0,-5.0,-3.0,-3.0,-5.0,-4.0,-10.0,1650821307998328.0
3.0,-1.0,-1.0,-1.0,-4.0,-13.0,-4.0,-2.0,1650821308010901.0
-4.0,-1.0,2.0,4.0,-2.0,7.0,1.0,2.0,1650821308010901.0
1.0,-3.0,0.0,3.0,4.0,11.0,4.0,0.0,1650821308019874.0
0.0,2.0,2.0,3.0,8.0,3.0,-2.0,4.0,1650821308019874.0
-4.0,-3.0,-4.0,-4.0,1.0,-5.0,1.0,-5.0,1650821308034845.0
1.0,-1.0,-5.0,-7.0,-12.0,-9.0,-3.0,3.0,1650821308034845.0
0.0,-3.0,-2.0,0.0,-2.0,-3.0,-1.0,-6.0,1650821308035831.0
0.0,1.0,0.0,0.0,3.0,8.0,0.0,1.0,1650821308035831.0
1.0,1.0,-5.0,-1.0,3.0,9.0,3.0,1.0,1650821308056919.0
1.0,1.0,1.0,-1.0,-1.0,-2.0,-2.0,-1.0,1650821308056919.0
-2.0,-3.0,3.0,-1.0,-4.0,-1.0,-2.0,-3.0,1650821308057946.0
1.0,-4.0,0.0,3.0,1.0,-5.0,1.0,0.0,1650821308057946.0
4.0,-1.0,3.0,3.0,-3.0,-6.0,-4.0,-1.0,1650821308070931.0
-12.0,-2.0,-8.0,-6.0,-5.0,-5.0,-2.0,-1.0,1650821308070931.0
-2.0,0.0,-4.0,-2.0,-5.0,-4.0,-3.0,-4.0,1650821308080007.0
-2.0,-1.0,-1.0,-3.0,0.0,12.0,1.0,5.0,1650821308080007.0
-1.0,0.0,-3.0,0.0,4.0,6.0,2.0,-1.0,1650821308094830.0
1.0,1.0,6.0,4.0,5.0,-1.0,0.0,0.0,1650821308094830.0
2.0,0.0,-6.0,-4.0,2.0,-3.0,1.0,1.0,1650821308095831.0
-1.0,3.0,0.0,-1.0,-6.0,-9.0,-2.0,2.0,1650821308095831.0
-1.0,-3.0,1.0,-6.0,-9.0,2.0,-1.0,-4.0,1650821308124796.0
1.0,3.0,6.0,7.0,3.0,-3.0,-3.0,-1.0,1650821308124796.0
-2.0,-2.0,0.0,-4.0,2.0,2.0,2.0,0.0,1650821308125783.0
2.0,1.0,2.0,1.0,-3.0,-4.0,-2.0,-1.0,1650821308125783.0
-1.0,1.0,3.0,13.0,9.0,2.0,1.0,0.0,1650821308130770.0
2.0,4.0,4.0,2.0,-1.0,0.0,2.0,2.0,1650821308130770.0
2.0,0.0,1.0,1.0,6.0,10.0,1.0,-1.0,1650821308145882.0
-1.0,-2.0,-6.0,-6.0,-3.0,-3.0,0.0,-2.0,1650821308145882.0
-2.0,1.0,1.0,-2.0,-11.0,-21.0,-5.0,-4.0,1650821308154850.0
1.0,-1.0,-3.0,-1.0,-4.0,2.0,-2.0,2.0,1650821308154850.0
-1.0,-2.0,-6.0,-6.0,-3.0,2.0,1.0,0.0,1650821308155839.0
-2.0,-3.0,3.0,4.0,9.0,8.0,4.0,0.0,1650821308155839.0
3.0,1.0,2.0,2.0,4.0,3.0,0.0,1.0,1650821308177745.0
0.0,-2.0,1.0,0.0,-7.0,-8.0,-3.0,-2.0,1650821308177745.0
-5.0,-2.0,-7.0,-7.0,-11.0,-16.0,-6.0,-1.0,1650821308178914.0
2.0,2.0,0.0,0.0,3.0,5.0,-2.0,-1.0,1650821308178914.0
-4.0,-5.0,-4.0,1.0,-2.0,5.0,0.0,0.0,1650821308190915.0
10.0,-2.0,-6.0,-1.0,7.0,4.0,0.0,2.0,1650821308190915.0
-1.0,0.0,-1.0,0.0,10.0,10.0,4.0,1.0,1650821308199952.0
-2.0,-3.0,-5.0,0.0,-8.0,-10.0,-1.0,0.0,1650821308199952.0
-1.0,1.0,3.0,-1.0,-3.0,-1.0,-4.0,-2.0,1650821308213971.0
-1.0,-2.0,-1.0,-7.0,-5.0,3.0,2.0,0.0,1650821308213971.0
0.0,1.0,6.0,6.0,-4.0,-2.0,-1.0,-1.0,1650821308215901.0
-1.0,-5.0,-7.0,-5.0,0.0,-11.0,-2.0,-2.0,1650821308215901.0
0.0,0.0,4.0,4.0,0.0,6.0,0.0,0.0,1650821308236936.0
-4.0,-3.0,-8.0,-2.0,4.0,2.0,1.0,-2.0,1650821308236936.0
3.0,-1.0,2.0,-1.0,1.0,-2.0,0.0,-2.0,1650821308238878.0
-1.0,4.0,8.0,4.0,-3.0,-1.0,0.0,-1.0,1650821308238878.0
-1.0,-5.0,-7.0,-7.0,-5.0,-10.0,-2.0,0.0,1650821308250922.0
-2.0,0.0,3.0,7.0,3.0,1.0,-2.0,0.0,1650821308250922.0
0.0,0.0,3.0,-1.0,2.0,6.0,1.0,0.0,1650821308259813.0
0.0,2.0,5.0,3.0,1.0,-1.0,0.0,1.0,1650821308259813.0
-2.0,-3.0,-7.0,-7.0,-10.0,-14.0,-5.0,-3.0,1650821308274804.0
-2.0,-2.0,-10.0,-4.0,6.0,6.0,-2.0,-2.0,1650821308274804.0
1.0,2.0,0.0,5.0,6.0,8.0,1.0,0.0,1650821308275805.0
-1.0,-3.0,-5.0,-7.0,-1.0,2.0,4.0,2.0,1650821308275805.0
2.0,1.0,6.0,2.0,2.0,5.0,3.0,2.0,1650821308297212.0
-3.0,2.0,5.0,-1.0,-6.0,-10.0,0.0,0.0,1650821308297212.0
-2.0,-2.0,-9.0,-6.0,-18.0,-28.0,-10.0,-4.0,1650821308297903.0
0.0,0.0,3.0,3.0,10.0,18.0,4.0,0.0,1650821308297903.0
-3.0,-5.0,5.0,13.0,15.0,22.0,3.0,2.0,1650821308319108.0
2.0,0.0,-3.0,0.0,-6.0,-11.0,1.0,1.0,1650821308319108.0
1.0,3.0,10.0,5.0,-1.0,-4.0,0.0,-1.0,1650821308321037.0
-2.0,-3.0,-6.0,1.0,-3.0,-2.0,1.0,1.0,1650821308321037.0
-3.0,0.0,-12.0,-10.0,-3.0,-3.0,0.0,-1.0,1650821308334192.0
4.0,0.0,2.0,6.0,8.0,3.0,-2.0,-3.0,1650821308334192.0
-1.0,-5.0,2.0,-1.0,0.0,3.0,-1.0,-1.0,1650821308336120.0
0.0,1.0,1.0,3.0,-2.0,-5.0,-3.0,0.0,1650821308336120.0
-2.0,2.0,2.0,0.0,-1.0,2.0,2.0,1.0,1650821308357345.0
0.0,0.0,-1.0,-6.0,-6.0,-4.0,-1.0,-1.0,1650821308357345.0
-1.0,3.0,3.0,1.0,-2.0,-6.0,0.0,1.0,1650821308358340.0
2.0,2.0,3.0,1.0,1.0,0.0,-3.0,-1.0,1650821308358340.0
-3.0,-7.0,-13.0,-7.0,-4.0,-4.0,-1.0,-2.0,1650821308378903.0
-2.0,0.0,0.0,-2.0,-2.0,-1.0,0.0,-1.0,1650821308378903.0
1.0,2.0,1.0,5.0,5.0,16.0,5.0,2.0,1650821308380900.0
-3.0,2.0,-5.0,-5.0,4.0,6.0,1.0,0.0,1650821308380900.0
0.0,2.0,2.0,-2.0,1.0,-7.0,-2.0,-2.0,1650821308394012.0
-2.0,-1.0,0.0,-5.0,-11.0,-14.0,-3.0,-1.0,1650821308394012.0
0.0,-3.0,-7.0,-4.0,-1.0,0.0,0.0,-1.0,1650821308396010.0
-1.0,1.0,7.0,6.0,6.0,5.0,2.0,-1.0,1650821308396010.0
1.0,1.0,2.0,0.0,-4.0,-10.0,-1.0,-1.0,1650821308417170.0
-1.0,4.0,-1.0,-4.0,-1.0,0.0,-1.0,-1.0,1650821308417170.0
-2.0,-1.0,3.0,2.0,7.0,9.0,1.0,-1.0,1650821308418131.0
-2.0,-3.0,-8.0,-5.0,-2.0,-3.0,1.0,-1.0,1650821308418131.0
7.0,1.0,0.0,2.0,4.0,2.0,-1.0,1.0,1650821308439858.0
-12.0,-1.0,-2.0,-4.0,-11.0,-13.0,-2.0,-1.0,1650821308439858.0
3.0,0.0,3.0,0.0,-1.0,3.0,0.0,0.0,1650821308440868.0
-3.0,-4.0,-6.0,-3.0,6.0,10.0,0.0,1.0,1650821308440868.0
4.0,4.0,9.0,9.0,6.0,5.0,5.0,0.0,1650821308453847.0
-1.0,-2.0,-10.0,-8.0,-2.0,-6.0,-6.0,-2.0,1650821308453847.0
-3.0,-1.0,-9.0,-6.0,-12.0,-14.0,-4.0,-4.0,1650821308460869.0
-2.0,-3.0,-4.0,-2.0,-12.0,-5.0,-2.0,-2.0,1650821308460869.0
-4.0,-1.0,0.0,-1.0,9.0,12.0,2.0,0.0,1650821308477222.0
13.0,2.0,7.0,8.0,13.0,11.0,4.0,2.0,1650821308477222.0
-1.0,-1.0,1.0,8.0,2.0,-2.0,-2.0,1.0,1650821308478044.0
0.0,-1.0,-6.0,-18.0,-11.0,-11.0,-5.0,-3.0,1650821308478044.0
-2.0,-1.0,4.0,4.0,-14.0,-9.0,-4.0,-2.0,1650821308498877.0
-3.0,-1.0,1.0,-1.0,-4.0,2.0,1.0,2.0,1650821308498877.0
0.0,2.0,-2.0,-1.0,4.0,3.0,-1.0,-1.0,1650821308500875.0
-1.0,0.0,6.0,8.0,4.0,1.0,1.0,0.0,1650821308500875.0
-1.0,0.0,-3.0,-3.0,-7.0,-12.0,-4.0,1.0,1650821308513989.0
-1.0,-4.0,4.0,1.0,4.0,13.0,2.0,-1.0,1650821308513989.0
1.0,0.0,-4.0,-3.0,4.0,10.0,4.0,2.0,1650821308520973.0
0.0,2.0,5.0,2.0,-4.0,-2.0,1.0,0.0,1650821308520973.0
1.0,2.0,-8.0,-7.0,-1.0,-2.0,2.0,-2.0,1650821308537089.0
-2.0,-4.0,4.0,4.0,-5.0,-11.0,-2.0,-1.0,1650821308537089.0
-3.0,-4.0,0.0,-2.0,-5.0,-9.0,-5.0,-2.0,1650821308538046.0
0.0,-5.0,-6.0,-3.0,0.0,2.0,-3.0,-2.0,1650821308538046.0
-2.0,0.0,-4.0,-4.0,4.0,3.0,-2.0,0.0,1650821308559871.0
-1.0,0.0,-10.0,-7.0,-2.0,2.0,2.0,4.0,1650821308559871.0
-2.0,4.0,9.0,7.0,0.0,-2.0,-2.0,-5.0,1650821308560839.0
-2.0,-5.0,-11.0,-7.0,-8.0,-9.0,-1.0,-1.0,1650821308560839.0
7.0,-5.0,12.0,12.0,1.0,5.0,0.0,2.0,1650821308573956.0
1.0,2.0,-3.0,-2.0,10.0,10.0,3.0,1.0,1650821308573956.0
0.0,-2.0,0.0,2.0,-1.0,-16.0,-1.0,1.0,1650821308580939.0
0.0,5.0,0.0,-2.0,-5.0,9.0,0.0,0.0,1650821308580939.0
-2.0,-2.0,6.0,2.0,-2.0,6.0,1.0,-3.0,1650821308597302.0
-3.0,-5.0,-12.0,-10.0,-6.0,-10.0,-2.0,-2.0,1650821308597302.0
2.0,-4.0,-3.0,1.0,-3.0,-8.0,-3.0,1.0,1650821308598302.0
0.0,3.0,8.0,3.0,4.0,-2.0,-1.0,1.0,1650821308598302.0
0.0,4.0,7.0,8.0,4.0,10.0,4.0,1.0,1650821308619138.0
0.0,-1.0,-3.0,-3.0,7.0,15.0,3.0,0.0,1650821308619138.0
0.0,0.0,0.0,2.0,0.0,-2.0,-3.0,-1.0,1650821308621067.0
0.0,-4.0,-8.0,-6.0,-9.0,-11.0,-4.0,-5.0,1650821308621067.0
-2.0,-1.0,-6.0,-10.0,-13.0,-12.0,-7.0,-5.0,1650821308634147.0
0.0,0.0,-1.0,0.0,-1.0,-2.0,0.0,-1.0,1650821308634147.0
1.0,-1.0,2.0,5.0,10.0,11.0,4.0,1.0,1650821308640858.0
0.0,0.0,-1.0,5.0,13.0,13.0,3.0,2.0,1650821308640858.0
-2.0,-2.0,-8.0,-6.0,-6.0,-9.0,-4.0,-1.0,1650821308656849.0
-1.0,2.0,3.0,2.0,-6.0,-2.0,-2.0,-2.0,1650821308656849.0
-1.0,-1.0,1.0,2.0,-10.0,-4.0,0.0,-2.0,1650821308658855.0
-1.0,-3.0,4.0,0.0,-2.0,-6.0,-2.0,-1.0,1650821308658855.0
-3.0,0.0,-7.0,-1.0,2.0,-3.0,1.0,-1.0,1650821308678929.0
-3.0,-2.0,4.0,2.0,13.0,10.0,2.0,1.0,1650821308678929.0
5.0,2.0,1.0,2.0,8.0,15.0,3.0,1.0,1650821308680857.0
-1.0,0.0,12.0,14.0,-6.0,-12.0,-2.0,0.0,1650821308680857.0
-2.0,-2.0,-4.0,-14.0,-11.0,-12.0,-4.0,-2.0,1650821308693889.0
-4.0,1.0,1.0,9.0,-7.0,-2.0,0.0,-1.0,1650821308693889.0
-3.0,0.0,-3.0,-9.0,-4.0,-5.0,-3.0,-1.0,1650821308700870.0
1.0,-1.0,-5.0,2.0,11.0,13.0,4.0,1.0,1650821308700870.0
-1.0,-1.0,1.0,2.0,-1.0,6.0,2.0,0.0,1650821308717004.0
6.0,6.0,6.0,2.0,2.0,-13.0,-4.0,-1.0,1650821308717004.0
-5.0,-5.0,-7.0,-5.0,-6.0,8.0,1.0,1.0,1650821308718033.0
2.0,5.0,3.0,2.0,2.0,2.0,0.0,1.0,1650821308718033.0
0.0,2.0,-3.0,-6.0,1.0,-4.0,0.0,0.0,1650821308738860.0
-1.0,-1.0,-1.0,1.0,-7.0,-7.0,-2.0,-1.0,1650821308738860.0
5.0,0.0,-3.0,-1.0,-5.0,-10.0,-3.0,-2.0,1650821308740868.0
-2.0,-1.0,-2.0,-3.0,1.0,3.0,0.0,1.0,1650821308740868.0
0.0,1.0,-1.0,-5.0,11.0,14.0,6.0,0.0,1650821308753970.0
2.0,-3.0,-2.0,-1.0,2.0,2.0,0.0,0.0,1650821308753970.0
-3.0,-5.0,-14.0,-16.0,-8.0,-11.0,-4.0,-2.0,1650821308760970.0
-3.0,-4.0,-3.0,-3.0,-9.0,-2.0,-2.0,-2.0,1650821308760970.0
1.0,-2.0,1.0,4.0,0.0,-2.0,-2.0,1.0,1650821308777142.0
-4.0,-4.0,-6.0,-3.0,2.0,2.0,1.0,0.0,1650821308777142.0
-1.0,2.0,6.0,8.0,12.0,11.0,3.0,0.0,1650821308778074.0
1.0,-1.0,-3.0,-3.0,1.0,-11.0,-2.0,-1.0,1650821308778074.0
0.0,5.0,2.0,-5.0,-9.0,3.0,2.0,-1.0,1650821308798969.0
-1.0,-4.0,4.0,1.0,-4.0,5.0,-1.0,0.0,1650821308798969.0
-1.0,0.0,-6.0,-8.0,-6.0,-8.0,1.0,1.0,1650821308800897.0
2.0,0.0,-3.0,6.0,1.0,-4.0,-2.0,-2.0,1650821308800897.0
-1.0,-2.0,3.0,-1.0,3.0,-2.0,1.0,2.0,1650821308813482.0
1.0,1.0,5.0,6.0,5.0,8.0,2.0,-1.0,1650821308813482.0
-2.0,-3.0,-4.0,-3.0,3.0,-1.0,-1.0,-1.0,1650821308822518.0
-1.0,-1.0,-5.0,-16.0,-7.0,-3.0,-3.0,-2.0,1650821308822518.0
-1.0,-2.0,3.0,12.0,-7.0,-4.0,-3.0,-3.0,1650821308837301.0
-1.0,-2.0,-3.0,-3.0,-3.0,-11.0,-3.0,0.0,1650821308837301.0
-1.0,-3.0,6.0,4.0,2.0,4.0,-1.0,0.0,1650821308838301.0
-1.0,-2.0,-6.0,-5.0,6.0,9.0,2.0,2.0,1650821308838301.0
0.0,1.0,-4.0,-7.0,0.0,-4.0,-1.0,-1.0,1650821308859868.0
2.0,0.0,4.0,4.0,-2.0,0.0,0.0,0.0,1650821308859868.0
-2.0,0.0,3.0,5.0,4.0,4.0,1.0,1.0,1650821308860872.0
1.0,2.0,0.0,1.0,-1.0,0.0,1.0,-1.0,1650821308860872.0
5.0,4.0,5.0,5.0,6.0,-3.0,-1.0,0.0,1650821308872705.0
-11.0,-4.0,-9.0,-7.0,-2.0,-5.0,-1.0,-1.0,1650821308872705.0
0.0,-1.0,-3.0,-5.0,-13.0,-9.0,-4.0,-1.0,1650821308881625.0
-2.0,-4.0,5.0,2.0,3.0,3.0,0.0,-3.0,1650821308881625.0
-1.0,-4.0,-3.0,1.0,5.0,6.0,2.0,1.0,1650821308897300.0
4.0,0.0,-4.0,-5.0,1.0,0.0,0.0,0.0,1650821308897300.0
-1.0,-1.0,3.0,5.0,0.0,3.0,0.0,-1.0,1650821308898300.0
-1.0,-1.0,-2.0,-6.0,-9.0,-9.0,0.0,-1.0,1650821308898300.0
-1.0,-2.0,-4.0,-3.0,-7.0,-13.0,-5.0,-3.0,1650821308918998.0
-1.0,-1.0,-1.0,-2.0,1.0,3.0,-1.0,0.0,1650821308918998.0
-5.0,3.0,-4.0,1.0,5.0,-2.0,2.0,-1.0,1650821308920956.0
9.0,1.0,3.0,4.0,4.0,11.0,1.0,3.0,1650821308920956.0
2.0,-2.0,-7.0,-2.0,0.0,6.0,0.0,-2.0,1650821308933395.0
-1.0,1.0,4.0,7.0,-2.0,-2.0,2.0,1.0,1650821308933395.0
0.0,-1.0,0.0,-3.0,4.0,-1.0,3.0,-2.0,1650821308941957.0
-4.0,-1.0,1.0,0.0,-15.0,-12.0,-4.0,-1.0,1650821308941957.0
-4.0,-4.0,1.0,2.0,10.0,5.0,-1.0,2.0,1650821308956917.0
0.0,1.0,-1.0,0.0,1.0,7.0,2.0,-2.0,1650821308956917.0
2.0,1.0,0.0,6.0,1.0,2.0,-2.0,0.0,1650821308957914.0
-4.0,0.0,-2.0,-1.0,-1.0,-11.0,-2.0,0.0,1650821308957914.0
0.0,0.0,-6.0,-4.0,-6.0,1.0,0.0,0.0,1650821308979775.0
0.0,-4.0,1.0,-2.0,0.0,1.0,1.0,-2.0,1650821308979775.0
-1.0,0.0,4.0,1.0,1.0,-2.0,0.0,0.0,1650821308980725.0
1.0,4.0,-4.0,-6.0,-3.0,-7.0,0.0,0.0,1650821308980725.0
-2.0,-2.0,-6.0,-1.0,-2.0,-1.0,-2.0,-1.0,1650821308992760.0
0.0,4.0,4.0,5.0,7.0,9.0,-1.0,0.0,1650821308992760.0
1.0,2.0,-1.0,-4.0,1.0,4.0,3.0,1.0,1650821309009648.0
1.0,-1.0,4.0,4.0,0.0,-4.0,-2.0,0.0,1650821309009648.0
-2.0,-2.0,-3.0,-9.0,-11.0,-12.0,-2.0,-2.0,1650821309016735.0
0.0,-1.0,-4.0,-4.0,-8.0,-7.0,-1.0,0.0,1650821309016735.0
1.0,3.0,5.0,4.0,-1.0,5.0,-2.0,-2.0,1650821309018733.0
3.0,-4.0,-7.0,0.0,1.0,2.0,1.0,-1.0,1650821309018733.0
-6.0,-2.0,2.0,2.0,4.0,4.0,3.0,-2.0,1650821309047283.0
3.0,1.0,-1.0,-1.0,2.0,-2.0,-1.0,-1.0,1650821309047283.0
0.0,-1.0,-3.0,-11.0,-8.0,-5.0,-3.0,0.0,1650821309048284.0
-1.0,-1.0,3.0,6.0,6.0,2.0,0.0,0.0,1650821309048284.0
1.0,-1.0,-7.0,-10.0,-1.0,1.0,-1.0,-1.0,1650821309062331.0
-1.0,-2.0,-1.0,2.0,-7.0,-10.0,-3.0,0.0,1650821309062331.0
1.0,-3.0,-3.0,0.0,0.0,-4.0,0.0,0.0,1650821309063336.0
-1.0,1.0,2.0,4.0,14.0,31.0,8.0,2.0,1650821309063336.0
2.0,2.0,3.0,-1.0,0.0,0.0,1.0,-1.0,1650821309077269.0
-1.0,0.0,1.0,-2.0,-6.0,-13.0,-3.0,-1.0,1650821309077269.0
0.0,-3.0,-8.0,-5.0,-6.0,-7.0,-2.0,-1.0,1650821309078257.0
-3.0,-4.0,-1.0,-5.0,-8.0,-3.0,-3.0,-2.0,1650821309078257.0
-10.0,-4.0,1.0,2.0,8.0,7.0,2.0,0.0,1650821309099024.0
10.0,1.0,-5.0,-3.0,-5.0,-5.0,-1.0,0.0,1650821309099024.0
-4.0,-2.0,-1.0,-3.0,-5.0,-7.0,-3.0,-1.0,1650821309100952.0
0.0,2.0,-2.0,-3.0,-1.0,0.0,-2.0,1.0,1650821309100952.0
0.0,2.0,7.0,18.0,0.0,-3.0,-2.0,0.0,1650821309113394.0
-3.0,0.0,-2.0,-4.0,-1.0,2.0,0.0,-1.0,1650821309113394.0
0.0,-1.0,-3.0,-1.0,7.0,10.0,-1.0,1.0,1650821309122373.0
-1.0,5.0,2.0,2.0,5.0,-2.0,-1.0,1.0,1650821309122373.0
2.0,0.0,-6.0,-12.0,-20.0,-17.0,-5.0,-1.0,1650821309137365.0
2.0,1.0,6.0,9.0,8.0,12.0,2.0,-2.0,1650821309137365.0
-5.0,0.0,5.0,6.0,10.0,15.0,3.0,2.0,1650821309138307.0
-1.0,2.0,-2.0,-4.0,4.0,-1.0,2.0,-1.0,1650821309138307.0
1.0,-5.0,-11.0,-11.0,-12.0,-17.0,-7.0,-2.0,1650821309159317.0
-4.0,0.0,0.0,6.0,-8.0,-10.0,-4.0,-2.0,1650821309159317.0
3.0,-2.0,-2.0,-2.0,7.0,16.0,5.0,0.0,1650821309161246.0
0.0,-1.0,12.0,21.0,6.0,6.0,0.0,-2.0,1650821309161246.0
1.0,-1.0,-6.0,-12.0,2.0,-1.0,0.0,0.0,1650821309173561.0
-2.0,-3.0,-5.0,-10.0,-8.0,-8.0,-4.0,-2.0,1650821309173561.0
0.0,0.0,-7.0,-5.0,-4.0,-10.0,-5.0,-2.0,1650821309181544.0
-2.0,-2.0,-6.0,-9.0,-6.0,-4.0,-2.0,-1.0,1650821309181544.0
2.0,5.0,11.0,13.0,8.0,11.0,6.0,4.0,1650821309196569.0
-1.0,-1.0,0.0,-1.0,5.0,-5.0,-1.0,-1.0,1650821309196569.0
-1.0,-3.0,1.0,1.0,-2.0,7.0,0.0,0.0,1650821309198525.0
-1.0,0.0,-3.0,-6.0,-7.0,-3.0,-2.0,-2.0,1650821309198525.0
0.0,2.0,6.0,8.0,15.0,7.0,3.0,2.0,1650821309219798.0
-2.0,-2.0,-2.0,0.0,5.0,5.0,2.0,1.0,1650821309219798.0
0.0,2.0,1.0,-5.0,-11.0,-12.0,0.0,-1.0,1650821309220711.0
-3.0,-2.0,-9.0,-8.0,-7.0,-11.0,-5.0,-3.0,1650821309220711.0
-1.0,-5.0,-2.0,6.0,1.0,4.0,-4.0,-3.0,1650821309232787.0
-1.0,2.0,8.0,2.0,0.0,-2.0,0.0,0.0,1650821309232787.0
2.0,3.0,5.0,10.0,1.0,-1.0,0.0,-2.0,1650821309241818.0
-1.0,-3.0,-8.0,-10.0,3.0,10.0,1.0,0.0,1650821309241818.0
0.0,0.0,-4.0,-4.0,-7.0,-6.0,0.0,-2.0,1650821309256930.0
0.0,-4.0,-1.0,1.0,-3.0,-2.0,-2.0,0.0,1650821309256930.0
0.0,-1.0,-3.0,-5.0,-4.0,-4.0,0.0,-1.0,1650821309257926.0
-1.0,-5.0,-8.0,-10.0,-9.0,-13.0,-3.0,-1.0,1650821309257926.0
-2.0,2.0,7.0,18.0,11.0,15.0,4.0,1.0,1650821309287162.0
0.0,2.0,3.0,-1.0,6.0,12.0,2.0,-1.0,1650821309287162.0
3.0,3.0,-7.0,-16.0,-10.0,-12.0,-2.0,0.0,1650821309288131.0
-1.0,2.0,0.0,2.0,6.0,0.0,1.0,2.0,1650821309288131.0
0.0,-2.0,-1.0,-9.0,-1.0,6.0,-1.0,-1.0,1650821309302274.0
1.0,-3.0,-8.0,-2.0,0.0,3.0,1.0,2.0,1650821309302274.0
-3.0,-3.0,3.0,2.0,1.0,-4.0,-3.0,-2.0,1650821309303196.0
-1.0,-3.0,-2.0,4.0,-4.0,-11.0,-3.0,-1.0,1650821309303196.0
-2.0,-1.0,-3.0,-5.0,-5.0,-7.0,-3.0,-3.0,1650821309317245.0
0.0,4.0,-2.0,-11.0,-1.0,4.0,2.0,0.0,1650821309317245.0
-3.0,-3.0,5.0,14.0,-2.0,-6.0,-3.0,1.0,1650821309318210.0
0.0,-3.0,4.0,11.0,1.0,5.0,0.0,-1.0,1650821309318210.0
0.0,-1.0,-7.0,-7.0,13.0,12.0,1.0,-2.0,1650821309339292.0
-2.0,2.0,1.0,-4.0,-5.0,-12.0,-2.0,-1.0,1650821309339292.0
-1.0,-3.0,-7.0,-9.0,0.0,5.0,0.0,-1.0,1650821309341255.0
2.0,4.0,8.0,11.0,0.0,1.0,2.0,0.0,1650821309341255.0
-4.0,2.0,2.0,1.0,-9.0,-9.0,-2.0,-1.0,1650821309361934.0
6.0,-3.0,0.0,-3.0,9.0,5.0,-1.0,0.0,1650821309361934.0
-1.0,3.0,2.0,1.0,6.0,6.0,2.0,1.0,1650821309362866.0
1.0,0.0,4.0,-4.0,0.0,-1.0,0.0,-1.0,1650821309362866.0
1.0,0.0,2.0,5.0,-3.0,-1.0,1.0,-1.0,1650821309377277.0
-6.0,-7.0,-6.0,-1.0,-8.0,-8.0,-3.0,-3.0,1650821309377277.0
1.0,-2.0,2.0,8.0,1.0,-4.0,-3.0,-2.0,1650821309378280.0
4.0,0.0,3.0,-5.0,-2.0,8.0,1.0,0.0,1650821309378280.0
-4.0,6.0,0.0,-9.0,-2.0,-7.0,-3.0,0.0,1650821309399337.0
-2.0,-12.0,-13.0,3.0,-2.0,2.0,-1.0,-1.0,1650821309399337.0
-1.0,-1.0,0.0,2.0,4.0,3.0,1.0,1.0,1650821309401293.0
0.0,1.0,-2.0,-5.0,1.0,7.0,1.0,-1.0,1650821309401293.0
3.0,1.0,9.0,14.0,-1.0,2.0,0.0,2.0,1650821309421379.0
-2.0,8.0,6.0,8.0,6.0,-2.0,0.0,-4.0,1650821309421379.0
1.0,-1.0,-1.0,-7.0,-1.0,-1.0,-1.0,0.0,1650821309423372.0
-3.0,2.0,-5.0,-5.0,-7.0,-9.0,-3.0,-3.0,1650821309423372.0
-4.0,-8.0,-11.0,-14.0,-16.0,-19.0,-8.0,-2.0,1650821309435937.0
-1.0,-6.0,-6.0,-1.0,6.0,10.0,1.0,0.0,1650821309435937.0
0.0,-2.0,11.0,14.0,15.0,18.0,4.0,0.0,1650821309443479.0
-2.0,3.0,-15.0,-9.0,4.0,2.0,1.0,9.0,1650821309443479.0
2.0,2.0,5.0,-1.0,-3.0,-1.0,1.0,-4.0,1650821309459869.0
1.0,9.0,20.0,12.0,-12.0,-18.0,-4.0,-2.0,1650821309459869.0
-9.0,-20.0,-21.0,2.0,-10.0,-13.0,-6.0,-9.0,1650821309460869.0
3.0,0.0,-13.0,-8.0,6.0,1.0,2.0,18.0,1650821309460869.0
-5.0,-9.0,2.0,-6.0,6.0,14.0,4.0,-14.0,1650821309482296.0
3.0,-1.0,-27.0,-22.0,4.0,15.0,9.0,5.0,1650821309482296.0
-5.0,2.0,14.0,-3.0,-1.0,0.0,-2.0,-5.0,1650821309483296.0
4.0,4.0,21.0,22.0,-8.0,-10.0,-4.0,-4.0,1650821309483296.0
0.0,0.0,-18.0,-3.0,-6.0,-10.0,-1.0,10.0,1650821309496585.0
-1.0,11.0,18.0,12.0,-1.0,-5.0,-1.0,9.0,1650821309496585.0
7.0,-7.0,-17.0,-18.0,-2.0,-1.0,-2.0,-3.0,1650821309503420.0
-9.0,-2.0,7.0,1.0,-3.0,-4.0,-9.0,-17.0,1650821309503420.0
6.0,11.0,25.0,19.0,8.0,8.0,5.0,7.0,1650821309519573.0
-6.0,-13.0,-3.0,-12.0,-1.0,5.0,0.0,2.0,1650821309519573.0
5.0,13.0,-5.0,-10.0,-3.0,-3.0,4.0,13.0,1650821309520513.0
-7.0,-1.0,6.0,-7.0,-7.0,-9.0,-2.0,-1.0,1650821309520513.0
-5.0,-11.0,-17.0,-15.0,-11.0,-7.0,-6.0,-31.0,1650821309541598.0
1.0,-1.0,3.0,27.0,6.0,2.0,-3.0,1.0,1650821309541598.0
-8.0,-5.0,27.0,13.0,6.0,-3.0,3.0,21.0,1650821309543593.0
7.0,7.0,19.0,1.0,8.0,14.0,4.0,-23.0,1650821309543593.0
-12.0,-29.0,-46.0,-37.0,-9.0,2.0,-3.0,17.0,1650821309564817.0
8.0,8.0,9.0,13.0,-11.0,-11.0,0.0,-12.0,1650821309564817.0
3.0,-2.0,-8.0,8.0,2.0,-16.0,-13.0,-20.0,1650821309565802.0
-4.0,-3.0,13.0,-6.0,0.0,4.0,3.0,8.0,1650821309565802.0
11.0,35.0,-18.0,4.0,7.0,8.0,6.0,11.0,1650821309579005.0
-1.0,4.0,-34.0,-27.0,-4.0,-1.0,-4.0,0.0,1650821309579005.0
-4.0,1.0,14.0,12.0,-3.0,-2.0,-1.0,-1.0,1650821309580935.0
5.0,-10.0,-18.0,-1.0,2.0,-4.0,-1.0,7.0,1650821309580935.0
11.0,6.0,20.0,8.0,-1.0,-3.0,-2.0,1.0,1650821309602094.0
18.0,17.0,27.0,4.0,1.0,3.0,7.0,25.0,1650821309602094.0
-10.0,1.0,-17.0,15.0,-1.0,6.0,0.0,-37.0,1650821309603052.0
-7.0,-6.0,-24.0,-30.0,-8.0,-7.0,-6.0,-1.0,1650821309603052.0
2.0,1.0,25.0,2.0,1.0,-3.0,-6.0,-6.0,1650821309615938.0
-10.0,-15.0,-7.0,8.0,1.0,1.0,-1.0,-6.0,1650821309615938.0
-1.0,-14.0,-35.0,-10.0,-4.0,7.0,0.0,12.0,1650821309623428.0
4.0,1.0,4.0,23.0,7.0,13.0,3.0,-4.0,1650821309623428.0
2.0,12.0,0.0,6.0,2.0,-1.0,6.0,14.0,1650821309639605.0
-5.0,-13.0,-7.0,-16.0,-10.0,-10.0,-6.0,-2.0,1650821309639605.0
-4.0,-2.0,-4.0,-4.0,-8.0,-7.0,-2.0,-3.0,1650821309640557.0
-6.0,-7.0,-7.0,-4.0,-4.0,-5.0,-3.0,-1.0,1650821309640557.0
11.0,6.0,-7.0,-5.0,0.0,2.0,4.0,19.0,1650821309662335.0
-5.0,-6.0,21.0,-3.0,5.0,4.0,-1.0,-20.0,1650821309662335.0
7.0,-3.0,-9.0,-8.0,-3.0,0.0,3.0,14.0,1650821309663336.0
-2.0,13.0,2.0,1.0,-1.0,-1.0,2.0,-2.0,1650821309663336.0
-11.0,-19.0,-20.0,-7.0,-6.0,-10.0,-7.0,-6.0,1650821309676655.0
5.0,6.0,13.0,-10.0,-7.0,2.0,1.0,-4.0,1650821309676655.0
-8.0,2.0,13.0,35.0,19.0,16.0,-2.0,0.0,1650821309683452.0
1.0,-5.0,-10.0,-6.0,10.0,-6.0,0.0,4.0,1650821309683452.0
-7.0,1.0,15.0,0.0,-11.0,-8.0,-9.0,14.0,1650821309699477.0
-4.0,-2.0,-15.0,13.0,7.0,8.0,-3.0,-34.0,1650821309699477.0
0.0,7.0,1.0,-34.0,-14.0,-7.0,1.0,-18.0,1650821309700409.0
-2.0,-11.0,3.0,6.0,13.0,6.0,7.0,13.0,1650821309700409.0
0.0,9.0,14.0,13.0,4.0,-2.0,-2.0,-13.0,1650821309722367.0
-6.0,-5.0,7.0,4.0,-8.0,-13.0,-8.0,5.0,1650821309722367.0
0.0,2.0,20.0,-16.0,-8.0,-4.0,1.0,12.0,1650821309723348.0
17.0,26.0,20.0,19.0,-4.0,2.0,2.0,-5.0,1650821309723348.0
-5.0,-1.0,26.0,7.0,19.0,13.0,2.0,-14.0,1650821309736652.0
0.0,-9.0,-17.0,-8.0,7.0,6.0,10.0,19.0,1650821309736652.0
5.0,14.0,15.0,15.0,-2.0,-8.0,1.0,-1.0,1650821309742705.0
-6.0,-8.0,-11.0,-37.0,-24.0,-10.0,-5.0,9.0,1650821309742705.0
6.0,-14.0,-8.0,11.0,14.0,7.0,-3.0,-16.0,1650821309759743.0
-4.0,21.0,-2.0,2.0,5.0,1.0,-2.0,0.0,1650821309759743.0
2.0,1.0,-16.0,-10.0,-1.0,-3.0,-3.0,7.0,1650821309760681.0
-2.0,-4.0,41.0,7.0,-7.0,-10.0,-2.0,-8.0,1650821309760681.0
-2.0,-11.0,-47.0,-5.0,-3.0,4.0,1.0,3.0,1650821309781475.0
1.0,-5.0,10.0,14.0,9.0,6.0,1.0,17.0,1650821309781475.0
-10.0,3.0,2.0,-6.0,0.0,1.0,0.0,-33.0,1650821309783404.0
-11.0,-6.0,-14.0,3.0,-6.0,-8.0,-11.0,-31.0,1650821309783404.0
11.0,-8.0,15.0,6.0,1.0,8.0,10.0,18.0,1650821309795387.0
-11.0,9.0,-6.0,-7.0,-11.0,-15.0,-9.0,-10.0,1650821309795387.0
8.0,-13.0,-35.0,-22.0,9.0,20.0,13.0,24.0,1650821309804805.0
-4.0,-4.0,22.0,33.0,12.0,7.0,4.0,-4.0,1650821309804805.0
2.0,18.0,34.0,1.0,-2.0,0.0,3.0,-6.0,1650821309819068.0
-14.0,-22.0,-22.0,-9.0,-1.0,-4.0,0.0,4.0,1650821309819068.0
13.0,0.0,-22.0,-6.0,-9.0,-6.0,-4.0,4.0,1650821309820996.0
-2.0,22.0,32.0,13.0,-6.0,-5.0,-1.0,2.0,1650821309820996.0
-6.0,-30.0,-28.0,-11.0,8.0,7.0,1.0,0.0,1650821309841861.0
-5.0,-10.0,2.0,5.0,-4.0,-4.0,-4.0,4.0,1650821309841861.0
1.0,4.0,-1.0,3.0,0.0,-4.0,-5.0,0.0,1650821309843866.0
7.0,4.0,-17.0,-19.0,1.0,6.0,4.0,3.0,1650821309843866.0
1.0,3.0,11.0,13.0,-4.0,-4.0,7.0,9.0,1650821309855921.0
3.0,17.0,-13.0,-15.0,-8.0,-3.0,2.0,1.0,1650821309855921.0
-1.0,-3.0,12.0,6.0,2.0,-9.0,-2.0,4.0,1650821309864918.0
0.0,2.0,-26.0,-8.0,-4.0,6.0,-3.0,-5.0,1650821309864918.0
-7.0,-5.0,14.0,2.0,4.0,4.0,-4.0,4.0,1650821309879867.0
-2.0,-9.0,-16.0,-9.0,-1.0,-3.0,-6.0,-12.0,1650821309879867.0
10.0,15.0,8.0,6.0,-3.0,-4.0,4.0,34.0,1650821309880856.0
-13.0,-13.0,-27.0,-14.0,-5.0,-1.0,-3.0,-29.0,1650821309880856.0
0.0,19.0,37.0,10.0,5.0,2.0,4.0,4.0,1650821309902104.0
2.0,-9.0,-31.0,-8.0,5.0,8.0,4.0,-1.0,1650821309902104.0
3.0,9.0,27.0,7.0,-6.0,-5.0,-8.0,-2.0,1650821309903057.0
-4.0,-26.0,-12.0,6.0,-9.0,-22.0,-4.0,22.0,1650821309903057.0
-1.0,-5.0,-35.0,-9.0,4.0,9.0,-5.0,-26.0,1650821309916001.0
5.0,3.0,-1.0,-5.0,-3.0,9.0,5.0,4.0,1650821309916001.0
-4.0,-6.0,-5.0,-20.0,7.0,2.0,0.0,1.0,1650821309924802.0
-1.0,-4.0,8.0,13.0,3.0,-1.0,-3.0,-16.0,1650821309924802.0
-2.0,5.0,-7.0,-1.0,-10.0,-16.0,-6.0,-6.0,1650821309938877.0
8.0,5.0,23.0,11.0,-6.0,-9.0,7.0,12.0,1650821309938877.0
-9.0,-10.0,-40.0,-26.0,-9.0,3.0,-3.0,-6.0,1650821309940882.0
8.0,10.0,17.0,6.0,13.0,19.0,7.0,12.0,1650821309940882.0
-2.0,-8.0,1.0,7.0,-2.0,-6.0,-3.0,-1.0,1650821309961922.0
0.0,-13.0,-5.0,0.0,1.0,-4.0,-2.0,-4.0,1650821309961922.0
-5.0,-3.0,16.0,8.0,-4.0,-4.0,0.0,-11.0,1650821309963851.0
2.0,-2.0,-4.0,-3.0,-1.0,3.0,2.0,13.0,1650821309963851.0
7.0,9.0,17.0,5.0,-2.0,7.0,11.0,22.0,1650821309975818.0
-8.0,0.0,-5.0,-4.0,8.0,7.0,1.0,-22.0,1650821309975818.0
7.0,-1.0,2.0,3.0,1.0,-3.0,1.0,-3.0,1650821309985005.0
-1.0,-2.0,-9.0,3.0,-7.0,-15.0,-6.0,-1.0,1650821309985005.0
-1.0,1.0,-14.0,-20.0,-15.0,-5.0,-7.0,2.0,1650821309998991.0
-2.0,-6.0,-9.0,14.0,11.0,13.0,0.0,-1.0,1650821309998991.0
-4.0,0.0,1.0,9.0,4.0,14.0,4.0,-3.0,1650821310000923.0
1.0,9.0,6.0,-4.0,10.0,4.0,2.0,2.0,1650821310000923.0
-3.0,-4.0,2.0,2.0,-3.0,-11.0,-3.0,-4.0,1650821310022325.0
2.0,1.0,17.0,-2.0,-8.0,-19.0,-2.0,3.0,1650821310022325.0
-3.0,3.0,2.0,4.0,1.0,10.0,0.0,-8.0,1650821310023331.0
0.0,-9.0,-26.0,-22.0,0.0,14.0,1.0,5.0,1650821310023331.0
0.0,7.0,6.0,4.0,2.0,-8.0,-1.0,-4.0,1650821310035923.0
1.0,4.0,9.0,0.0,-3.0,-4.0,-4.0,1.0,1650821310035923.0
-4.0,6.0,6.0,2.0,-3.0,-9.0,-6.0,-11.0,1650821310044807.0
7.0,-5.0,-18.0,6.0,-3.0,-4.0,8.0,24.0,1650821310044807.0
0.0,15.0,0.0,-5.0,-2.0,3.0,-2.0,-8.0,1650821310058928.0
-2.0,-11.0,-6.0,-8.0,2.0,7.0,0.0,0.0,1650821310058928.0
1.0,2.0,11.0,8.0,8.0,5.0,7.0,5.0,1650821310060918.0
-6.0,1.0,6.0,-1.0,-1.0,1.0,-6.0,-24.0,1650821310060918.0
-3.0,-16.0,-22.0,-2.0,4.0,3.0,0.0,-3.0,1650821310082090.0
6.0,10.0,26.0,23.0,-6.0,-5.0,-1.0,12.0,1650821310082090.0
-3.0,-8.0,4.0,-9.0,-6.0,-9.0,-3.0,-1.0,1650821310083025.0
-4.0,-15.0,-17.0,6.0,5.0,0.0,-4.0,-1.0,1650821310083025.0
-4.0,9.0,5.0,-5.0,-11.0,-13.0,-9.0,-10.0,1650821310095896.0
-5.0,2.0,0.0,1.0,9.0,22.0,6.0,0.0,1650821310095896.0
8.0,-7.0,-11.0,-11.0,-3.0,5.0,8.0,10.0,1650821310104845.0
1.0,15.0,27.0,4.0,1.0,-10.0,-3.0,0.0,1650821310104845.0
-3.0,-14.0,-6.0,-8.0,-9.0,-12.0,-5.0,-7.0,1650821310119125.0
0.0,6.0,-5.0,-15.0,-7.0,-2.0,0.0,3.0,1650821310119125.0
-3.0,-2.0,0.0,23.0,11.0,10.0,4.0,-2.0,1650821310121054.0
1.0,5.0,12.0,-7.0,0.0,-3.0,-7.0,-9.0,1650821310121054.0
0.0,1.0,-3.0,5.0,7.0,8.0,8.0,6.0,1650821310142238.0
10.0,11.0,32.0,16.0,3.0,3.0,6.0,18.0,1650821310142238.0
-9.0,-15.0,-32.0,-16.0,-11.0,-12.0,-8.0,-8.0,1650821310143145.0
1.0,-6.0,3.0,-10.0,-12.0,-5.0,3.0,12.0,1650821310143145.0
-8.0,-1.0,-11.0,-5.0,7.0,2.0,-5.0,-33.0,1650821310155948.0
-3.0,4.0,2.0,-5.0,1.0,7.0,3.0,4.0,1650821310155948.0
4.0,1.0,20.0,9.0,6.0,6.0,3.0,4.0,1650821310164804.0
-5.0,-8.0,6.0,-2.0,-8.0,-14.0,-3.0,-5.0,1650821310164804.0
-7.0,-7.0,-5.0,-3.0,-5.0,-3.0,-4.0,5.0,1650821310178874.0
6.0,-11.0,-5.0,1.0,1.0,5.0,1.0,2.0,1650821310178874.0
-3.0,6.0,-27.0,0.0,6.0,3.0,1.0,-5.0,1650821310180872.0
2.0,12.0,23.0,2.0,2.0,0.0,-1.0,1.0,1650821310180872.0
-2.0,-17.0,-30.0,-11.0,-10.0,-7.0,-4.0,6.0,1650821310200932.0
1.0,15.0,25.0,-5.0,-9.0,-17.0,-8.0,-10.0,1650821310200932.0
2.0,-9.0,4.0,-2.0,1.0,6.0,1.0,10.0,1650821310209909.0
5.0,8.0,-6.0,10.0,8.0,11.0,11.0,8.0,1650821310209909.0
1.0,11.0,12.0,1.0,1.0,-8.0,-6.0,-6.0,1650821310224016.0
-4.0,-8.0,-25.0,8.0,-2.0,-2.0,1.0,2.0,1650821310224016.0
-8.0,-14.0,-13.0,-13.0,-2.0,-6.0,-8.0,-12.0,1650821310226014.0
4.0,4.0,-1.0,11.0,7.0,10.0,7.0,8.0,1650821310226014.0
2.0,-2.0,9.0,6.0,-1.0,0.0,-1.0,1.0,1650821310239203.0
-1.0,1.0,-32.0,-26.0,-6.0,-8.0,-7.0,-4.0,1650821310239203.0
2.0,6.0,14.0,4.0,-10.0,1.0,2.0,2.0,1650821310241156.0
-3.0,-5.0,-14.0,-2.0,-5.0,-4.0,0.0,3.0,1650821310241156.0
0.0,0.0,24.0,5.0,15.0,14.0,4.0,6.0,1650821310262298.0
-3.0,-7.0,-24.0,-7.0,0.0,-2.0,-6.0,-10.0,1650821310262298.0
3.0,3.0,17.0,16.0,0.0,-9.0,-1.0,6.0,1650821310263250.0
-3.0,20.0,-10.0,-8.0,-5.0,-1.0,-8.0,-9.0,1650821310263250.0
2.0,-2.0,0.0,7.0,-4.0,0.0,4.0,7.0,1650821310284249.0
1.0,-6.0,5.0,6.0,7.0,2.0,4.0,0.0,1650821310284249.0
3.0,22.0,36.0,0.0,2.0,3.0,0.0,-3.0,1650821310286205.0
-2.0,-19.0,-22.0,2.0,-7.0,-8.0,-4.0,-2.0,1650821310286205.0
3.0,7.0,-7.0,-14.0,-4.0,-8.0,0.0,3.0,1650821310299273.0
0.0,1.0,8.0,4.0,-1.0,10.0,0.0,-3.0,1650821310299273.0
-2.0,-6.0,-21.0,-13.0,5.0,8.0,0.0,-1.0,1650821310301293.0
2.0,2.0,9.0,2.0,11.0,8.0,2.0,5.0,1650821310301293.0
2.0,-2.0,1.0,9.0,-2.0,-2.0,5.0,1.0,1650821310321923.0
-12.0,-10.0,4.0,-12.0,-17.0,-12.0,-11.0,-11.0,1650821310321923.0
9.0,0.0,-2.0,4.0,3.0,-2.0,1.0,7.0,1650821310323894.0
-1.0,-4.0,-9.0,-8.0,-1.0,-3.0,0.0,-4.0,1650821310323894.0
3.0,12.0,5.0,0.0,-6.0,4.0,2.0,8.0,1650821310344796.0
0.0,6.0,6.0,3.0,14.0,4.0,2.0,-5.0,1650821310344796.0
-5.0,-1.0,5.0,3.0,9.0,3.0,-5.0,-7.0,1650821310345794.0
-1.0,-14.0,-27.0,-10.0,-5.0,3.0,3.0,-1.0,1650821310345794.0
0.0,7.0,17.0,12.0,4.0,-2.0,-4.0,-1.0,1650821310358931.0
4.0,1.0,-4.0,-16.0,-15.0,-10.0,1.0,5.0,1650821310358931.0
-1.0,7.0,26.0,30.0,-5.0,-16.0,-7.0,-9.0,1650821310365977.0
0.0,-2.0,-4.0,-10.0,1.0,11.0,5.0,0.0,1650821310365977.0
-2.0,-12.0,-8.0,-12.0,1.0,10.0,2.0,-1.0,1650821310382173.0
1.0,7.0,5.0,12.0,2.0,-2.0,1.0,4.0,1650821310382173.0
-5.0,-8.0,13.0,-5.0,2.0,-8.0,-7.0,0.0,1650821310383173.0
-2.0,-18.0,-29.0,0.0,-8.0,-4.0,-4.0,-8.0,1650821310383173.0
-1.0,-3.0,3.0,-7.0,-2.0,1.0,1.0,5.0,1650821310404805.0
2.0,9.0,11.0,1.0,2.0,-2.0,-2.0,-3.0,1650821310404805.0
1.0,7.0,5.0,-1.0,-1.0,5.0,2.0,-4.0,1650821310405812.0
2.0,7.0,24.0,16.0,5.0,5.0,6.0,7.0,1650821310405812.0
-6.0,-10.0,-14.0,-5.0,-2.0,-8.0,-8.0,-6.0,1650821310418804.0
-5.0,-1.0,-8.0,-2.0,10.0,12.0,4.0,-4.0,1650821310418804.0
7.0,3.0,-4.0,-5.0,-4.0,-3.0,-3.0,-5.0,1650821310425778.0
0.0,5.0,2.0,-6.0,-8.0,-8.0,1.0,6.0,1650821310425778.0
3.0,-3.0,1.0,1.0,2.0,5.0,2.0,-1.0,1650821310441930.0
0.0,2.0,18.0,14.0,-1.0,-8.0,-1.0,1.0,1650821310441930.0
-3.0,-7.0,-14.0,4.0,-2.0,8.0,3.0,1.0,1650821310443888.0
0.0,-7.0,2.0,-4.0,1.0,0.0,-1.0,0.0,1650821310443888.0
1.0,-5.0,4.0,8.0,6.0,3.0,4.0,8.0,1650821310464339.0
-3.0,2.0,-10.0,-6.0,-2.0,-5.0,-4.0,-4.0,1650821310464339.0
-3.0,-9.0,-30.0,-17.0,-1.0,6.0,4.0,4.0,1650821310466290.0
-6.0,-10.0,8.0,24.0,3.0,-7.0,-6.0,-4.0,1650821310466290.0
4.0,4.0,-9.0,-13.0,-8.0,-4.0,-2.0,-8.0,1650821310478378.0
6.0,4.0,-6.0,-15.0,1.0,6.0,6.0,11.0,1650821310478378.0
-2.0,-14.0,-14.0,11.0,2.0,-1.0,-3.0,0.0,1650821310485926.0
-2.0,12.0,13.0,-8.0,-2.0,-3.0,-1.0,-5.0,1650821310485926.0
0.0,-3.0,-6.0,-1.0,-2.0,-6.0,-1.0,4.0,1650821310502104.0
0.0,-2.0,3.0,-3.0,4.0,-4.0,-3.0,-4.0,1650821310502104.0
0.0,13.0,20.0,3.0,-1.0,10.0,2.0,-2.0,1650821310503056.0
-1.0,-2.0,-2.0,3.0,1.0,2.0,-2.0,0.0,1650821310503056.0
4.0,6.0,13.0,2.0,-4.0,-5.0,3.0,3.0,1650821310524319.0
-1.0,-2.0,12.0,5.0,-4.0,-7.0,-4.0,1.0,1650821310524319.0
-12.0,-3.0,-23.0,-25.0,-6.0,-8.0,0.0,-6.0,1650821310526268.0
9.0,0.0,1.0,11.0,9.0,9.0,-2.0,-4.0,1650821310526268.0
-2.0,10.0,7.0,-4.0,2.0,2.0,-2.0,-5.0,1650821310538867.0
1.0,-2.0,3.0,11.0,-4.0,-3.0,1.0,5.0,1650821310538867.0
2.0,-8.0,-12.0,-2.0,0.0,-3.0,2.0,7.0,1650821310545877.0
-2.0,16.0,6.0,-15.0,-3.0,-2.0,-3.0,-3.0,1650821310545877.0
-3.0,-4.0,-14.0,-6.0,-8.0,-7.0,-3.0,-7.0,1650821310561960.0
-1.0,-10.0,2.0,1.0,-5.0,-1.0,0.0,2.0,1650821310561960.0
1.0,11.0,22.0,-3.0,11.0,4.0,4.0,1.0,1650821310563898.0
-2.0,-4.0,-1.0,8.0,-2.0,5.0,1.0,1.0,1650821310563898.0
-3.0,-1.0,15.0,8.0,2.0,5.0,-2.0,-6.0,1650821310584718.0
0.0,-7.0,-12.0,2.0,-1.0,-3.0,0.0,5.0,1650821310584718.0
2.0,3.0,4.0,-1.0,-4.0,-9.0,-2.0,-6.0,1650821310585834.0
3.0,-7.0,-16.0,-11.0,0.0,-3.0,6.0,12.0,1650821310585834.0
-2.0,5.0,2.0,-1.0,2.0,1.0,-1.0,-3.0,1650821310598866.0
-3.0,-17.0,-22.0,-4.0,-3.0,3.0,-3.0,-1.0,1650821310598866.0
-1.0,5.0,8.0,0.0,-16.0,-11.0,-5.0,-4.0,1650821310605923.0
-2.0,2.0,-8.0,-12.0,4.0,0.0,0.0,-4.0,1650821310605923.0
-3.0,-2.0,-1.0,17.0,8.0,10.0,0.0,14.0,1650821310621408.0
5.0,4.0,-3.0,5.0,6.0,1.0,-1.0,-13.0,1650821310621408.0
6.0,3.0,6.0,2.0,-5.0,-4.0,-2.0,8.0,1650821310623336.0
-5.0,-9.0,-13.0,-8.0,-11.0,-5.0,-2.0,1.0,1650821310623336.0
-5.0,-3.0,-12.0,-17.0,-11.0,-14.0,-8.0,-21.0,1650821310644461.0
2.0,4.0,9.0,15.0,5.0,5.0,3.0,5.0,1650821310644461.0
-5.0,-6.0,-4.0,-7.0,4.0,11.0,2.0,-4.0,1650821310645399.0
4.0,1.0,5.0,12.0,1.0,2.0,1.0,3.0,1650821310645399.0
2.0,-6.0,1.0,-1.0,12.0,3.0,5.0,6.0,1650821310658423.0
-3.0,-2.0,-17.0,-7.0,-8.0,-11.0,-3.0,-6.0,1650821310658423.0
-4.0,0.0,-2.0,9.0,3.0,5.0,0.0,0.0,1650821310673028.0
-1.0,3.0,-1.0,-13.0,-5.0,0.0,-2.0,0.0,1650821310673028.0
1.0,-9.0,-5.0,-5.0,4.0,2.0,2.0,3.0,1650821310681916.0
-3.0,3.0,-4.0,-1.0,-7.0,-7.0,-7.0,-12.0,1650821310681916.0
-4.0,-4.0,-7.0,-6.0,-8.0,-7.0,-1.0,6.0,1650821310683891.0
11.0,7.0,1.0,0.0,-3.0,-5.0,-4.0,-1.0,1650821310683891.0
-3.0,-5.0,-1.0,8.0,5.0,2.0,-1.0,-4.0,1650821310703998.0
1.0,5.0,18.0,-9.0,5.0,5.0,-1.0,6.0,1650821310703998.0
-1.0,-4.0,-3.0,5.0,-1.0,1.0,2.0,-2.0,1650821310706023.0
-2.0,10.0,12.0,2.0,3.0,4.0,1.0,2.0,1650821310706023.0
4.0,5.0,-4.0,-1.0,-3.0,-1.0,4.0,6.0,1650821310718418.0
1.0,4.0,8.0,2.0,1.0,1.0,-2.0,0.0,1650821310718418.0
-3.0,-8.0,-15.0,-16.0,-2.0,-8.0,-6.0,-4.0,1650821310726786.0
-5.0,-9.0,10.0,22.0,1.0,-7.0,-1.0,-10.0,1650821310726786.0
1.0,7.0,5.0,-8.0,1.0,14.0,4.0,7.0,1650821310741906.0
-2.0,-3.0,-4.0,5.0,4.0,10.0,1.0,-1.0,1650821310741906.0
7.0,9.0,2.0,-6.0,-1.0,-6.0,4.0,7.0,1650821310743846.0
-1.0,3.0,4.0,-9.0,-7.0,-14.0,-6.0,-3.0,1650821310743846.0
-6.0,-3.0,-7.0,8.0,-1.0,4.0,-2.0,-6.0,1650821310763929.0
2.0,2.0,9.0,-1.0,2.0,2.0,3.0,-1.0,1650821310763929.0
0.0,-3.0,2.0,8.0,6.0,8.0,0.0,-8.0,1650821310765857.0
3.0,5.0,8.0,0.0,5.0,4.0,11.0,17.0,1650821310765857.0
2.0,-3.0,-10.0,-8.0,-17.0,-16.0,-7.0,-5.0,1650821310777863.0
-2.0,3.0,3.0,-4.0,5.0,5.0,2.0,3.0,1650821310777863.0
0.0,-5.0,-7.0,7.0,-2.0,-2.0,-3.0,0.0,1650821310786866.0
-1.0,-3.0,-1.0,3.0,5.0,2.0,2.0,-4.0,1650821310786866.0
-11.0,4.0,-3.0,1.0,-4.0,-4.0,-2.0,-6.0,1650821310802037.0
6.0,2.0,-8.0,-15.0,-6.0,-5.0,0.0,8.0,1650821310802037.0
6.0,3.0,11.0,11.0,3.0,6.0,5.0,29.0,1650821310803007.0
-9.0,-9.0,3.0,1.0,-4.0,-7.0,-7.0,-36.0,1650821310803007.0
-1.0,7.0,-6.0,-9.0,-6.0,-1.0,-3.0,-3.0,1650821310824105.0
-7.0,-10.0,-10.0,-4.0,1.0,10.0,-4.0,-14.0,1650821310824105.0
5.0,2.0,14.0,32.0,22.0,11.0,7.0,11.0,1650821310826035.0
-4.0,-1.0,-14.0,-36.0,-15.0,-10.0,-5.0,0.0,1650821310826035.0
2.0,-10.0,-4.0,18.0,-1.0,-14.0,-4.0,1.0,1650821310837987.0
-6.0,3.0,-4.0,0.0,-4.0,-7.0,-4.0,-7.0,1650821310837987.0
1.0,5.0,-8.0,-13.0,-12.0,3.0,-3.0,-6.0,1650821310846916.0
3.0,5.0,15.0,14.0,10.0,9.0,4.0,2.0,1650821310846916.0
2.0,-6.0,-3.0,-7.0,6.0,4.0,3.0,1.0,1650821310862146.0
1.0,-7.0,-1.0,4.0,-2.0,-6.0,-1.0,4.0,1650821310862146.0
-5.0,1.0,10.0,-2.0,-5.0,-6.0,-4.0,-11.0,1650821310863104.0
-2.0,3.0,-3.0,2.0,3.0,7.0,1.0,1.0,1650821310863104.0
-2.0,-3.0,1.0,-2.0,-3.0,-4.0,-3.0,1.0,1650821310883993.0
3.0,5.0,4.0,11.0,-1.0,-9.0,6.0,13.0,1650821310883993.0
-4.0,6.0,10.0,0.0,-1.0,3.0,-3.0,-6.0,1650821310886017.0
5.0,-14.0,-10.0,-13.0,0.0,10.0,0.0,15.0,1650821310886017.0
-4.0,8.0,12.0,11.0,5.0,4.0,-1.0,-21.0,1650821310898394.0
2.0,-5.0,-3.0,3.0,0.0,-3.0,-2.0,-3.0,1650821310898394.0
5.0,2.0,2.0,-5.0,0.0,-9.0,0.0,-1.0,1650821310906796.0
-1.0,9.0,-2.0,1.0,-1.0,-2.0,-2.0,3.0,1650821310906796.0
-1.0,-9.0,1.0,1.0,-4.0,2.0,-2.0,7.0,1650821310922042.0
-1.0,-1.0,0.0,-7.0,3.0,2.0,1.0,-2.0,1650821310922042.0
-7.0,-13.0,-16.0,-10.0,-5.0,-7.0,-8.0,-3.0,1650821310922998.0
0.0,2.0,0.0,7.0,-2.0,-1.0,-1.0,-2.0,1650821310922998.0
2.0,6.0,6.0,-3.0,-1.0,1.0,2.0,4.0,1650821310952200.0
-2.0,-1.0,-1.0,2.0,2.0,1.0,2.0,-2.0,1650821310952200.0
-1.0,1.0,-7.0,-6.0,-2.0,2.0,-2.0,6.0,1650821310953191.0
1.0,-6.0,2.0,9.0,5.0,5.0,5.0,-2.0,1650821310953191.0
2.0,0.0,-5.0,-8.0,-5.0,-10.0,-4.0,2.0,1650821310958180.0
-2.0,-2.0,-1.0,-6.0,-1.0,0.0,-2.0,-2.0,1650821310958180.0
1.0,4.0,-1.0,-2.0,-3.0,9.0,3.0,-2.0,1650821310967156.0
-2.0,2.0,4.0,3.0,-1.0,-5.0,-8.0,-7.0,1650821310967156.0
3.0,1.0,-2.0,4.0,3.0,2.0,3.0,5.0,1650821310981390.0
-3.0,-8.0,-11.0,-5.0,0.0,1.0,-1.0,-3.0,1650821310981390.0
-2.0,5.0,-3.0,-9.0,2.0,-1.0,1.0,-1.0,1650821310988372.0
0.0,-10.0,1.0,-2.0,-6.0,-2.0,-5.0,-3.0,1650821310988372.0
3.0,-7.0,-23.0,-14.0,-2.0,0.0,5.0,7.0,1650821311004867.0
0.0,19.0,26.0,5.0,-4.0,-6.0,-2.0,-1.0,1650821311004867.0
-2.0,-1.0,-1.0,-5.0,-2.0,-9.0,-4.0,-10.0,1650821311005812.0
-8.0,-9.0,-9.0,4.0,6.0,10.0,3.0,1.0,1650821311005812.0
3.0,4.0,8.0,6.0,5.0,6.0,0.0,2.0,1650821311017836.0
2.0,-6.0,-6.0,-6.0,-1.0,-4.0,-8.0,12.0,1650821311017836.0
-7.0,1.0,5.0,4.0,-6.0,-4.0,5.0,-24.0,1650821311026845.0
9.0,-7.0,-9.0,-3.0,-1.0,-4.0,-1.0,10.0,1650821311026845.0
5.0,4.0,1.0,4.0,-3.0,1.0,-2.0,-2.0,1650821311041825.0
-3.0,-1.0,-2.0,-4.0,-3.0,0.0,0.0,0.0,1650821311041825.0
2.0,-3.0,9.0,12.0,16.0,9.0,12.0,11.0,1650821311043817.0
-3.0,3.0,-6.0,-7.0,-3.0,-4.0,-6.0,-5.0,1650821311043817.0
0.0,-2.0,-9.0,-8.0,-4.0,9.0,6.0,3.0,1650821311064868.0
-4.0,-2.0,0.0,-1.0,-10.0,1.0,-5.0,-5.0,1650821311064868.0
0.0,-2.0,-5.0,-1.0,-3.0,-12.0,-5.0,1.0,1650821311065868.0
-4.0,8.0,8.0,1.0,-2.0,-7.0,-1.0,-6.0,1650821311065868.0
-3.0,-12.0,-3.0,5.0,2.0,-4.0,-4.0,1.0,1650821311078396.0
2.0,4.0,3.0,-5.0,6.0,10.0,4.0,-4.0,1650821311078396.0
0.0,-6.0,-8.0,3.0,-6.0,-5.0,-5.0,-2.0,1650821311087481.0
-6.0,0.0,5.0,-2.0,-4.0,-1.0,1.0,0.0,1650821311087481.0
-3.0,1.0,2.0,-3.0,-2.0,-1.0,-2.0,-3.0,1650821311101662.0
-1.0,-6.0,-7.0,-2.0,4.0,0.0,3.0,-4.0,1650821311101662.0
1.0,0.0,1.0,-5.0,-2.0,-5.0,-4.0,1.0,1650821311103618.0
-6.0,3.0,9.0,11.0,-3.0,-3.0,1.0,15.0,1650821311103618.0
3.0,0.0,-14.0,-13.0,0.0,-1.0,-7.0,-37.0,1650821311124821.0
0.0,-3.0,-3.0,9.0,6.0,-4.0,6.0,0.0,1650821311124821.0
2.0,-6.0,-8.0,-7.0,-14.0,-1.0,-3.0,3.0,1650821311125790.0
-3.0,2.0,2.0,1.0,7.0,9.0,2.0,-8.0,1650821311125790.0
-1.0,4.0,7.0,1.0,3.0,-2.0,-2.0,12.0,1650821311137946.0
0.0,-2.0,-2.0,-1.0,-5.0,-6.0,-10.0,-1.0,1650821311137946.0
0.0,0.0,-2.0,1.0,2.0,7.0,20.0,0.0,1650821311146858.0
3.0,-2.0,-4.0,-3.0,5.0,-2.0,0.0,4.0,1650821311146858.0
-4.0,3.0,4.0,0.0,-2.0,-1.0,-2.0,4.0,1650821311161898.0
-1.0,2.0,-4.0,-7.0,-5.0,-6.0,-5.0,-7.0,1650821311161898.0
0.0,-2.0,9.0,12.0,2.0,1.0,2.0,6.0,1650821311163910.0
2.0,0.0,-7.0,-5.0,-5.0,-2.0,0.0,-5.0,1650821311163910.0
2.0,1.0,4.0,4.0,0.0,-3.0,-1.0,7.0,1650821311184631.0
-3.0,2.0,-2.0,-6.0,-4.0,-3.0,-2.0,-5.0,1650821311184631.0
-3.0,-5.0,-9.0,-6.0,2.0,3.0,-6.0,-3.0,1650821311185631.0
1.0,-1.0,2.0,8.0,10.0,16.0,5.0,-1.0,1650821311185631.0
-2.0,0.0,0.0,-4.0,4.0,-1.0,-1.0,0.0,1650821311206843.0
0.0,-7.0,-10.0,-2.0,-10.0,-4.0,0.0,3.0,1650821311206843.0
-3.0,-2.0,4.0,1.0,-5.0,-5.0,-4.0,6.0,1650821311208831.0
2.0,2.0,2.0,8.0,-6.0,-10.0,-2.0,-7.0,1650821311208831.0
-5.0,0.0,-9.0,-24.0,-3.0,-1.0,-2.0,-15.0,1650821311228971.0
-4.0,-17.0,-3.0,11.0,3.0,6.0,2.0,0.0,1650821311228971.0
0.0,5.0,-2.0,0.0,0.0,0.0,1.0,4.0,1650821311230898.0
-2.0,-1.0,-3.0,-5.0,-6.0,-3.0,-1.0,-5.0,1650821311230898.0
3.0,0.0,6.0,6.0,8.0,7.0,2.0,9.0,1650821311244824.0
1.0,5.0,2.0,1.0,7.0,10.0,9.0,2.0,1650821311244824.0
0.0,0.0,-1.0,-6.0,-6.0,-10.0,-9.0,-11.0,1650821311245804.0
1.0,4.0,5.0,1.0,-8.0,-8.0,1.0,10.0,1650821311245804.0
0.0,-2.0,1.0,11.0,6.0,9.0,2.0,0.0,1650821311267232.0
0.0,6.0,9.0,-4.0,4.0,9.0,-2.0,-3.0,1650821311267232.0
-1.0,-9.0,-7.0,-2.0,-2.0,-2.0,9.0,2.0,1650821311268162.0
-3.0,-3.0,-7.0,-11.0,-9.0,-14.0,-7.0,-5.0,1650821311268162.0
2.0,-3.0,13.0,8.0,-9.0,-8.0,0.0,5.0,1650821311281745.0
-2.0,-6.0,-20.0,-3.0,6.0,6.0,0.0,-5.0,1650821311281745.0
1.0,4.0,2.0,-2.0,-2.0,1.0,-4.0,-2.0,1650821311283684.0
-5.0,1.0,-3.0,-7.0,9.0,7.0,0.0,8.0,1650821311283684.0
-1.0,-1.0,7.0,3.0,-4.0,-6.0,-5.0,-25.0,1650821311304829.0
5.0,3.0,3.0,-2.0,-9.0,-4.0,7.0,14.0,1650821311304829.0
-1.0,4.0,8.0,-1.0,1.0,-3.0,-3.0,-3.0,1650821311305842.0
-1.0,0.0,-4.0,1.0,3.0,7.0,2.0,0.0,1650821311305842.0
-3.0,-2.0,-3.0,2.0,2.0,-2.0,-1.0,8.0,1650821311326922.0
1.0,3.0,-1.0,-3.0,-7.0,-13.0,-4.0,-3.0,1650821311326922.0
-1.0,-1.0,-4.0,-1.0,1.0,7.0,-4.0,-2.0,1650821311328920.0
-1.0,-3.0,5.0,8.0,8.0,16.0,10.0,-1.0,1650821311328920.0
1.0,0.0,-4.0,-2.0,0.0,1.0,8.0,7.0,1650821311340953.0
0.0,0.0,-2.0,-6.0,-4.0,-6.0,-11.0,-7.0,1650821311340953.0
-3.0,-2.0,1.0,-1.0,-7.0,-11.0,5.0,1.0,1650821311347936.0
2.0,1.0,-3.0,-2.0,-7.0,-10.0,-9.0,-4.0,1650821311347936.0
1.0,1.0,1.0,-3.0,1.0,6.0,4.0,5.0,1650821311364082.0
5.0,-3.0,10.0,20.0,10.0,5.0,1.0,17.0,1650821311364082.0
-11.0,-2.0,-1.0,-7.0,-1.0,-4.0,-10.0,-35.0,1650821311366038.0
0.0,3.0,-4.0,-3.0,-5.0,-1.0,-1.0,1.0,1650821311366038.0
-4.0,-11.0,-7.0,-2.0,-8.0,-8.0,-3.0,1.0,1650821311387269.0
1.0,1.0,0.0,-6.0,1.0,7.0,5.0,2.0,1650821311387269.0
3.0,5.0,7.0,7.0,6.0,7.0,3.0,9.0,1650821311388740.0
1.0,-4.0,-4.0,-4.0,0.0,-15.0,-1.0,-2.0,1650821311388740.0
1.0,3.0,7.0,11.0,5.0,11.0,-1.0,1.0,1650821311401705.0
-9.0,3.0,9.0,-5.0,-3.0,7.0,3.0,-6.0,1650821311401705.0
3.0,-1.0,-17.0,-3.0,-2.0,-7.0,-5.0,2.0,1650821311407801.0
-2.0,1.0,3.0,-8.0,0.0,-2.0,1.0,-7.0,1650821311407801.0
2.0,-4.0,0.0,7.0,-6.0,-12.0,-3.0,3.0,1650821311424845.0
0.0,1.0,4.0,4.0,-5.0,-6.0,-3.0,-1.0,1650821311424845.0
0.0,-3.0,-5.0,-7.0,-3.0,-3.0,3.0,6.0,1650821311425852.0
3.0,1.0,6.0,6.0,-5.0,1.0,1.0,3.0,1650821311425852.0
-4.0,0.0,-10.0,-12.0,4.0,9.0,4.0,-1.0,1650821311447275.0
1.0,-2.0,-7.0,-3.0,7.0,6.0,1.0,1.0,1650821311447275.0
2.0,-1.0,0.0,-1.0,0.0,0.0,-4.0,0.0,1650821311448277.0
-1.0,-3.0,-5.0,1.0,-4.0,-6.0,-6.0,-2.0,1650821311448277.0
-3.0,3.0,11.0,1.0,-6.0,-9.0,-1.0,-2.0,1650821311460922.0
-1.0,-2.0,-5.0,-3.0,-2.0,-1.0,-2.0,-8.0,1650821311460922.0
0.0,0.0,4.0,3.0,2.0,10.0,10.0,7.0,1650821311467905.0
-2.0,0.0,-2.0,1.0,14.0,9.0,-4.0,-5.0,1650821311467905.0
1.0,5.0,0.0,-8.0,-9.0,-12.0,-3.0,3.0,1650821311484846.0
-1.0,0.0,-8.0,-6.0,-10.0,-13.0,-2.0,-2.0,1650821311484846.0
-2.0,0.0,15.0,18.0,1.0,3.0,-3.0,-2.0,1650821311485874.0
0.0,-6.0,-10.0,-11.0,6.0,11.0,5.0,3.0,1650821311485874.0
0.0,3.0,5.0,10.0,7.0,1.0,-3.0,0.0,1650821311506994.0
0.0,1.0,4.0,0.0,-6.0,-9.0,1.0,-3.0,1650821311506994.0
-5.0,-5.0,-9.0,-10.0,-6.0,-6.0,-3.0,-1.0,1650821311508923.0
7.0,2.0,9.0,6.0,3.0,1.0,2.0,-1.0,1650821311508923.0
-3.0,-5.0,-3.0,-2.0,0.0,-1.0,1.0,0.0,1650821311520957.0
1.0,0.0,-3.0,0.0,1.0,4.0,-1.0,-3.0,1650821311520957.0
0.0,0.0,-3.0,-2.0,0.0,-3.0,-3.0,0.0,1650821311528158.0
-1.0,0.0,-3.0,0.0,-2.0,-2.0,1.0,1.0,1650821311528158.0
-1.0,-1.0,-1.0,-1.0,1.0,3.0,2.0,-1.0,1650821311544719.0
-2.0,-2.0,-2.0,1.0,0.0,4.0,2.0,0.0,1650821311544719.0
2.0,2.0,2.0,-1.0,-2.0,1.0,-1.0,-1.0,1650821311545854.0
-3.0,0.0,-1.0,0.0,-7.0,-19.0,-9.0,3.0,1650821311545854.0
-1.0,-7.0,-9.0,-4.0,2.0,12.0,-4.0,-15.0,1650821311567300.0
0.0,0.0,7.0,13.0,-2.0,9.0,11.0,4.0,1650821311567300.0
2.0,1.0,-4.0,-9.0,14.0,4.0,2.0,1.0,1650821311568300.0
-1.0,-3.0,-3.0,-2.0,-6.0,-1.0,-5.0,-3.0,1650821311568300.0
-1.0,3.0,-2.0,-4.0,-8.0,-14.0,2.0,3.0,1650821311581332.0
-2.0,-5.0,-1.0,-6.0,-3.0,-6.0,-7.0,-4.0,1650821311581332.0
1.0,1.0,4.0,7.0,-2.0,5.0,2.0,-1.0,1650821311588314.0
-2.0,0.0,-2.0,-3.0,-2.0,1.0,2.0,2.0,1650821311588314.0
-1.0,-1.0,0.0,3.0,6.0,-1.0,-1.0,1.0,1650821311604718.0
1.0,0.0,2.0,-5.0,-1.0,-1.0,-1.0,-3.0,1650821311604718.0
-5.0,-1.0,-4.0,-2.0,-7.0,-7.0,-2.0,1.0,1650821311605832.0
2.0,0.0,2.0,-2.0,-2.0,-1.0,-2.0,-6.0,1650821311605832.0
1.0,2.0,7.0,5.0,-2.0,11.0,3.0,4.0,1650821311626955.0
0.0,-3.0,-5.0,0.0,12.0,-1.0,2.0,0.0,1650821311626955.0
-3.0,-1.0,-1.0,-3.0,-6.0,1.0,-3.0,-2.0,1650821311628904.0
1.0,-3.0,-1.0,2.0,2.0,10.0,1.0,-3.0,1650821311628904.0
0.0,2.0,3.0,-3.0,-5.0,-7.0,-2.0,0.0,1650821311640920.0
0.0,6.0,-3.0,-6.0,-11.0,-17.0,-6.0,5.0,1650821311640920.0
-5.0,-5.0,2.0,4.0,3.0,-1.0,-5.0,-17.0,1650821311648395.0
-1.0,0.0,-4.0,-1.0,4.0,8.0,4.0,2.0,1650821311648395.0
2.0,0.0,1.0,7.0,7.0,7.0,4.0,3.0,1650821311664779.0
-1.0,-1.0,-2.0,-8.0,-2.0,3.0,0.0,-4.0,1650821311664779.0
3.0,1.0,-3.0,-7.0,-6.0,-9.0,-3.0,3.0,1650821311665751.0
-4.0,-6.0,-2.0,1.0,-8.0,-11.0,-12.0,-5.0,1650821311665751.0
-2.0,1.0,-1.0,-1.0,-2.0,-1.0,3.0,0.0,1650821311686936.0
0.0,0.0,4.0,8.0,12.0,9.0,3.0,5.0,1650821311686936.0
4.0,3.0,-3.0,-3.0,-3.0,-1.0,-2.0,2.0,1650821311687962.0
-1.0,-2.0,2.0,0.0,0.0,4.0,4.0,-2.0,1650821311687962.0
-3.0,-3.0,-2.0,-5.0,-4.0,-7.0,-8.0,2.0,1650821311700923.0
11.0,-2.0,4.0,10.0,-1.0,-1.0,1.0,-3.0,1650821311700923.0
0.0,2.0,1.0,1.0,7.0,2.0,1.0,1.0,1650821311709958.0
-3.0,0.0,-4.0,-8.0,-6.0,-1.0,1.0,-1.0,1650821311709958.0
-3.0,-3.0,11.0,-1.0,-10.0,3.0,2.0,2.0,1650821311724835.0
-3.0,-2.0,-8.0,-2.0,15.0,9.0,-2.0,-3.0,1650821311724835.0
1.0,3.0,1.0,-1.0,1.0,-1.0,-2.0,2.0,1650821311725838.0
-1.0,-3.0,-4.0,-2.0,-7.0,-14.0,0.0,0.0,1650821311725838.0
0.0,1.0,-3.0,-7.0,-8.0,-10.0,-1.0,-1.0,1650821311747202.0
-4.0,1.0,3.0,2.0,2.0,7.0,-3.0,-3.0,1650821311747202.0
0.0,-2.0,4.0,9.0,8.0,16.0,7.0,5.0,1650821311748200.0
-1.0,4.0,1.0,1.0,7.0,4.0,4.0,7.0,1650821311748200.0
-6.0,-4.0,-7.0,-9.0,-3.0,-9.0,-6.0,-17.0,1650821311760978.0
6.0,2.0,3.0,3.0,-10.0,-7.0,-4.0,-4.0,1650821311760978.0
-1.0,-2.0,-9.0,-8.0,-7.0,-9.0,-3.0,1.0,1650821311769836.0
0.0,1.0,2.0,5.0,2.0,2.0,4.0,-1.0,1650821311769836.0
0.0,3.0,1.0,2.0,2.0,1.0,0.0,4.0,1650821311784914.0
-3.0,-3.0,-3.0,-7.0,-6.0,-9.0,-4.0,1.0,1650821311784914.0
1.0,3.0,3.0,2.0,-1.0,12.0,-1.0,-3.0,1650821311786840.0
-4.0,1.0,5.0,5.0,7.0,9.0,0.0,0.0,1650821311786840.0
10.0,-2.0,-5.0,-1.0,6.0,1.0,3.0,3.0,1650821311806510.0
-3.0,0.0,0.0,2.0,1.0,-2.0,0.0,-1.0,1650821311806510.0
2.0,-5.0,1.0,-2.0,-10.0,-15.0,-1.0,3.0,1650821311808450.0
-2.0,-2.0,-5.0,-3.0,-6.0,-4.0,-4.0,-5.0,1650821311808450.0
-2.0,5.0,-5.0,-2.0,6.0,5.0,-2.0,0.0,1650821311820567.0
-5.0,-6.0,3.0,0.0,-6.0,0.0,1.0,-3.0,1650821311820567.0
-1.0,0.0,-2.0,-2.0,0.0,-6.0,-5.0,0.0,1650821311829590.0
0.0,-1.0,3.0,5.0,0.0,4.0,3.0,-1.0,1650821311829590.0
1.0,5.0,-3.0,0.0,-3.0,2.0,3.0,4.0,1650821311844765.0
-1.0,0.0,1.0,0.0,5.0,7.0,2.0,2.0,1650821311844765.0
-1.0,-6.0,2.0,4.0,-2.0,-8.0,-1.0,-2.0,1650821311845765.0
0.0,-3.0,-2.0,-7.0,-5.0,-3.0,-3.0,-2.0,1650821311845765.0
3.0,-2.0,-2.0,7.0,-2.0,2.0,2.0,1.0,1650821311867243.0
-7.0,1.0,-3.0,-7.0,-9.0,-10.0,-5.0,-1.0,1650821311867243.0
-1.0,0.0,-5.0,3.0,5.0,4.0,-1.0,-1.0,1650821311868745.0
3.0,-1.0,-7.0,-11.0,1.0,-1.0,5.0,12.0,1650821311868745.0
-7.0,-5.0,4.0,7.0,-4.0,-5.0,-5.0,-20.0,1650821311880777.0
-1.0,-3.0,1.0,-1.0,3.0,-2.0,0.0,0.0,1650821311880777.0
11.0,4.0,6.0,2.0,2.0,7.0,1.0,0.0,1650821311889859.0
-2.0,-2.0,0.0,-4.0,2.0,0.0,-2.0,-1.0,1650821311889859.0
0.0,-1.0,-5.0,-5.0,-2.0,0.0,2.0,7.0,1650821311904847.0
0.0,0.0,-1.0,0.0,0.0,2.0,-2.0,-2.0,1650821311904847.0
-4.0,4.0,7.0,0.0,-4.0,2.0,0.0,-1.0,1650821311905854.0
1.0,-1.0,-6.0,-1.0,-1.0,-3.0,-2.0,-1.0,1650821311905854.0
0.0,-4.0,-1.0,0.0,-6.0,-9.0,-5.0,-1.0,1650821311927052.0
2.0,1.0,-4.0,-5.0,0.0,-6.0,3.0,1.0,1650821311927052.0
-2.0,-1.0,2.0,2.0,5.0,12.0,-2.0,2.0,1650821311928980.0
-2.0,-3.0,2.0,10.0,2.0,3.0,5.0,-3.0,1650821311928980.0
3.0,-3.0,-5.0,-7.0,0.0,-1.0,1.0,0.0,1650821311940017.0
-1.0,-1.0,1.0,3.0,-4.0,-6.0,-3.0,-2.0,1650821311940017.0
-1.0,-1.0,-4.0,-1.0,6.0,3.0,-1.0,0.0,1650821311949963.0
-1.0,2.0,-8.0,-9.0,-2.0,-2.0,-1.0,-3.0,1650821311949963.0
0.0,2.0,3.0,1.0,-11.0,-10.0,-5.0,-2.0,1650821311964823.0
0.0,-8.0,-8.0,-6.0,-1.0,8.0,2.0,0.0,1650821311964823.0
1.0,-1.0,1.0,2.0,2.0,-6.0,3.0,1.0,1650821311965800.0
2.0,3.0,4.0,5.0,9.0,3.0,2.0,0.0,1650821311965800.0
-2.0,2.0,6.0,4.0,3.0,4.0,2.0,5.0,1650821311987261.0
-4.0,2.0,8.0,5.0,-1.0,4.0,1.0,0.0,1650821311987261.0
2.0,-10.0,-11.0,-10.0,-5.0,3.0,-1.0,-7.0,1650821311988047.0
-2.0,-1.0,0.0,4.0,-6.0,-8.0,-2.0,10.0,1650821311988047.0
-3.0,-1.0,-6.0,-8.0,1.0,-2.0,-3.0,-17.0,1650821312000175.0
-3.0,0.0,5.0,12.0,-5.0,-2.0,-2.0,0.0,1650821312000175.0
-1.0,3.0,-3.0,0.0,-1.0,-10.0,-1.0,1.0,1650821312009244.0
2.0,-1.0,-2.0,-3.0,4.0,6.0,3.0,-5.0,1650821312009244.0
-1.0,-2.0,-2.0,0.0,4.0,6.0,6.0,7.0,1650821312024374.0
1.0,-1.0,-6.0,-6.0,1.0,-4.0,-2.0,1.0,1650821312024374.0
-4.0,0.0,4.0,3.0,-3.0,1.0,0.0,-2.0,1650821312026330.0
1.0,-2.0,-2.0,-6.0,-7.0,-7.0,-5.0,-1.0,1650821312026330.0
-1.0,2.0,1.0,1.0,1.0,0.0,0.0,4.0,1650821312047343.0
1.0,0.0,2.0,3.0,5.0,4.0,0.0,-2.0,1650821312047343.0
-2.0,0.0,-9.0,-12.0,-2.0,-4.0,0.0,2.0,1650821312048315.0
-3.0,-1.0,15.0,12.0,-3.0,-9.0,-8.0,-6.0,1650821312048315.0
-1.0,-5.0,1.0,6.0,-3.0,-2.0,10.0,3.0,1650821312060927.0
-2.0,3.0,-2.0,-3.0,0.0,17.0,2.0,0.0,1650821312060927.0
2.0,2.0,-3.0,-8.0,5.0,3.0,1.0,-2.0,1650821312069865.0
8.0,4.0,2.0,4.0,5.0,7.0,5.0,1.0,1650821312069865.0
-1.0,-3.0,1.0,-1.0,-2.0,-5.0,-4.0,0.0,1650821312084096.0
-2.0,-5.0,-6.0,-4.0,-13.0,-20.0,-8.0,-1.0,1650821312084096.0
-5.0,2.0,0.0,-2.0,-3.0,-2.0,-2.0,0.0,1650821312086093.0
-2.0,0.0,-4.0,2.0,4.0,7.0,0.0,0.0,1650821312086093.0
6.0,1.0,-3.0,-2.0,-2.0,0.0,-1.0,-2.0,1650821312107189.0
-9.0,-2.0,2.0,-1.0,8.0,3.0,2.0,-1.0,1650821312107189.0
1.0,-1.0,3.0,5.0,2.0,8.0,1.0,0.0,1650821312108135.0
1.0,2.0,-3.0,-5.0,-3.0,1.0,3.0,0.0,1650821312108135.0
0.0,-6.0,-1.0,3.0,2.0,-1.0,-3.0,13.0,1650821312129868.0
2.0,3.0,-2.0,2.0,-3.0,-7.0,-2.0,-14.0,1650821312129868.0
1.0,0.0,3.0,1.0,-8.0,-12.0,-2.0,0.0,1650821312130872.0
-2.0,-1.0,-2.0,-4.0,-7.0,5.0,-2.0,-3.0,1650821312130872.0
1.0,2.0,-4.0,-5.0,3.0,0.0,4.0,4.0,1650821312144827.0
3.0,1.0,3.0,1.0,1.0,0.0,-1.0,3.0,1650821312144827.0
0.0,3.0,-1.0,2.0,6.0,2.0,1.0,2.0,1650821312145817.0
-2.0,-2.0,5.0,1.0,1.0,0.0,-2.0,-2.0,1650821312145817.0
-7.0,1.0,-1.0,1.0,-3.0,1.0,-5.0,-3.0,1650821312167308.0
7.0,-3.0,1.0,0.0,0.0,-8.0,-7.0,-2.0,1650821312167308.0
0.0,1.0,1.0,2.0,-3.0,-3.0,5.0,0.0,1650821312168313.0
0.0,-3.0,-1.0,-1.0,-7.0,-6.0,-4.0,0.0,1650821312168313.0
0.0,3.0,-1.0,-4.0,10.0,11.0,0.0,-3.0,1650821312189872.0
-2.0,-1.0,-3.0,2.0,-1.0,0.0,2.0,1.0,1650821312189872.0
-2.0,-1.0,0.0,0.0,-4.0,-2.0,-2.0,2.0,1650821312190857.0
-2.0,-8.0,-4.0,-2.0,-3.0,-18.0,-6.0,-4.0,1650821312190857.0
0.0,2.0,-1.0,-1.0,1.0,7.0,-3.0,2.0,1650821312204824.0
-1.0,-9.0,-13.0,-5.0,1.0,13.0,5.0,-9.0,1650821312204824.0
1.0,1.0,3.0,-2.0,0.0,-2.0,-1.0,1.0,1650821312205823.0
-1.0,2.0,3.0,0.0,-3.0,-6.0,1.0,1.0,1650821312205823.0
-1.0,-4.0,1.0,-2.0,-6.0,-12.0,-3.0,-5.0,1650821312227219.0
0.0,2.0,-2.0,-2.0,-10.0,-9.0,-3.0,7.0,1650821312227219.0
2.0,-6.0,-9.0,-3.0,6.0,6.0,0.0,0.0,1650821312228048.0
-2.0,2.0,6.0,5.0,8.0,5.0,0.0,-4.0,1650821312228048.0
0.0,1.0,6.0,1.0,2.0,5.0,2.0,3.0,1650821312249859.0
-3.0,1.0,-3.0,-5.0,3.0,8.0,2.0,0.0,1650821312249859.0
1.0,-3.0,-8.0,-5.0,-7.0,-8.0,-3.0,-3.0,1650821312250856.0
-4.0,-2.0,0.0,3.0,-9.0,-7.0,3.0,0.0,1650821312250856.0
0.0,-2.0,-4.0,-2.0,10.0,7.0,-2.0,1.0,1650821312264144.0
-2.0,3.0,6.0,1.0,-2.0,0.0,0.0,4.0,1650821312264144.0
-5.0,-3.0,-2.0,-3.0,-8.0,-11.0,-4.0,-4.0,1650821312270888.0
-2.0,2.0,-7.0,-5.0,1.0,1.0,2.0,3.0,1650821312270888.0
2.0,1.0,3.0,3.0,0.0,5.0,1.0,-2.0,1650821312287041.0
3.0,3.0,-3.0,2.0,6.0,4.0,1.0,2.0,1650821312287041.0
0.0,1.0,-4.0,-4.0,1.0,1.0,1.0,3.0,1650821312288041.0
1.0,5.0,9.0,2.0,-3.0,-4.0,0.0,1.0,1650821312288041.0
-2.0,-2.0,-4.0,1.0,-5.0,-12.0,-4.0,-7.0,1650821312309876.0
3.0,-1.0,3.0,2.0,4.0,7.0,7.0,13.0,1650821312309876.0
-1.0,-4.0,-2.0,-4.0,-1.0,3.0,-3.0,-6.0,1650821312310882.0
0.0,1.0,2.0,1.0,-4.0,-3.0,1.0,0.0,1650821312310882.0
2.0,1.0,-2.0,-3.0,-13.0,-13.0,-4.0,-5.0,1650821312324143.0
-9.0,-6.0,-4.0,-3.0,5.0,1.0,-3.0,2.0,1650821312324143.0
2.0,1.0,4.0,3.0,5.0,11.0,5.0,1.0,1650821312338368.0
0.0,-1.0,-1.0,2.0,3.0,1.0,0.0,-3.0,1650821312338368.0
-2.0,-7.0,-8.0,-5.0,-3.0,-11.0,-4.0,2.0,1650821312346843.0
0.0,1.0,2.0,2.0,-7.0,3.0,-1.0,-4.0,1650821312346843.0
4.0,0.0,4.0,3.0,6.0,7.0,4.0,3.0,1650821312348771.0
-1.0,0.0,-5.0,-3.0,2.0,1.0,-2.0,-4.0,1650821312348771.0
-2.0,2.0,-1.0,2.0,-3.0,0.0,5.0,-2.0,1650821312369758.0
0.0,-1.0,2.0,-1.0,-10.0,-15.0,-6.0,3.0,1650821312369758.0
-1.0,-4.0,0.0,2.0,-4.0,-4.0,2.0,-5.0,1650821312370712.0
1.0,-4.0,-4.0,-3.0,2.0,2.0,-3.0,2.0,1650821312370712.0
2.0,1.0,-1.0,-3.0,2.0,0.0,2.0,0.0,1650821312384144.0
-2.0,6.0,3.0,2.0,5.0,-2.0,-2.0,-3.0,1650821312384144.0
-3.0,-9.0,-5.0,1.0,1.0,8.0,1.0,2.0,1650821312390813.0
0.0,-5.0,-1.0,0.0,-3.0,-1.0,-3.0,0.0,1650821312390813.0
0.0,1.0,2.0,0.0,7.0,8.0,3.0,3.0,1650821312407330.0
2.0,5.0,2.0,-1.0,1.0,6.0,6.0,-3.0,1650821312407330.0
-2.0,-2.0,0.0,0.0,-4.0,-9.0,-4.0,-1.0,1650821312408330.0
3.0,3.0,-4.0,-7.0,-12.0,-11.0,-1.0,-3.0,1650821312408330.0
-15.0,-4.0,-7.0,-4.0,-2.0,9.0,-3.0,-1.0,1650821312429554.0
7.0,-3.0,5.0,4.0,8.0,2.0,4.0,-1.0,1650821312429554.0
-6.0,6.0,9.0,10.0,2.0,-3.0,-1.0,0.0,1650821312430486.0
5.0,0.0,-8.0,-3.0,5.0,4.0,1.0,11.0,1650821312430486.0
-1.0,0.0,-1.0,-1.0,-4.0,0.0,-2.0,-18.0,1650821312443603.0
0.0,-3.0,4.0,-1.0,-11.0,-14.0,-3.0,-1.0,1650821312443603.0
-5.0,1.0,-3.0,-4.0,-10.0,-5.0,-2.0,0.0,1650821312450652.0
-1.0,-1.0,3.0,7.0,8.0,8.0,2.0,0.0,1650821312450652.0
0.0,-2.0,0.0,5.0,10.0,8.0,3.0,8.0,1650821312467269.0
-2.0,-4.0,-11.0,-11.0,-4.0,-3.0,-5.0,-3.0,1650821312467269.0
0.0,-4.0,-2.0,-6.0,-3.0,-12.0,-2.0,-8.0,1650821312468701.0
-2.0,7.0,5.0,2.0,-1.0,5.0,-2.0,-4.0,1650821312468701.0
2.0,-1.0,1.0,-3.0,0.0,2.0,0.0,3.0,1650821312489829.0
-2.0,-2.0,2.0,1.0,-7.0,-7.0,-3.0,-4.0,1650821312489829.0
1.0,4.0,3.0,5.0,2.0,-8.0,-3.0,2.0,1650821312490811.0
1.0,-4.0,-10.0,-11.0,0.0,8.0,2.0,-3.0,1650821312490811.0
-5.0,4.0,7.0,9.0,4.0,10.0,2.0,3.0,1650821312503843.0
2.0,-10.0,-11.0,-10.0,-3.0,-1.0,-3.0,4.0,1650821312503843.0
3.0,1.0,-2.0,1.0,-2.0,1.0,4.0,-1.0,1650821312510824.0
-4.0,-6.0,-3.0,-4.0,-1.0,-4.0,0.0,-1.0,1650821312510824.0
2.0,2.0,-2.0,0.0,1.0,-9.0,-1.0,1.0,1650821312527246.0
0.0,3.0,-2.0,-5.0,-1.0,2.0,-1.0,2.0,1650821312527246.0
-2.0,0.0,4.0,3.0,-3.0,-1.0,-4.0,2.0,1650821312528250.0
5.0,2.0,13.0,10.0,4.0,-4.0,-1.0,2.0,1650821312528250.0
0.0,-12.0,-34.0,-19.0,-7.0,-2.0,1.0,20.0,1650821312549876.0
-13.0,4.0,4.0,2.0,1.0,-3.0,-5.0,-37.0,1650821312549876.0
4.0,4.0,10.0,3.0,3.0,8.0,-1.0,1.0,1650821312550874.0
14.0,-1.0,-2.0,4.0,4.0,6.0,4.0,24.0,1650821312550874.0
-15.0,7.0,2.0,-1.0,-6.0,-16.0,-5.0,-20.0,1650821312572035.0
-3.0,-5.0,3.0,4.0,-8.0,-2.0,1.0,8.0,1650821312572035.0
-5.0,-3.0,-21.0,-6.0,1.0,5.0,-3.0,-6.0,1650821312572992.0
2.0,7.0,16.0,4.0,-2.0,-1.0,1.0,-1.0,1650821312572992.0
5.0,-2.0,8.0,4.0,-1.0,-8.0,1.0,3.0,1650821312585882.0
3.0,7.0,1.0,3.0,13.0,15.0,3.0,3.0,1650821312585882.0
0.0,0.0,11.0,6.0,2.0,5.0,1.0,2.0,1650821312586879.0
-14.0,-2.0,-6.0,-13.0,-8.0,-7.0,-4.0,-11.0,1650821312586879.0
10.0,-15.0,-1.0,6.0,-4.0,-7.0,-7.0,-5.0,1650821312617276.0
-4.0,14.0,20.0,6.0,-5.0,-4.0,10.0,9.0,1650821312617276.0
8.0,-6.0,-21.0,-11.0,-3.0,-3.0,-2.0,4.0,1650821312617276.0
-11.0,1.0,1.0,4.0,-2.0,0.0,-2.0,-8.0,1650821312617276.0
-3.0,5.0,-14.0,-3.0,6.0,9.0,7.0,25.0,1650821312631424.0
38.0,0.0,35.0,21.0,-1.0,-5.0,-7.0,-26.0,1650821312631424.0
-32.0,-7.0,-19.0,-13.0,-6.0,-9.0,-9.0,19.0,1650821312632356.0
8.0,0.0,1.0,-1.0,2.0,8.0,2.0,-28.0,1650821312632356.0
0.0,7.0,12.0,0.0,-1.0,3.0,-3.0,1.0,1650821312646510.0
-4.0,-6.0,-14.0,5.0,0.0,-2.0,-2.0,4.0,1650821312646510.0
3.0,5.0,4.0,-4.0,-2.0,-3.0,2.0,8.0,1650821312646510.0
-7.0,-4.0,-17.0,-8.0,2.0,-4.0,-5.0,3.0,1650821312646510.0
5.0,11.0,6.0,-8.0,-1.0,5.0,0.0,-12.0,1650821312668882.0
-6.0,-7.0,-17.0,-9.0,2.0,0.0,3.0,14.0,1650821312668882.0
11.0,16.0,30.0,13.0,3.0,-1.0,1.0,-10.0,1650821312669833.0
-36.0,-22.0,-28.0,-20.0,-7.0,-2.0,5.0,55.0,1650821312669833.0
17.0,9.0,22.0,19.0,5.0,6.0,-4.0,-62.0,1650821312691923.0
-2.0,-13.0,-22.0,-16.0,1.0,-6.0,-3.0,-4.0,1650821312691923.0
2.0,-7.0,-4.0,13.0,2.0,1.0,2.0,1.0,1650821312692881.0
23.0,27.0,41.0,17.0,8.0,16.0,1.0,-17.0,1650821312692881.0
-41.0,-3.0,3.0,-14.0,1.0,-2.0,7.0,54.0,1650821312706025.0
-5.0,-16.0,-17.0,-10.0,-4.0,-7.0,-1.0,0.0,1650821312706025.0
-9.0,-8.0,-42.0,-12.0,-2.0,-3.0,-5.0,-35.0,1650821312707024.0
9.0,17.0,25.0,15.0,-6.0,-8.0,-5.0,-11.0,1650821312707024.0
-49.0,-29.0,14.0,31.0,4.0,-4.0,-5.0,4.0,1650821312729165.0
32.0,-11.0,-67.0,-60.0,-17.0,-12.0,-4.0,8.0,1650821312729165.0
22.0,19.0,29.0,9.0,11.0,12.0,3.0,-3.0,1650821312729165.0
2.0,-2.0,-21.0,-20.0,-5.0,-5.0,0.0,-8.0,1650821312729165.0
23.0,14.0,16.0,21.0,4.0,4.0,1.0,-1.0,1650821312752277.0
-11.0,11.0,26.0,14.0,12.0,10.0,5.0,28.0,1650821312752277.0
7.0,-13.0,-10.0,4.0,5.0,5.0,-2.0,1.0,1650821312752277.0
7.0,10.0,-1.0,17.0,4.0,2.0,2.0,-9.0,1650821312752277.0
25.0,15.0,49.0,8.0,2.0,4.0,3.0,18.0,1650821312766543.0
-13.0,-5.0,-21.0,-22.0,-16.0,-16.0,-7.0,-5.0,1650821312766543.0
-11.0,-31.0,-42.0,-21.0,-19.0,-15.0,-4.0,8.0,1650821312767344.0
