EMG_s0,EMG_s1,EMG_s2,EMG_s3,EMG_s4,EMG_s5,EMG_s6,EMG_s7,timestamp
-1.0,1.0,-2.0,-2.0,-9.0,-8.0,-3.0,-1.0,1650821804822157.0
-5.0,0.0,1.0,-1.0,-9.0,-21.0,-7.0,0.0,1650821804822157.0
6.0,0.0,1.0,-2.0,-10.0,15.0,4.0,0.0,1650821804823154.0
2.0,2.0,2.0,1.0,1.0,24.0,7.0,2.0,1650821804823154.0
1.0,2.0,0.0,3.0,21.0,14.0,2.0,1.0,1650821804824151.0
0.0,-2.0,5.0,3.0,-7.0,-12.0,-1.0,0.0,1650821804824151.0
-1.0,-2.0,0.0,-1.0,-4.0,-28.0,-6.0,-3.0,1650821804825148.0
-1.0,0.0,1.0,1.0,9.0,11.0,-2.0,-1.0,1650821804825148.0
1.0,1.0,0.0,-2.0,-5.0,4.0,2.0,-2.0,1650821804835135.0
-1.0,-4.0,-8.0,-9.0,-3.0,-6.0,-1.0,0.0,1650821804835135.0
-1.0,0.0,2.0,-1.0,-16.0,-5.0,-4.0,1.0,1650821804840136.0
0.0,-2.0,-3.0,-2.0,-11.0,-12.0,-1.0,-1.0,1650821804840136.0
0.0,-3.0,0.0,2.0,11.0,-1.0,0.0,0.0,1650821804849104.0
0.0,2.0,-1.0,1.0,17.0,25.0,7.0,2.0,1650821804849104.0
0.0,-1.0,2.0,1.0,-4.0,2.0,-1.0,1.0,1650821804865041.0
-2.0,0.0,-2.0,-4.0,-9.0,-17.0,-3.0,0.0,1650821804865041.0
-1.0,-2.0,1.0,-1.0,-4.0,-2.0,-2.0,-1.0,1650821804870028.0
0.0,-1.0,-4.0,-3.0,-3.0,-13.0,-2.0,-2.0,1650821804870028.0
-1.0,1.0,-1.0,1.0,10.0,12.0,3.0,0.0,1650821804885016.0
-2.0,0.0,2.0,2.0,0.0,14.0,1.0,0.0,1650821804885016.0
0.0,0.0,-1.0,3.0,3.0,3.0,4.0,2.0,1650821804900973.0
1.0,1.0,0.0,-1.0,1.0,-13.0,-3.0,-2.0,1650821804900973.0
-1.0,-3.0,-4.0,-6.0,-15.0,-6.0,0.0,-3.0,1650821804931863.0
0.0,2.0,0.0,-2.0,1.0,1.0,-3.0,0.0,1650821804931863.0
-2.0,-6.0,-3.0,-1.0,7.0,4.0,-2.0,-1.0,1650821804932860.0
2.0,0.0,3.0,4.0,0.0,7.0,4.0,0.0,1650821804932860.0
1.0,3.0,3.0,6.0,11.0,8.0,3.0,2.0,1650821804933886.0
-1.0,0.0,0.0,1.0,-4.0,1.0,2.0,-1.0,1650821804933886.0
0.0,2.0,-1.0,-5.0,-26.0,-16.0,-2.0,0.0,1650821804934883.0
-4.0,-1.0,-4.0,-3.0,23.0,5.0,-4.0,-2.0,1650821804934883.0
2.0,-2.0,-1.0,1.0,1.0,5.0,-1.0,-3.0,1650821804944856.0
5.0,-3.0,-3.0,-6.0,-13.0,-18.0,-4.0,1.0,1650821804944856.0
1.0,-1.0,-2.0,-3.0,-2.0,4.0,0.0,-1.0,1650821804953804.0
-2.0,0.0,0.0,1.0,-9.0,-10.0,-4.0,-2.0,1650821804953804.0
1.0,1.0,2.0,1.0,10.0,24.0,6.0,1.0,1650821804967767.0
-1.0,-2.0,-1.0,3.0,14.0,16.0,4.0,2.0,1650821804967767.0
1.0,1.0,2.0,0.0,-4.0,-10.0,-1.0,0.0,1650821804975773.0
0.0,0.0,-3.0,-4.0,-23.0,-22.0,-5.0,-3.0,1650821804975773.0
-3.0,-1.0,0.0,-4.0,0.0,-13.0,-6.0,0.0,1650821804982755.0
-1.0,-1.0,1.0,3.0,3.0,8.0,1.0,-1.0,1650821804982755.0
0.0,1.0,1.0,4.0,9.0,12.0,4.0,2.0,1650821804997707.0
1.0,-2.0,-1.0,1.0,10.0,10.0,2.0,1.0,1650821804997707.0
-1.0,-1.0,-4.0,-4.0,-8.0,-10.0,-3.0,0.0,1650821805012677.0
-1.0,2.0,-1.0,-3.0,-16.0,-25.0,-3.0,-2.0,1650821805012677.0
1.0,0.0,-1.0,1.0,7.0,10.0,1.0,1.0,1650821805021657.0
1.0,3.0,0.0,-1.0,3.0,20.0,5.0,0.0,1650821805021657.0
-1.0,-1.0,-1.0,-2.0,-9.0,-7.0,-2.0,-2.0,1650821805023619.0
-1.0,-4.0,1.0,0.0,-1.0,-10.0,-2.0,-1.0,1650821805023619.0
-2.0,0.0,1.0,0.0,16.0,2.0,-3.0,-3.0,1650821805043565.0
1.0,-2.0,-3.0,-4.0,-9.0,0.0,0.0,0.0,1650821805043565.0
0.0,1.0,2.0,6.0,5.0,7.0,0.0,1.0,1650821805045559.0
-2.0,-1.0,1.0,-1.0,1.0,1.0,2.0,-2.0,1650821805045559.0
-1.0,-3.0,-2.0,1.0,-9.0,-19.0,-2.0,-3.0,1650821805057555.0
-1.0,-3.0,-2.0,0.0,5.0,9.0,-1.0,-1.0,1650821805057555.0
1.0,1.0,-3.0,-2.0,3.0,11.0,1.0,-2.0,1650821805066516.0
0.0,2.0,-3.0,-3.0,-9.0,-12.0,-4.0,-2.0,1650821805066516.0
-1.0,-4.0,-2.0,-3.0,-8.0,-19.0,-3.0,-1.0,1650821805081483.0
-2.0,1.0,1.0,-1.0,6.0,6.0,1.0,0.0,1650821805081483.0
-1.0,-1.0,0.0,2.0,4.0,2.0,1.0,-1.0,1650821805083056.0
-1.0,5.0,1.0,2.0,14.0,19.0,5.0,3.0,1650821805083056.0
-4.0,2.0,0.0,0.0,5.0,13.0,1.0,0.0,1650821805103999.0
2.0,-4.0,-2.0,-4.0,-14.0,-14.0,-3.0,-2.0,1650821805103999.0
-1.0,0.0,1.0,-2.0,-17.0,-21.0,-3.0,-2.0,1650821805105994.0
-3.0,-1.0,-1.0,0.0,1.0,-2.0,-5.0,-2.0,1650821805105994.0
-8.0,-1.0,-1.0,1.0,3.0,4.0,1.0,2.0,1650821805126938.0
8.0,1.0,-1.0,0.0,4.0,0.0,2.0,1.0,1650821805126938.0
-1.0,-1.0,-1.0,-1.0,4.0,9.0,2.0,0.0,1650821805127936.0
-1.0,-4.0,-5.0,-2.0,-6.0,-6.0,-1.0,-1.0,1650821805127936.0
-1.0,-3.0,2.0,-3.0,-10.0,-7.0,-4.0,-3.0,1650821805141925.0
-5.0,0.0,1.0,1.0,1.0,1.0,-1.0,-1.0,1650821805141925.0
1.0,3.0,2.0,0.0,6.0,0.0,0.0,0.0,1650821805142897.0
0.0,-1.0,-1.0,-1.0,5.0,4.0,2.0,0.0,1650821805142897.0
1.0,2.0,0.0,0.0,-4.0,4.0,3.0,0.0,1650821805163839.0
-3.0,-1.0,1.0,-1.0,-2.0,-8.0,-1.0,-1.0,1650821805163839.0
-2.0,-3.0,-2.0,-4.0,-14.0,-17.0,-6.0,-2.0,1650821805165862.0
-1.0,-2.0,2.0,0.0,14.0,29.0,2.0,-2.0,1650821805165862.0
2.0,6.0,-1.0,0.0,15.0,23.0,3.0,0.0,1650821805186971.0
-2.0,-2.0,1.0,2.0,-1.0,-18.0,-2.0,1.0,1650821805186971.0
-1.0,3.0,0.0,0.0,-3.0,-6.0,0.0,1.0,1650821805187972.0
3.0,-2.0,-4.0,-6.0,-9.0,1.0,-2.0,-1.0,1650821805187972.0
1.0,1.0,1.0,3.0,-2.0,-3.0,-4.0,-2.0,1650821805202000.0
-2.0,0.0,-2.0,2.0,-4.0,-6.0,-3.0,0.0,1650821805202000.0
1.0,-3.0,-1.0,-2.0,0.0,-7.0,-2.0,0.0,1650821805202931.0
1.0,0.0,1.0,-1.0,-8.0,-6.0,1.0,-1.0,1650821805202931.0
2.0,-2.0,-2.0,-3.0,-2.0,-5.0,-1.0,-2.0,1650821805224208.0
-2.0,-1.0,2.0,-1.0,0.0,3.0,0.0,-2.0,1650821805224208.0
-2.0,-4.0,-1.0,0.0,3.0,11.0,2.0,1.0,1650821805225170.0
3.0,3.0,2.0,1.0,7.0,3.0,0.0,1.0,1650821805225170.0
-2.0,-2.0,-2.0,-2.0,-5.0,-5.0,-2.0,-1.0,1650821805247123.0
2.0,2.0,0.0,2.0,3.0,-2.0,2.0,1.0,1650821805247123.0
0.0,2.0,0.0,1.0,0.0,6.0,3.0,0.0,1650821805248079.0
-2.0,-2.0,-1.0,-3.0,-19.0,-13.0,-2.0,-1.0,1650821805248079.0
-2.0,-3.0,-5.0,-3.0,8.0,2.0,-1.0,0.0,1650821805261110.0
-1.0,-1.0,-2.0,-1.0,15.0,20.0,1.0,-1.0,1650821805261110.0
-1.0,-6.0,1.0,5.0,4.0,7.0,1.0,-1.0,1650821805268147.0
1.0,-2.0,0.0,2.0,3.0,3.0,4.0,3.0,1650821805268147.0
0.0,-1.0,3.0,-1.0,-12.0,-10.0,-2.0,-1.0,1650821805284098.0
-1.0,0.0,-4.0,-3.0,-10.0,-10.0,-2.0,-1.0,1650821805284098.0
-1.0,0.0,-3.0,-2.0,-4.0,-8.0,-4.0,-1.0,1650821805285099.0
-3.0,-1.0,1.0,-3.0,-7.0,-9.0,-3.0,-1.0,1650821805285099.0
0.0,1.0,0.0,0.0,-7.0,-3.0,-1.0,-1.0,1650821805307017.0
-1.0,-2.0,-2.0,-2.0,4.0,-7.0,-3.0,-2.0,1650821805307017.0
1.0,0.0,0.0,-1.0,0.0,0.0,-2.0,1.0,1650821805307769.0
-3.0,-1.0,0.0,5.0,10.0,12.0,1.0,2.0,1650821805307769.0
2.0,1.0,2.0,2.0,14.0,19.0,7.0,1.0,1650821805320804.0
-1.0,0.0,1.0,-1.0,-8.0,-6.0,-1.0,-1.0,1650821805320804.0
-2.0,-2.0,-3.0,-4.0,-3.0,-13.0,-2.0,-2.0,1650821805327822.0
-5.0,-1.0,-2.0,0.0,-16.0,-25.0,-6.0,-2.0,1650821805327822.0
5.0,0.0,-1.0,-4.0,3.0,10.0,1.0,0.0,1650821805343775.0
-1.0,0.0,-1.0,3.0,4.0,18.0,2.0,0.0,1650821805343775.0
0.0,0.0,-1.0,3.0,12.0,7.0,1.0,-1.0,1650821805345797.0
0.0,2.0,0.0,0.0,-4.0,-10.0,-2.0,-2.0,1650821805345797.0
-4.0,-2.0,1.0,0.0,-4.0,-21.0,-4.0,0.0,1650821805366947.0
-1.0,0.0,-3.0,-5.0,-7.0,1.0,-1.0,-1.0,1650821805366947.0
-5.0,-1.0,1.0,-1.0,1.0,11.0,3.0,2.0,1650821805367871.0
8.0,0.0,1.0,2.0,-5.0,0.0,0.0,-2.0,1650821805367871.0
-1.0,0.0,-3.0,2.0,-13.0,-14.0,-2.0,2.0,1650821805381016.0
1.0,-2.0,1.0,2.0,19.0,9.0,1.0,0.0,1650821805381016.0
0.0,-1.0,-1.0,-2.0,-2.0,-4.0,-3.0,-2.0,1650821805387805.0
-3.0,-1.0,-1.0,-1.0,3.0,-2.0,1.0,1.0,1650821805387805.0
-1.0,5.0,3.0,0.0,-4.0,2.0,0.0,-1.0,1650821805403935.0
-2.0,0.0,3.0,3.0,-2.0,-10.0,-2.0,0.0,1650821805403935.0
1.0,0.0,2.0,1.0,8.0,14.0,4.0,0.0,1650821805405954.0
0.0,0.0,-1.0,0.0,5.0,8.0,1.0,-1.0,1650821805405954.0
0.0,-1.0,-6.0,-5.0,-5.0,-9.0,-4.0,-2.0,1650821805427042.0
-3.0,-2.0,-3.0,-4.0,-27.0,-27.0,-7.0,-1.0,1650821805427042.0
0.0,1.0,-3.0,-3.0,4.0,-2.0,-2.0,-2.0,1650821805428036.0
1.0,-1.0,0.0,-3.0,3.0,12.0,0.0,-2.0,1650821805428036.0
0.0,-2.0,3.0,6.0,24.0,22.0,6.0,0.0,1650821805440859.0
1.0,2.0,0.0,1.0,-5.0,-1.0,3.0,0.0,1650821805440859.0
0.0,0.0,1.0,-2.0,-16.0,-25.0,-6.0,-3.0,1650821805455011.0
-3.0,-3.0,-4.0,-3.0,4.0,5.0,-2.0,-2.0,1650821805455011.0
0.0,-3.0,0.0,-1.0,5.0,12.0,3.0,1.0,1650821805464054.0
1.0,0.0,-1.0,0.0,-2.0,-6.0,-1.0,1.0,1650821805464054.0
-2.0,-1.0,-2.0,-4.0,-18.0,-7.0,-3.0,-2.0,1650821805465982.0
-2.0,0.0,0.0,1.0,12.0,11.0,0.0,2.0,1650821805465982.0
-2.0,0.0,-1.0,2.0,2.0,8.0,1.0,1.0,1650821805487038.0
2.0,1.0,2.0,2.0,19.0,10.0,7.0,2.0,1650821805487038.0
2.0,-1.0,-1.0,-2.0,-9.0,-6.0,1.0,0.0,1650821805488025.0
-1.0,-2.0,-3.0,-4.0,-15.0,-16.0,-6.0,-2.0,1650821805488025.0
0.0,-2.0,-2.0,-2.0,-18.0,-19.0,-5.0,-3.0,1650821805501170.0
-1.0,-3.0,-2.0,-2.0,-1.0,-6.0,-3.0,-2.0,1650821805501170.0
-4.0,0.0,-1.0,-1.0,16.0,14.0,1.0,0.0,1650821805508173.0
6.0,1.0,6.0,6.0,10.0,15.0,3.0,1.0,1650821805508173.0
1.0,3.0,-3.0,-3.0,0.0,-1.0,1.0,0.0,1650821805524442.0
-3.0,-3.0,-2.0,-3.0,-16.0,-11.0,-6.0,-3.0,1650821805524442.0
0.0,0.0,1.0,0.0,-13.0,-25.0,-4.0,-3.0,1650821805525830.0
-3.0,-2.0,0.0,2.0,25.0,27.0,5.0,1.0,1650821805525830.0
0.0,0.0,-2.0,2.0,5.0,10.0,4.0,0.0,1650821805546404.0
-1.0,0.0,1.0,1.0,3.0,6.0,3.0,0.0,1650821805546404.0
0.0,1.0,-4.0,-2.0,-5.0,0.0,-1.0,0.0,1650821805548421.0
-3.0,-2.0,-3.0,-5.0,-17.0,-20.0,-5.0,-3.0,1650821805548421.0
0.0,-4.0,0.0,-1.0,-6.0,-14.0,-4.0,-2.0,1650821805560855.0
-1.0,2.0,-1.0,0.0,5.0,-2.0,0.0,1.0,1650821805560855.0
1.0,-3.0,-1.0,1.0,10.0,28.0,1.0,1.0,1650821805568092.0
-1.0,-1.0,-2.0,-1.0,-9.0,-10.0,-1.0,0.0,1650821805568092.0
-3.0,-2.0,-3.0,-3.0,-6.0,-14.0,-3.0,0.0,1650821805583075.0
0.0,-1.0,0.0,-1.0,-1.0,7.0,-1.0,0.0,1650821805583075.0
0.0,1.0,-2.0,-3.0,-1.0,-6.0,0.0,0.0,1650821805584047.0
0.0,2.0,0.0,-1.0,11.0,-2.0,-2.0,-1.0,1650821805584047.0
-2.0,0.0,2.0,-2.0,-1.0,11.0,2.0,-1.0,1650821805606339.0
-1.0,-3.0,-4.0,1.0,1.0,9.0,3.0,0.0,1650821805606339.0
-1.0,-2.0,1.0,3.0,-2.0,-7.0,-1.0,-1.0,1650821805606339.0
-1.0,-2.0,-2.0,0.0,-4.0,3.0,-1.0,2.0,1650821805606339.0
1.0,2.0,5.0,4.0,1.0,-1.0,0.0,1.0,1650821805619925.0
1.0,-2.0,2.0,0.0,10.0,10.0,3.0,0.0,1650821805619925.0
1.0,-1.0,-4.0,-4.0,-9.0,-12.0,-4.0,-2.0,1650821805627839.0
-3.0,0.0,-5.0,-9.0,-20.0,-25.0,-5.0,-4.0,1650821805627839.0
-1.0,-6.0,-2.0,-2.0,-4.0,14.0,1.0,1.0,1650821805643866.0
0.0,0.0,-2.0,2.0,7.0,13.0,3.0,2.0,1650821805643866.0
-1.0,-4.0,0.0,3.0,9.0,-2.0,2.0,1.0,1650821805643866.0
0.0,0.0,2.0,5.0,14.0,3.0,-1.0,-1.0,1650821805643866.0
0.0,-3.0,-2.0,-2.0,-5.0,-5.0,-4.0,-2.0,1650821805666327.0
1.0,-1.0,-3.0,-3.0,-14.0,-10.0,-2.0,-2.0,1650821805666327.0
-2.0,-2.0,-2.0,-2.0,-3.0,-14.0,-3.0,-3.0,1650821805666327.0
-1.0,0.0,-1.0,0.0,-10.0,11.0,2.0,0.0,1650821805666327.0
1.0,2.0,1.0,2.0,14.0,14.0,5.0,0.0,1650821805688208.0
1.0,1.0,1.0,-2.0,5.0,-2.0,-1.0,0.0,1650821805688208.0
0.0,1.0,-1.0,-3.0,-12.0,-22.0,-2.0,0.0,1650821805689160.0
-2.0,-1.0,1.0,2.0,7.0,4.0,0.0,-1.0,1650821805689160.0
0.0,-4.0,-2.0,-3.0,5.0,7.0,0.0,-1.0,1650821805703168.0
-1.0,-1.0,-3.0,-4.0,-11.0,-15.0,-6.0,-4.0,1650821805703168.0
0.0,3.0,4.0,2.0,-1.0,-2.0,0.0,-1.0,1650821805704098.0
1.0,0.0,-1.0,-1.0,-16.0,6.0,2.0,1.0,1650821805704098.0
-2.0,2.0,2.0,8.0,24.0,16.0,6.0,1.0,1650821805733849.0
-2.0,1.0,1.0,1.0,12.0,8.0,0.0,-1.0,1650821805733849.0
0.0,-2.0,-1.0,0.0,2.0,2.0,1.0,0.0,1650821805734780.0
0.0,0.0,-1.0,-5.0,-10.0,-25.0,-3.0,-3.0,1650821805734780.0
-1.0,-1.0,-2.0,-7.0,-19.0,-17.0,-5.0,-2.0,1650821805749860.0
-2.0,0.0,1.0,3.0,-5.0,2.0,-1.0,0.0,1650821805749860.0
0.0,3.0,2.0,1.0,9.0,22.0,2.0,0.0,1650821805750884.0
0.0,-2.0,-1.0,-2.0,0.0,3.0,3.0,2.0,1650821805750884.0
-1.0,-1.0,-3.0,-3.0,-10.0,-20.0,-4.0,-2.0,1650821805764826.0
-1.0,-2.0,-1.0,0.0,-1.0,-6.0,-3.0,-3.0,1650821805764826.0
0.0,-1.0,-1.0,0.0,9.0,13.0,1.0,1.0,1650821805765826.0
2.0,0.0,1.0,2.0,6.0,3.0,0.0,-1.0,1650821805765826.0
0.0,1.0,-1.0,0.0,-9.0,-9.0,1.0,0.0,1650821805794466.0
-1.0,0.0,-1.0,-1.0,14.0,26.0,3.0,0.0,1650821805794466.0
2.0,1.0,1.0,3.0,2.0,14.0,4.0,1.0,1650821805794805.0
-2.0,-2.0,-1.0,-1.0,-1.0,-19.0,-3.0,0.0,1650821805794805.0
-2.0,1.0,-3.0,-5.0,-17.0,-23.0,-6.0,0.0,1650821805808862.0
-1.0,-6.0,-6.0,-9.0,-17.0,-10.0,-4.0,-1.0,1650821805808862.0
-3.0,-1.0,1.0,5.0,8.0,14.0,1.0,-1.0,1650821805808862.0
1.0,1.0,-1.0,2.0,13.0,8.0,6.0,1.0,1650821805808862.0
0.0,0.0,5.0,2.0,-6.0,-9.0,-1.0,-2.0,1650821805823844.0
0.0,0.0,-1.0,0.0,-4.0,1.0,0.0,1.0,1650821805823844.0
0.0,-2.0,-1.0,-2.0,8.0,-1.0,-2.0,-1.0,1650821805823844.0
-1.0,0.0,0.0,1.0,-2.0,-1.0,-1.0,-1.0,1650821805823844.0
-2.0,-2.0,-2.0,-3.0,-4.0,-2.0,-1.0,-1.0,1650821805846299.0
0.0,0.0,1.0,-1.0,3.0,2.0,-1.0,0.0,1650821805846299.0
-3.0,-3.0,-2.0,-2.0,-1.0,7.0,1.0,0.0,1650821805846299.0
1.0,2.0,0.0,1.0,0.0,2.0,1.0,-1.0,1650821805846299.0
-1.0,1.0,0.0,-2.0,2.0,-9.0,-1.0,-1.0,1650821805868559.0
-1.0,-1.0,-2.0,-1.0,-3.0,-9.0,-5.0,-4.0,1650821805868559.0
-1.0,4.0,-1.0,-1.0,-15.0,-9.0,-1.0,0.0,1650821805869527.0
0.0,-1.0,0.0,0.0,22.0,31.0,0.0,0.0,1650821805869527.0
1.0,1.0,0.0,1.0,9.0,9.0,2.0,0.0,1650821805883184.0
2.0,2.0,4.0,4.0,-5.0,-7.0,5.0,1.0,1650821805883184.0
-3.0,-2.0,-1.0,-3.0,-5.0,-4.0,-2.0,0.0,1650821805884092.0
-2.0,-2.0,-4.0,-3.0,-9.0,-14.0,-7.0,-2.0,1650821805884092.0
1.0,-2.0,-2.0,-4.0,-13.0,-7.0,-5.0,-2.0,1650821805906283.0
-2.0,1.0,-2.0,-2.0,-9.0,-10.0,-2.0,-1.0,1650821805906283.0
0.0,1.0,-1.0,2.0,20.0,8.0,0.0,1.0,1650821805906283.0
0.0,0.0,3.0,3.0,-3.0,4.0,1.0,1.0,1650821805906283.0
1.0,-2.0,-1.0,0.0,10.0,10.0,0.0,1.0,1650821805928832.0
-2.0,1.0,-1.0,-1.0,-3.0,-8.0,-2.0,0.0,1650821805928832.0
-1.0,-2.0,-3.0,-4.0,-17.0,-14.0,-3.0,-3.0,1650821805928832.0
-1.0,-3.0,-2.0,-1.0,-3.0,13.0,4.0,-1.0,1650821805928832.0
-1.0,-3.0,0.0,3.0,-1.0,2.0,2.0,1.0,1650821805950993.0
1.0,0.0,2.0,4.0,31.0,22.0,1.0,1.0,1650821805950993.0
2.0,5.0,4.0,4.0,5.0,5.0,3.0,1.0,1650821805951953.0
1.0,-6.0,-2.0,-1.0,-6.0,-18.0,-1.0,-1.0,1650821805951953.0
-3.0,-3.0,-3.0,-4.0,-16.0,-8.0,-6.0,-3.0,1650821805966036.0
-1.0,-1.0,-2.0,-3.0,-16.0,-13.0,-1.0,-1.0,1650821805966036.0
-1.0,-2.0,-4.0,-2.0,7.0,-8.0,-4.0,-3.0,1650821805967080.0
-1.0,2.0,-3.0,-3.0,-5.0,5.0,-1.0,-1.0,1650821805967080.0
-2.0,-3.0,-4.0,-1.0,3.0,8.0,2.0,-1.0,1650821805988047.0
1.0,0.0,1.0,2.0,-2.0,-2.0,0.0,0.0,1650821805988047.0
1.0,-1.0,2.0,2.0,7.0,0.0,4.0,2.0,1650821805988985.0
0.0,2.0,1.0,3.0,9.0,18.0,2.0,2.0,1650821805988985.0
2.0,1.0,0.0,0.0,10.0,5.0,2.0,1.0,1650821806027930.0
0.0,-1.0,-2.0,-6.0,-23.0,-24.0,-6.0,-3.0,1650821806027930.0
0.0,-1.0,-2.0,-3.0,-7.0,-18.0,-3.0,-3.0,1650821806028888.0
-2.0,-2.0,-1.0,-2.0,4.0,4.0,-1.0,-3.0,1650821806028888.0
-1.0,2.0,1.0,2.0,12.0,15.0,2.0,0.0,1650821806029886.0
1.0,0.0,1.0,6.0,14.0,24.0,10.0,3.0,1650821806029886.0
1.0,0.0,0.0,2.0,-6.0,-1.0,2.0,1.0,1650821806040856.0
-1.0,-3.0,-2.0,-6.0,-13.0,-23.0,-6.0,-3.0,1650821806040856.0
0.0,0.0,-2.0,-5.0,-7.0,-12.0,-6.0,-2.0,1650821806057701.0
-4.0,-1.0,-2.0,-4.0,-17.0,-8.0,-6.0,-3.0,1650821806057701.0
-3.0,-4.0,-2.0,-2.0,4.0,6.0,-3.0,-3.0,1650821806058702.0
0.0,2.0,2.0,5.0,15.0,9.0,3.0,1.0,1650821806058702.0
-2.0,-2.0,2.0,3.0,17.0,17.0,4.0,1.0,1650821806070734.0
1.0,1.0,-1.0,-2.0,-2.0,1.0,0.0,0.0,1650821806070734.0
-1.0,-2.0,-3.0,-4.0,-18.0,-25.0,-4.0,-1.0,1650821806071671.0
-1.0,3.0,-1.0,-1.0,-8.0,0.0,-2.0,0.0,1650821806071671.0
1.0,1.0,-2.0,-4.0,-13.0,-6.0,0.0,0.0,1650821806085657.0
-1.0,2.0,2.0,0.0,13.0,3.0,1.0,-1.0,1650821806085657.0
-1.0,0.0,2.0,2.0,0.0,1.0,-2.0,1.0,1650821806093767.0
-1.0,-3.0,0.0,2.0,5.0,1.0,0.0,0.0,1650821806093767.0
0.0,2.0,0.0,1.0,4.0,5.0,2.0,-1.0,1650821806108797.0
1.0,0.0,0.0,-1.0,-4.0,1.0,0.0,-1.0,1650821806108797.0
-3.0,0.0,-4.0,-4.0,0.0,0.0,0.0,0.0,1650821806108797.0
-1.0,-1.0,0.0,-2.0,-12.0,-17.0,-3.0,0.0,1650821806108797.0
-1.0,-1.0,-2.0,2.0,1.0,4.0,-1.0,-1.0,1650821806130931.0
-1.0,-3.0,-2.0,2.0,-1.0,1.0,0.0,0.0,1650821806130931.0
-1.0,0.0,0.0,2.0,7.0,4.0,0.0,-1.0,1650821806131890.0
0.0,-2.0,-3.0,-1.0,1.0,-7.0,-1.0,-2.0,1650821806131890.0
-1.0,-2.0,-2.0,-5.0,-14.0,-9.0,-2.0,0.0,1650821806144941.0
-2.0,-1.0,-1.0,-1.0,-5.0,-14.0,-5.0,-2.0,1650821806144941.0
2.0,-1.0,-1.0,1.0,10.0,27.0,4.0,1.0,1650821806153917.0
1.0,3.0,0.0,-2.0,6.0,9.0,1.0,0.0,1650821806153917.0
1.0,3.0,4.0,4.0,-4.0,-20.0,-4.0,0.0,1650821806168067.0
-1.0,-2.0,-1.0,-1.0,-9.0,-5.0,-1.0,-1.0,1650821806168067.0
0.0,2.0,-2.0,-1.0,6.0,13.0,4.0,2.0,1650821806168999.0
-1.0,-1.0,-3.0,-2.0,0.0,-4.0,-2.0,-1.0,1650821806168999.0
-1.0,-2.0,0.0,0.0,4.0,-2.0,-2.0,-1.0,1650821806191005.0
-3.0,-2.0,-3.0,-5.0,-31.0,-32.0,-5.0,-1.0,1650821806191005.0
-2.0,-3.0,-1.0,-1.0,14.0,5.0,0.0,-2.0,1650821806191964.0
-2.0,0.0,0.0,2.0,16.0,45.0,4.0,1.0,1650821806191964.0
0.0,1.0,0.0,3.0,11.0,4.0,5.0,0.0,1650821806204870.0
1.0,1.0,4.0,2.0,4.0,1.0,1.0,1.0,1650821806204870.0
-1.0,-2.0,-1.0,-4.0,-15.0,-20.0,-5.0,-3.0,1650821806213921.0
-3.0,-2.0,-4.0,-6.0,-16.0,-23.0,-5.0,-1.0,1650821806213921.0
0.0,1.0,2.0,2.0,2.0,3.0,-2.0,-3.0,1650821806229035.0
-1.0,0.0,1.0,3.0,9.0,19.0,5.0,2.0,1650821806229035.0
0.0,0.0,1.0,-1.0,-10.0,-5.0,0.0,0.0,1650821806229035.0
0.0,0.0,-1.0,-1.0,-7.0,-17.0,-3.0,-1.0,1650821806229035.0
0.0,-2.0,2.0,1.0,1.0,5.0,-2.0,0.0,1650821806258867.0
-2.0,-1.0,-2.0,-4.0,6.0,5.0,-3.0,-1.0,1650821806258867.0
0.0,-2.0,2.0,-2.0,-9.0,-6.0,-3.0,-3.0,1650821806259867.0
-1.0,-1.0,1.0,4.0,6.0,1.0,0.0,0.0,1650821806259867.0
-1.0,-2.0,-4.0,-1.0,0.0,-3.0,1.0,1.0,1650821806264881.0
1.0,4.0,3.0,2.0,4.0,4.0,2.0,0.0,1650821806264881.0
1.0,-3.0,-3.0,-2.0,1.0,11.0,1.0,1.0,1650821806273767.0
0.0,-1.0,-1.0,-4.0,-4.0,-9.0,1.0,-1.0,1650821806273767.0
0.0,-2.0,-3.0,-4.0,-8.0,-9.0,-2.0,-1.0,1650821806288927.0
-1.0,0.0,0.0,2.0,4.0,10.0,2.0,0.0,1650821806288927.0
-1.0,2.0,-1.0,1.0,10.0,11.0,2.0,0.0,1650821806289859.0
0.0,-3.0,0.0,0.0,-13.0,-15.0,-1.0,-1.0,1650821806289859.0
-1.0,-1.0,-2.0,-3.0,-3.0,-8.0,-1.0,-1.0,1650821806328242.0
1.0,-3.0,-3.0,-1.0,17.0,19.0,1.0,0.0,1650821806328242.0
0.0,0.0,-1.0,1.0,-4.0,7.0,1.0,-1.0,1650821806328792.0
0.0,1.0,2.0,1.0,0.0,-11.0,0.0,1.0,1650821806328792.0
-1.0,-2.0,-3.0,-4.0,-11.0,1.0,-1.0,-1.0,1650821806329819.0
0.0,-3.0,-1.0,-5.0,-13.0,-26.0,-6.0,0.0,1650821806329819.0
0.0,2.0,1.0,-1.0,-3.0,1.0,-2.0,-1.0,1650821806333786.0
-3.0,-2.0,-1.0,-2.0,3.0,11.0,0.0,-3.0,1650821806333786.0
-1.0,-1.0,-1.0,0.0,-4.0,-8.0,-1.0,-2.0,1650821806348871.0
0.0,0.0,-3.0,-3.0,1.0,-5.0,0.0,-1.0,1650821806348871.0
0.0,2.0,2.0,1.0,1.0,2.0,2.0,2.0,1650821806348871.0
1.0,1.0,3.0,1.0,-6.0,-3.0,3.0,-2.0,1650821806348871.0
-2.0,-2.0,-4.0,-4.0,-10.0,-7.0,-5.0,-2.0,1650821806370923.0
-1.0,-1.0,-2.0,0.0,14.0,4.0,-3.0,-1.0,1650821806370923.0
0.0,-1.0,2.0,6.0,16.0,11.0,2.0,2.0,1650821806371885.0
3.0,4.0,4.0,7.0,13.0,19.0,8.0,1.0,1650821806371885.0
1.0,-1.0,3.0,1.0,4.0,5.0,4.0,1.0,1650821806395178.0
-1.0,-2.0,-3.0,-3.0,-16.0,-13.0,-4.0,-3.0,1650821806395178.0
-1.0,-3.0,-6.0,-9.0,-28.0,-28.0,-7.0,-4.0,1650821806396131.0
-2.0,1.0,-2.0,-2.0,7.0,-1.0,-4.0,0.0,1650821806396131.0
0.0,0.0,-3.0,-1.0,9.0,17.0,2.0,1.0,1650821806408795.0
0.0,0.0,2.0,2.0,-1.0,-10.0,1.0,1.0,1650821806408795.0
0.0,3.0,0.0,-1.0,-8.0,-5.0,-1.0,-1.0,1650821806408795.0
1.0,-2.0,2.0,2.0,-3.0,2.0,-3.0,-2.0,1650821806408795.0
0.0,2.0,-1.0,0.0,11.0,9.0,0.0,1.0,1650821806431103.0
0.0,-4.0,-2.0,2.0,10.0,11.0,4.0,1.0,1650821806431103.0
0.0,-1.0,-3.0,-1.0,-1.0,-5.0,-1.0,-1.0,1650821806432077.0
-3.0,-2.0,-5.0,-4.0,-10.0,-10.0,-4.0,-2.0,1650821806432077.0
-1.0,0.0,2.0,2.0,-3.0,-6.0,-1.0,-1.0,1650821806455973.0
-1.0,1.0,-1.0,0.0,1.0,5.0,-2.0,-2.0,1650821806455973.0
-1.0,-1.0,-1.0,-4.0,1.0,1.0,0.0,-2.0,1650821806455973.0
0.0,-2.0,0.0,-3.0,-12.0,-14.0,-5.0,-1.0,1650821806455973.0
-1.0,-1.0,-3.0,0.0,0.0,8.0,1.0,0.0,1650821806468541.0
0.0,1.0,2.0,1.0,4.0,15.0,2.0,0.0,1650821806468541.0
1.0,-2.0,-3.0,1.0,7.0,2.0,1.0,1.0,1650821806483792.0
-3.0,-1.0,-1.0,1.0,9.0,1.0,1.0,0.0,1650821806483792.0
1.0,-1.0,1.0,-1.0,1.0,-3.0,1.0,-2.0,1650821806490841.0
0.0,0.0,-3.0,-5.0,-14.0,-16.0,-5.0,-3.0,1650821806490841.0
-2.0,-3.0,0.0,-1.0,-13.0,-26.0,-4.0,-1.0,1650821806491774.0
-2.0,1.0,0.0,1.0,1.0,24.0,1.0,-1.0,1650821806491774.0
2.0,-1.0,3.0,3.0,18.0,24.0,5.0,2.0,1650821806521892.0
1.0,-2.0,-2.0,1.0,3.0,-4.0,1.0,-1.0,1650821806521892.0
0.0,1.0,-1.0,-3.0,1.0,-6.0,-2.0,-1.0,1650821806521892.0
0.0,-1.0,-3.0,-4.0,-6.0,-9.0,-2.0,-1.0,1650821806521892.0
0.0,3.0,-1.0,-1.0,-13.0,-8.0,-3.0,-2.0,1650821806536191.0
-1.0,-1.0,-1.0,-2.0,0.0,2.0,-1.0,0.0,1650821806536191.0
0.0,-2.0,-1.0,-1.0,-7.0,-5.0,-2.0,-1.0,1650821806537133.0
-2.0,0.0,-2.0,-2.0,4.0,-5.0,0.0,-2.0,1650821806537133.0
0.0,3.0,2.0,1.0,3.0,5.0,0.0,-1.0,1650821806550927.0
0.0,1.0,0.0,0.0,2.0,8.0,2.0,-2.0,1650821806550927.0
-1.0,-1.0,1.0,-1.0,-6.0,-2.0,-2.0,0.0,1650821806551889.0
0.0,-1.0,-2.0,-5.0,-6.0,1.0,2.0,0.0,1650821806551889.0
0.0,0.0,-1.0,1.0,9.0,-3.0,-3.0,0.0,1650821806573985.0
1.0,1.0,2.0,4.0,18.0,13.0,4.0,1.0,1650821806573985.0
0.0,-2.0,1.0,3.0,6.0,15.0,4.0,2.0,1650821806574985.0
1.0,0.0,-2.0,-2.0,-6.0,-12.0,-6.0,-1.0,1650821806574985.0
-2.0,-1.0,-1.0,-5.0,-15.0,-12.0,-3.0,-1.0,1650821806588868.0
0.0,-1.0,-3.0,-5.0,-10.0,-6.0,-5.0,-3.0,1650821806588868.0
0.0,-1.0,-1.0,0.0,-1.0,-3.0,0.0,-1.0,1650821806588868.0
-2.0,0.0,-2.0,-2.0,1.0,1.0,-1.0,-1.0,1650821806588868.0
0.0,-4.0,-2.0,-4.0,3.0,5.0,-3.0,-1.0,1650821806610927.0
-1.0,1.0,2.0,3.0,3.0,12.0,3.0,0.0,1650821806610927.0
-1.0,2.0,-3.0,1.0,-4.0,-4.0,2.0,1.0,1650821806611858.0
0.0,0.0,1.0,3.0,16.0,-5.0,0.0,0.0,1650821806611858.0
-1.0,-1.0,-1.0,-2.0,2.0,3.0,0.0,0.0,1650821806633940.0
1.0,0.0,0.0,-3.0,-7.0,-3.0,-1.0,0.0,1650821806633940.0
0.0,0.0,-2.0,-3.0,-6.0,-7.0,-4.0,-2.0,1650821806634871.0
1.0,0.0,0.0,-1.0,-8.0,-3.0,0.0,1.0,1650821806634871.0
0.0,-1.0,3.0,6.0,3.0,4.0,1.0,1.0,1650821806648834.0
-1.0,0.0,-2.0,-4.0,-1.0,-3.0,-2.0,0.0,1650821806648834.0
0.0,-1.0,-2.0,-3.0,-1.0,-4.0,-1.0,-2.0,1650821806648834.0
0.0,-3.0,-4.0,-3.0,3.0,3.0,-2.0,0.0,1650821806648834.0
1.0,2.0,-2.0,-1.0,-5.0,-1.0,-2.0,-1.0,1650821806670869.0
-2.0,-4.0,0.0,2.0,3.0,1.0,2.0,-2.0,1650821806670869.0
0.0,0.0,1.0,0.0,6.0,-7.0,-2.0,-2.0,1650821806671800.0
-2.0,0.0,0.0,-3.0,-6.0,-4.0,-2.0,-1.0,1650821806671800.0
0.0,-2.0,-5.0,-4.0,1.0,16.0,3.0,0.0,1650821806694000.0
2.0,5.0,5.0,7.0,4.0,9.0,4.0,4.0,1650821806694000.0
-1.0,-1.0,0.0,1.0,2.0,0.0,0.0,1.0,1650821806695000.0
1.0,-2.0,0.0,-1.0,0.0,-14.0,-4.0,-2.0,1650821806695000.0
-2.0,-3.0,-4.0,-3.0,-9.0,-19.0,-4.0,-2.0,1650821806708068.0
-3.0,-1.0,-1.0,-2.0,-5.0,3.0,0.0,-1.0,1650821806708068.0
-1.0,-3.0,-1.0,-2.0,6.0,18.0,5.0,1.0,1650821806709069.0
1.0,0.0,1.0,1.0,-1.0,4.0,3.0,2.0,1650821806709069.0
0.0,-1.0,1.0,0.0,-1.0,-7.0,1.0,-1.0,1650821806731032.0
-1.0,-3.0,-5.0,-7.0,-5.0,-12.0,-2.0,-2.0,1650821806731032.0
-3.0,3.0,3.0,2.0,0.0,1.0,-3.0,-1.0,1650821806731998.0
0.0,-3.0,-2.0,-3.0,-3.0,9.0,0.0,0.0,1650821806731998.0
0.0,1.0,2.0,0.0,2.0,-1.0,1.0,2.0,1650821806754213.0
0.0,-2.0,-1.0,-2.0,-3.0,-9.0,-5.0,0.0,1650821806754213.0
-1.0,0.0,-1.0,-1.0,0.0,3.0,2.0,-3.0,1650821806755218.0
-2.0,0.0,-1.0,1.0,0.0,4.0,1.0,-1.0,1650821806755218.0
0.0,-1.0,-1.0,-1.0,2.0,-2.0,-2.0,-1.0,1650821806768243.0
1.0,2.0,0.0,1.0,-1.0,-6.0,0.0,2.0,1650821806768243.0
0.0,-4.0,-5.0,-3.0,2.0,5.0,-1.0,0.0,1650821806769175.0
0.0,1.0,1.0,-1.0,3.0,7.0,1.0,-1.0,1650821806769175.0
-2.0,-4.0,0.0,-2.0,-19.0,-27.0,-5.0,-4.0,1650821806790961.0
-2.0,-3.0,-3.0,-5.0,-1.0,3.0,-4.0,-4.0,1650821806790961.0
-1.0,0.0,0.0,2.0,2.0,11.0,1.0,-2.0,1650821806791921.0
2.0,1.0,0.0,3.0,7.0,4.0,2.0,0.0,1650821806791921.0
1.0,-3.0,-2.0,0.0,6.0,0.0,0.0,2.0,1650821806814888.0
-1.0,-1.0,2.0,-1.0,-5.0,-14.0,-5.0,-2.0,1650821806814888.0
-1.0,-1.0,-2.0,-5.0,-1.0,-1.0,0.0,-1.0,1650821806815888.0
-1.0,0.0,-2.0,1.0,-4.0,9.0,1.0,-2.0,1650821806815888.0
-1.0,2.0,-3.0,-4.0,-14.0,-6.0,-2.0,0.0,1650821806828842.0
-1.0,-1.0,0.0,1.0,2.0,-2.0,2.0,0.0,1650821806828842.0
-1.0,-1.0,0.0,3.0,19.0,11.0,0.0,1.0,1650821806828842.0
0.0,1.0,0.0,-1.0,6.0,1.0,1.0,0.0,1650821806828842.0
-1.0,2.0,4.0,6.0,3.0,1.0,-1.0,0.0,1650821806850814.0
-3.0,-2.0,-3.0,-2.0,-9.0,-3.0,-2.0,-1.0,1650821806850814.0
-1.0,-1.0,-2.0,-3.0,-17.0,-15.0,-3.0,-1.0,1650821806851743.0
-1.0,-1.0,2.0,0.0,-7.0,-14.0,-5.0,-2.0,1650821806851743.0
-1.0,-3.0,-3.0,-3.0,2.0,4.0,0.0,0.0,1650821806874441.0
2.0,1.0,0.0,2.0,5.0,15.0,2.0,0.0,1650821806874441.0
1.0,1.0,1.0,2.0,2.0,8.0,3.0,-1.0,1650821806874678.0
-1.0,1.0,-1.0,3.0,6.0,2.0,0.0,1.0,1650821806874678.0
0.0,0.0,1.0,1.0,6.0,2.0,3.0,-1.0,1650821806888769.0
-1.0,-2.0,-3.0,-3.0,-3.0,-4.0,-1.0,-1.0,1650821806888769.0
0.0,-2.0,-2.0,-3.0,-5.0,-3.0,0.0,-1.0,1650821806888769.0
-1.0,-6.0,-4.0,-4.0,-11.0,-5.0,-1.0,0.0,1650821806888769.0
1.0,1.0,1.0,-1.0,-11.0,-1.0,-1.0,0.0,1650821806910864.0
-1.0,-4.0,-2.0,0.0,7.0,-1.0,0.0,0.0,1650821806910864.0
-1.0,1.0,1.0,4.0,20.0,13.0,1.0,0.0,1650821806911796.0
-1.0,1.0,1.0,4.0,9.0,14.0,1.0,-1.0,1650821806911796.0
1.0,-1.0,-1.0,-2.0,0.0,-6.0,0.0,0.0,1650821806933954.0
0.0,1.0,-5.0,-5.0,-10.0,-3.0,-2.0,0.0,1650821806933954.0
0.0,1.0,4.0,0.0,-16.0,-17.0,-3.0,-1.0,1650821806934887.0
0.0,-1.0,-1.0,-1.0,-4.0,-10.0,-2.0,-1.0,1650821806934887.0
-3.0,0.0,-1.0,0.0,1.0,8.0,-1.0,-2.0,1650821806948849.0
0.0,0.0,2.0,1.0,2.0,15.0,3.0,0.0,1650821806948849.0
1.0,0.0,0.0,-1.0,4.0,1.0,1.0,-1.0,1650821806948849.0
-1.0,-2.0,-4.0,-2.0,-4.0,-1.0,0.0,-2.0,1650821806948849.0
-1.0,0.0,0.0,-2.0,0.0,-10.0,-5.0,-2.0,1650821806980004.0
0.0,1.0,-1.0,0.0,-4.0,-5.0,-1.0,0.0,1650821806980004.0
-2.0,-1.0,0.0,1.0,2.0,13.0,4.0,1.0,1650821806980004.0
1.0,1.0,2.0,0.0,3.0,5.0,3.0,1.0,1650821806980004.0
0.0,-1.0,-2.0,-2.0,6.0,2.0,-1.0,-2.0,1650821807010838.0
-2.0,0.0,-1.0,-1.0,-3.0,-9.0,-4.0,-2.0,1650821807010838.0
-2.0,-4.0,-2.0,-2.0,-15.0,-8.0,-1.0,-1.0,1650821807010838.0
0.0,-1.0,-3.0,-3.0,-6.0,-23.0,-6.0,0.0,1650821807010838.0
-1.0,-2.0,3.0,6.0,10.0,13.0,0.0,-1.0,1650821807012855.0
0.0,2.0,2.0,3.0,11.0,23.0,4.0,0.0,1650821807012855.0
0.0,1.0,-1.0,1.0,6.0,1.0,-1.0,-2.0,1650821807015843.0
0.0,-2.0,-4.0,-4.0,-13.0,-19.0,-2.0,-1.0,1650821807015843.0
-1.0,0.0,-1.0,-2.0,-3.0,-8.0,-2.0,-1.0,1650821807030843.0
0.0,-3.0,0.0,-1.0,-2.0,5.0,1.0,0.0,1650821807030843.0
-1.0,0.0,-4.0,-3.0,-1.0,6.0,1.0,1.0,1650821807031803.0
0.0,1.0,5.0,5.0,4.0,0.0,1.0,1.0,1650821807031803.0
0.0,-2.0,-1.0,-2.0,3.0,-3.0,2.0,-2.0,1650821807061917.0
0.0,-1.0,-1.0,0.0,-4.0,-9.0,-1.0,0.0,1650821807061917.0
-1.0,0.0,-2.0,-4.0,-6.0,-8.0,-4.0,0.0,1650821807061917.0
-1.0,0.0,-3.0,-5.0,2.0,6.0,-1.0,-1.0,1650821807061917.0
-3.0,-1.0,3.0,4.0,-5.0,1.0,0.0,0.0,1650821807067863.0
1.0,-1.0,-2.0,-3.0,-5.0,-10.0,-4.0,-2.0,1650821807067863.0
-1.0,-2.0,-2.0,-1.0,-8.0,-11.0,-4.0,-3.0,1650821807068833.0
-1.0,0.0,1.0,1.0,10.0,12.0,2.0,0.0,1650821807068833.0
0.0,1.0,-1.0,0.0,2.0,16.0,4.0,2.0,1650821807092432.0
0.0,-2.0,1.0,3.0,15.0,8.0,4.0,1.0,1650821807092432.0
0.0,1.0,0.0,0.0,3.0,-5.0,-2.0,0.0,1650821807092432.0
1.0,-2.0,-1.0,-5.0,-19.0,-21.0,-5.0,-3.0,1650821807092432.0
-2.0,-2.0,0.0,-1.0,-5.0,1.0,-1.0,-1.0,1650821807121695.0
0.0,-1.0,-1.0,-2.0,4.0,14.0,-1.0,-1.0,1650821807121695.0
0.0,-1.0,-2.0,-3.0,0.0,0.0,1.0,0.0,1650821807122653.0
-4.0,-2.0,-1.0,-3.0,-8.0,-5.0,-3.0,-1.0,1650821807122653.0
1.0,1.0,-1.0,1.0,6.0,-4.0,1.0,1.0,1650821807128637.0
-2.0,0.0,-2.0,-2.0,0.0,-11.0,-1.0,-1.0,1650821807128637.0
1.0,2.0,1.0,1.0,6.0,12.0,2.0,1.0,1650821807128637.0
0.0,-2.0,1.0,2.0,-6.0,3.0,0.0,-1.0,1650821807128637.0
0.0,0.0,-2.0,-4.0,-13.0,-19.0,-4.0,-3.0,1650821807150823.0
0.0,0.0,1.0,0.0,4.0,5.0,-1.0,2.0,1650821807150823.0
1.0,-1.0,-2.0,-3.0,6.0,12.0,3.0,-2.0,1650821807151756.0
0.0,0.0,-1.0,-2.0,2.0,1.0,2.0,-1.0,1650821807151756.0
-1.0,-2.0,-2.0,-3.0,-1.0,-6.0,-2.0,0.0,1650821807174467.0
-1.0,-3.0,-1.0,-1.0,-11.0,-14.0,-1.0,0.0,1650821807174467.0
-2.0,-3.0,-2.0,-1.0,0.0,-10.0,-3.0,-1.0,1650821807174802.0
-1.0,0.0,1.0,2.0,11.0,8.0,-1.0,1.0,1650821807174802.0
-1.0,-2.0,-3.0,-3.0,-3.0,20.0,4.0,2.0,1650821807187952.0
-1.0,0.0,-1.0,-1.0,0.0,2.0,1.0,-1.0,1650821807187952.0
0.0,0.0,3.0,3.0,-4.0,-8.0,0.0,2.0,1650821807195936.0
1.0,-1.0,-1.0,-4.0,-10.0,-14.0,-2.0,1.0,1650821807195936.0
-1.0,0.0,-2.0,-5.0,-6.0,-8.0,-2.0,-1.0,1650821807210921.0
1.0,-1.0,-1.0,2.0,14.0,13.0,-1.0,-1.0,1650821807210921.0
0.0,0.0,0.0,0.0,2.0,3.0,0.0,-1.0,1650821807211879.0
-1.0,-1.0,2.0,1.0,2.0,-3.0,1.0,-2.0,1650821807211879.0
2.0,0.0,-2.0,0.0,0.0,7.0,1.0,0.0,1650821807233017.0
0.0,0.0,2.0,1.0,1.0,4.0,3.0,2.0,1650821807233017.0
-1.0,-2.0,-1.0,-2.0,-3.0,-12.0,-3.0,0.0,1650821807233951.0
-1.0,-1.0,-3.0,-3.0,0.0,2.0,-2.0,-2.0,1650821807233951.0
-1.0,-2.0,1.0,-1.0,-2.0,-1.0,-2.0,-1.0,1650821807247370.0
0.0,2.0,2.0,1.0,0.0,-11.0,-1.0,-2.0,1650821807247370.0
0.0,-1.0,-1.0,-2.0,-8.0,-9.0,-5.0,-3.0,1650821807256332.0
-1.0,-1.0,-2.0,1.0,0.0,13.0,1.0,1.0,1650821807256332.0
-1.0,-1.0,0.0,3.0,14.0,16.0,5.0,1.0,1650821807271323.0
-1.0,1.0,1.0,0.0,-2.0,-4.0,-1.0,1.0,1650821807271323.0
-1.0,-1.0,-2.0,-6.0,-20.0,-20.0,-1.0,1.0,1650821807271323.0
0.0,2.0,1.0,1.0,8.0,2.0,0.0,-2.0,1650821807271323.0
1.0,2.0,2.0,3.0,17.0,14.0,2.0,1.0,1650821807293766.0
1.0,0.0,1.0,2.0,-4.0,3.0,1.0,0.0,1650821807293766.0
-1.0,1.0,0.0,0.0,-1.0,-9.0,0.0,0.0,1650821807293939.0
1.0,-3.0,-5.0,-4.0,-2.0,10.0,1.0,1.0,1650821807293939.0
-2.0,-1.0,-3.0,-4.0,-6.0,-5.0,1.0,-2.0,1650821807308902.0
-1.0,-1.0,-2.0,-3.0,-8.0,-13.0,-4.0,-1.0,1650821807308902.0
-1.0,0.0,0.0,2.0,3.0,2.0,-2.0,-2.0,1650821807315847.0
0.0,0.0,3.0,-1.0,-4.0,0.0,1.0,0.0,1650821807315847.0
1.0,0.0,-2.0,-4.0,-1.0,-4.0,-3.0,-2.0,1650821807330936.0
-3.0,-4.0,-5.0,-6.0,-16.0,-14.0,-3.0,-3.0,1650821807330936.0
-3.0,-2.0,-2.0,0.0,1.0,10.0,2.0,-1.0,1650821807338916.0
2.0,1.0,5.0,5.0,20.0,23.0,6.0,5.0,1650821807338916.0
2.0,1.0,7.0,9.0,3.0,5.0,3.0,1.0,1650821807353806.0
-6.0,-6.0,-7.0,-6.0,-9.0,-18.0,-4.0,-4.0,1650821807353806.0
-3.0,-2.0,-7.0,-13.0,0.0,-3.0,-1.0,1.0,1650821807353806.0
-1.0,0.0,2.0,0.0,-5.0,3.0,-2.0,0.0,1650821807353806.0
2.0,1.0,0.0,-3.0,1.0,-15.0,-4.0,0.0,1650821807368893.0
-2.0,4.0,1.0,5.0,5.0,3.0,-4.0,-9.0,1650821807368893.0
-4.0,-5.0,-1.0,3.0,4.0,12.0,4.0,1.0,1650821807375908.0
-13.0,-1.0,1.0,0.0,-10.0,-5.0,9.0,15.0,1650821807375908.0
14.0,0.0,-1.0,2.0,-3.0,-5.0,-2.0,4.0,1650821807399088.0
1.0,0.0,-1.0,-4.0,0.0,-3.0,-4.0,-13.0,1650821807399088.0
5.0,10.0,1.0,-5.0,-3.0,-6.0,-12.0,-9.0,1650821807400047.0
-7.0,-1.0,5.0,3.0,-1.0,-11.0,-2.0,-17.0,1650821807400047.0
-1.0,2.0,-4.0,0.0,-9.0,2.0,12.0,27.0,1650821807413051.0
5.0,0.0,9.0,14.0,19.0,17.0,14.0,19.0,1650821807413051.0
-4.0,-3.0,-6.0,-12.0,-6.0,1.0,-6.0,-14.0,1650821807413986.0
11.0,10.0,2.0,13.0,15.0,11.0,4.0,0.0,1650821807413986.0
-8.0,-13.0,-14.0,-4.0,0.0,-3.0,-7.0,-12.0,1650821807428122.0
3.0,14.0,-6.0,-8.0,-10.0,-4.0,-1.0,13.0,1650821807428122.0
0.0,-4.0,9.0,6.0,-14.0,-12.0,4.0,5.0,1650821807436169.0
22.0,-23.0,-24.0,-43.0,-6.0,-13.0,-8.0,26.0,1650821807436169.0
-24.0,4.0,-7.0,1.0,-3.0,-7.0,-24.0,-86.0,1650821807450769.0
11.0,20.0,6.0,9.0,11.0,17.0,22.0,28.0,1650821807450769.0
-1.0,14.0,23.0,24.0,6.0,1.0,1.0,5.0,1650821807451699.0
7.0,-23.0,11.0,8.0,2.0,4.0,4.0,0.0,1650821807451699.0
3.0,2.0,-25.0,-25.0,-3.0,5.0,-2.0,17.0,1650821807473799.0
-23.0,-5.0,-23.0,-22.0,-23.0,-24.0,-22.0,-35.0,1650821807473799.0
13.0,10.0,0.0,10.0,16.0,4.0,-3.0,-6.0,1650821807473799.0
-5.0,34.0,40.0,18.0,4.0,7.0,12.0,12.0,1650821807473799.0
23.0,1.0,-9.0,14.0,17.0,23.0,10.0,22.0,1650821807497016.0
-53.0,-68.0,-23.0,-11.0,-15.0,-10.0,-1.0,-3.0,1650821807497016.0
-2.0,-39.0,-14.0,-9.0,-1.0,3.0,36.0,26.0,1650821807497016.0
8.0,-10.0,-20.0,-4.0,-10.0,-18.0,-33.0,-30.0,1650821807497016.0
11.0,58.0,12.0,-2.0,-15.0,-28.0,-25.0,-32.0,1650821807511041.0
34.0,67.0,48.0,20.0,3.0,11.0,-3.0,25.0,1650821807511041.0
-27.0,-55.0,0.0,-5.0,10.0,14.0,-11.0,-42.0,1650821807512000.0
-32.0,-12.0,-21.0,-14.0,-6.0,-7.0,-17.0,-31.0,1650821807512000.0
10.0,14.0,6.0,9.0,2.0,1.0,24.0,55.0,1650821807533791.0
-1.0,-38.0,-29.0,-4.0,3.0,-1.0,7.0,-6.0,1650821807533791.0
20.0,63.0,38.0,13.0,-7.0,-8.0,-12.0,-6.0,1650821807534213.0
-3.0,-8.0,-11.0,-6.0,-1.0,-4.0,-8.0,-14.0,1650821807534213.0
-22.0,17.0,-7.0,-16.0,-15.0,-27.0,-16.0,-14.0,1650821807557000.0
5.0,-11.0,-2.0,4.0,9.0,25.0,14.0,21.0,1650821807557000.0
35.0,-17.0,16.0,17.0,25.0,32.0,10.0,13.0,1650821807557000.0
-41.0,48.0,11.0,14.0,27.0,23.0,-8.0,-49.0,1650821807557000.0
-9.0,-50.0,21.0,3.0,-25.0,-32.0,8.0,27.0,1650821807571140.0
1.0,30.0,-5.0,-6.0,-5.0,-10.0,4.0,7.0,1650821807571140.0
-34.0,24.0,-2.0,-4.0,12.0,8.0,3.0,41.0,1650821807571140.0
-7.0,-52.0,-26.0,-12.0,-17.0,-10.0,5.0,-7.0,1650821807571140.0
-4.0,-11.0,-7.0,-13.0,-22.0,-27.0,-9.0,-11.0,1650821807593767.0
1.0,48.0,33.0,22.0,2.0,5.0,-6.0,-9.0,1650821807593767.0
25.0,0.0,-3.0,-4.0,11.0,16.0,-13.0,-41.0,1650821807594323.0
-15.0,-12.0,-20.0,-6.0,-2.0,-10.0,15.0,48.0,1650821807594323.0
2.0,6.0,-16.0,2.0,29.0,35.0,20.0,36.0,1650821807615895.0
-1.0,-20.0,13.0,7.0,-17.0,-15.0,-11.0,-33.0,1650821807615895.0
-1.0,-8.0,1.0,-8.0,-3.0,-12.0,-11.0,-4.0,1650821807623791.0
28.0,24.0,33.0,5.0,-3.0,-8.0,5.0,8.0,1650821807623791.0
-16.0,-22.0,-14.0,-10.0,-23.0,-14.0,1.0,-9.0,1650821807630842.0
6.0,6.0,-14.0,4.0,14.0,12.0,-11.0,-10.0,1650821807630842.0
11.0,18.0,1.0,6.0,11.0,8.0,8.0,3.0,1650821807631772.0
-24.0,-30.0,4.0,-5.0,-22.0,-14.0,-7.0,-2.0,1650821807631772.0
5.0,19.0,1.0,6.0,10.0,6.0,-6.0,-6.0,1650821807653844.0
24.0,-2.0,36.0,-3.0,-3.0,2.0,9.0,8.0,1650821807653844.0
-22.0,-31.0,-34.0,-16.0,-26.0,-25.0,-6.0,-3.0,1650821807653844.0
2.0,-10.0,-35.0,-2.0,19.0,17.0,-9.0,-8.0,1650821807653844.0
14.0,9.0,29.0,16.0,29.0,24.0,2.0,-2.0,1650821807677028.0
7.0,-9.0,-24.0,-25.0,6.0,14.0,-8.0,-37.0,1650821807677028.0
-20.0,-24.0,-12.0,12.0,-22.0,-26.0,-16.0,-36.0,1650821807678028.0
21.0,21.0,14.0,5.0,-6.0,8.0,26.0,56.0,1650821807678028.0
6.0,-3.0,10.0,-5.0,2.0,7.0,24.0,27.0,1650821807691059.0
3.0,-10.0,5.0,-2.0,-15.0,-28.0,4.0,62.0,1650821807691059.0
-17.0,-5.0,-16.0,-7.0,5.0,-4.0,-19.0,-76.0,1650821807692026.0
27.0,21.0,7.0,13.0,25.0,30.0,12.0,-8.0,1650821807692026.0
-33.0,-40.0,-34.0,-6.0,2.0,7.0,-11.0,-37.0,1650821807713000.0
-17.0,-6.0,-14.0,-12.0,-15.0,-24.0,-19.0,-9.0,1650821807713000.0
4.0,18.0,18.0,14.0,-17.0,-19.0,-2.0,20.0,1650821807713932.0
-1.0,23.0,-16.0,-22.0,-16.0,-10.0,-3.0,11.0,1650821807713932.0
7.0,-41.0,-9.0,9.0,14.0,14.0,8.0,3.0,1650821807736062.0
1.0,17.0,8.0,10.0,28.0,28.0,11.0,9.0,1650821807736062.0
-6.0,-3.0,-8.0,-15.0,-1.0,9.0,10.0,30.0,1650821807736989.0
12.0,7.0,15.0,4.0,-17.0,-22.0,-5.0,-21.0,1650821807736989.0
0.0,-1.0,37.0,9.0,-5.0,-17.0,-8.0,15.0,1650821807750863.0
-13.0,-9.0,-38.0,-24.0,-18.0,-14.0,-18.0,-31.0,1650821807750863.0
22.0,-15.0,-12.0,4.0,13.0,19.0,15.0,62.0,1650821807751792.0
-8.0,16.0,-3.0,11.0,4.0,9.0,-7.0,-54.0,1650821807751792.0
4.0,11.0,0.0,-19.0,-19.0,-20.0,-7.0,-15.0,1650821807773769.0
-12.0,-5.0,20.0,15.0,11.0,4.0,23.0,64.0,1650821807773769.0
-7.0,-13.0,-25.0,-6.0,4.0,10.0,-2.0,-2.0,1650821807773769.0
74.0,0.0,-11.0,4.0,-10.0,-15.0,-22.0,-27.0,1650821807773769.0
-24.0,5.0,8.0,0.0,18.0,10.0,10.0,59.0,1650821807797019.0
17.0,-34.0,-16.0,5.0,4.0,18.0,12.0,3.0,1650821807797019.0
-17.0,20.0,-20.0,-8.0,0.0,1.0,34.0,60.0,1650821807797019.0
-26.0,-49.0,-5.0,5.0,-1.0,4.0,-5.0,-16.0,1650821807797019.0
12.0,24.0,-4.0,4.0,-4.0,-2.0,-22.0,-42.0,1650821807811134.0
-1.0,-4.0,-10.0,-9.0,2.0,-14.0,-26.0,-60.0,1650821807811134.0
2.0,25.0,14.0,4.0,-4.0,3.0,4.0,16.0,1650821807812065.0
-4.0,4.0,8.0,8.0,8.0,8.0,23.0,50.0,1650821807812065.0
11.0,27.0,35.0,14.0,17.0,21.0,14.0,7.0,1650821807833272.0
-7.0,-8.0,6.0,9.0,-5.0,-3.0,3.0,8.0,1650821807833272.0
18.0,20.0,9.0,-12.0,-25.0,-27.0,-18.0,-40.0,1650821807834244.0
-32.0,-14.0,-18.0,-4.0,6.0,-25.0,-12.0,-5.0,1650821807834244.0
8.0,0.0,7.0,3.0,-9.0,16.0,17.0,38.0,1650821807857402.0
-6.0,-16.0,6.0,4.0,-1.0,8.0,-4.0,-44.0,1650821807857402.0
2.0,-25.0,8.0,-2.0,26.0,14.0,-1.0,0.0,1650821807857402.0
6.0,26.0,29.0,6.0,0.0,-1.0,0.0,18.0,1650821807857402.0
-17.0,-9.0,-7.0,-3.0,-11.0,-19.0,-16.0,-13.0,1650821807870538.0
14.0,19.0,-40.0,-17.0,-16.0,-12.0,8.0,-8.0,1650821807870538.0
-12.0,28.0,8.0,6.0,-6.0,-8.0,-8.0,22.0,1650821807871469.0
21.0,-4.0,2.0,-6.0,0.0,11.0,10.0,-42.0,1650821807871469.0
-10.0,-8.0,0.0,8.0,13.0,16.0,0.0,11.0,1650821807893625.0
5.0,-14.0,30.0,5.0,-2.0,0.0,1.0,17.0,1650821807893625.0
-38.0,-8.0,9.0,-2.0,-8.0,-9.0,-8.0,-17.0,1650821807894557.0
26.0,3.0,-13.0,-11.0,-15.0,-19.0,-35.0,-38.0,1650821807894557.0
-63.0,-10.0,-7.0,-2.0,5.0,-10.0,-4.0,-19.0,1650821807924203.0
22.0,20.0,-5.0,6.0,21.0,30.0,22.0,42.0,1650821807924203.0
-10.0,-26.0,-38.0,-3.0,4.0,8.0,0.0,-8.0,1650821807925202.0
-2.0,-2.0,21.0,-3.0,-18.0,-5.0,7.0,30.0,1650821807925202.0
12.0,-20.0,-8.0,4.0,-7.0,-3.0,-13.0,-33.0,1650821807939232.0
-20.0,-13.0,-11.0,-19.0,5.0,-9.0,-9.0,-3.0,1650821807939232.0
9.0,-18.0,-22.0,-1.0,1.0,-1.0,-6.0,-19.0,1650821807940190.0
-15.0,19.0,17.0,19.0,17.0,12.0,11.0,10.0,1650821807940190.0
14.0,2.0,-2.0,-26.0,-12.0,1.0,2.0,-4.0,1650821807962323.0
13.0,15.0,6.0,5.0,-6.0,-8.0,12.0,18.0,1650821807962323.0
13.0,16.0,10.0,-14.0,-16.0,-13.0,0.0,12.0,1650821807963261.0
-21.0,-16.0,-38.0,-10.0,-6.0,-7.0,0.0,13.0,1650821807963261.0
-1.0,-17.0,0.0,1.0,-10.0,-5.0,-13.0,-12.0,1650821807976361.0
-22.0,-9.0,-4.0,-3.0,-3.0,-3.0,-21.0,-30.0,1650821807976361.0
25.0,24.0,19.0,8.0,16.0,9.0,-7.0,-8.0,1650821807983249.0
-13.0,-5.0,16.0,4.0,7.0,9.0,11.0,37.0,1650821807983249.0
3.0,-15.0,-14.0,-6.0,-14.0,-23.0,-1.0,-40.0,1650821807992226.0
-4.0,-5.0,-45.0,-8.0,-18.0,-10.0,-10.0,-25.0,1650821807992226.0
-8.0,0.0,21.0,13.0,11.0,19.0,26.0,52.0,1650821807993225.0
32.0,22.0,18.0,9.0,35.0,25.0,-2.0,-12.0,1650821807993225.0
10.0,3.0,2.0,-9.0,5.0,-1.0,-6.0,0.0,1650821808013358.0
-9.0,-6.0,23.0,10.0,0.0,-16.0,-8.0,-7.0,1650821808013358.0
-10.0,8.0,13.0,-11.0,-17.0,-4.0,1.0,-4.0,1650821808014316.0
-18.0,-24.0,-30.0,-16.0,-35.0,-18.0,-15.0,-8.0,1650821808014316.0
1.0,-12.0,-14.0,5.0,18.0,19.0,9.0,-1.0,1650821808036871.0
9.0,10.0,21.0,-1.0,0.0,12.0,7.0,13.0,1650821808036871.0
0.0,-15.0,-24.0,-6.0,5.0,-2.0,-4.0,-16.0,1650821808036871.0
-10.0,7.0,-24.0,-10.0,2.0,-7.0,1.0,2.0,1650821808036871.0
2.0,9.0,1.0,-3.0,-17.0,-23.0,-12.0,-14.0,1650821808049903.0
-6.0,6.0,7.0,22.0,-7.0,-11.0,2.0,15.0,1650821808049903.0
19.0,5.0,25.0,-9.0,8.0,12.0,8.0,9.0,1650821808058826.0
-28.0,-12.0,-37.0,-16.0,-9.0,-7.0,-18.0,-28.0,1650821808058826.0
8.0,-4.0,18.0,10.0,4.0,2.0,13.0,43.0,1650821808073869.0
2.0,-2.0,-2.0,-3.0,-2.0,-6.0,-10.0,-22.0,1650821808073869.0
10.0,-1.0,-7.0,12.0,-5.0,-3.0,10.0,35.0,1650821808073869.0
-12.0,-4.0,15.0,-2.0,-4.0,9.0,2.0,-20.0,1650821808073869.0
29.0,-1.0,-13.0,-1.0,0.0,2.0,-5.0,-8.0,1650821808097021.0
13.0,20.0,16.0,-8.0,-9.0,-16.0,-8.0,12.0,1650821808097021.0
-19.0,-3.0,-32.0,-1.0,15.0,-2.0,-19.0,-49.0,1650821808097209.0
-5.0,21.0,33.0,10.0,5.0,13.0,8.0,22.0,1650821808097209.0
2.0,-4.0,12.0,-1.0,-4.0,1.0,13.0,15.0,1650821808110244.0
0.0,-7.0,-13.0,5.0,13.0,4.0,-1.0,-6.0,1650821808110244.0
24.0,0.0,34.0,8.0,-1.0,7.0,21.0,36.0,1650821808118822.0
-2.0,-1.0,-6.0,4.0,15.0,15.0,6.0,-6.0,1650821808118822.0
1.0,17.0,20.0,12.0,7.0,14.0,5.0,-8.0,1650821808133798.0
-6.0,-12.0,-27.0,-25.0,-9.0,-13.0,-12.0,8.0,1650821808133798.0
-13.0,-35.0,30.0,11.0,-13.0,-24.0,-3.0,4.0,1650821808133798.0
19.0,15.0,21.0,17.0,-7.0,-4.0,4.0,5.0,1650821808133798.0
-28.0,-14.0,-13.0,-16.0,3.0,7.0,-2.0,-2.0,1650821808156941.0
8.0,-1.0,13.0,3.0,7.0,3.0,-3.0,1.0,1650821808156941.0
7.0,9.0,-36.0,-15.0,2.0,7.0,3.0,-6.0,1650821808156941.0
1.0,-11.0,12.0,4.0,-6.0,-4.0,9.0,2.0,1650821808156941.0
4.0,-3.0,2.0,0.0,-8.0,-16.0,-4.0,14.0,1650821808170005.0
7.0,16.0,-16.0,-3.0,1.0,4.0,7.0,9.0,1650821808170005.0
-14.0,3.0,11.0,3.0,-1.0,9.0,-9.0,-71.0,1650821808178001.0
-17.0,-6.0,6.0,8.0,17.0,7.0,4.0,23.0,1650821808178001.0
10.0,-14.0,-22.0,-1.0,10.0,11.0,16.0,-4.0,1650821808201940.0
15.0,15.0,-12.0,-7.0,-7.0,-14.0,1.0,24.0,1650821808201940.0
2.0,10.0,30.0,4.0,-23.0,-7.0,-5.0,31.0,1650821808201940.0
-28.0,-27.0,-48.0,-29.0,-14.0,-16.0,-13.0,-49.0,1650821808201940.0
-4.0,37.0,-1.0,-13.0,5.0,6.0,-12.0,-22.0,1650821808217016.0
-2.0,-30.0,26.0,17.0,-8.0,-5.0,23.0,25.0,1650821808217016.0
-8.0,4.0,-2.0,9.0,19.0,-4.0,-3.0,-4.0,1650821808217016.0
3.0,6.0,9.0,-5.0,-2.0,12.0,-1.0,15.0,1650821808217016.0
9.0,-5.0,-13.0,-7.0,-4.0,6.0,-1.0,-2.0,1650821808229974.0
-8.0,-13.0,-20.0,2.0,2.0,3.0,4.0,-25.0,1650821808229974.0
23.0,15.0,-15.0,-12.0,-20.0,-18.0,-8.0,18.0,1650821808238890.0
0.0,-24.0,-9.0,-8.0,-14.0,-31.0,-3.0,5.0,1650821808238890.0
-14.0,-3.0,-64.0,-16.0,-20.0,-4.0,-12.0,-35.0,1650821808261971.0
-20.0,7.0,13.0,4.0,24.0,36.0,-2.0,4.0,1650821808261971.0
12.0,-6.0,14.0,18.0,31.0,27.0,18.0,16.0,1650821808261971.0
22.0,2.0,-23.0,-10.0,-2.0,-11.0,-1.0,-11.0,1650821808261971.0
8.0,20.0,3.0,-9.0,-28.0,-30.0,-2.0,36.0,1650821808276916.0
0.0,8.0,2.0,-7.0,-4.0,-5.0,-6.0,-34.0,1650821808276916.0
-24.0,-8.0,-4.0,-2.0,4.0,7.0,-13.0,-17.0,1650821808276916.0
5.0,-16.0,12.0,1.0,7.0,8.0,3.0,7.0,1650821808276916.0
-3.0,21.0,27.0,19.0,4.0,-3.0,0.0,0.0,1650821808289943.0
17.0,14.0,15.0,4.0,5.0,1.0,1.0,1.0,1650821808289943.0
1.0,-40.0,0.0,-27.0,-33.0,-23.0,-8.0,-10.0,1650821808297952.0
5.0,25.0,24.0,6.0,5.0,-5.0,3.0,40.0,1650821808297952.0
-2.0,16.0,-20.0,7.0,12.0,5.0,1.0,-9.0,1650821808313023.0
-20.0,-21.0,-3.0,11.0,12.0,27.0,8.0,1.0,1650821808313023.0
2.0,-9.0,-32.0,0.0,13.0,11.0,10.0,13.0,1650821808313995.0
-2.0,4.0,11.0,-7.0,-23.0,-11.0,2.0,-10.0,1650821808313995.0
6.0,-22.0,12.0,6.0,33.0,12.0,0.0,11.0,1650821808336210.0
-13.0,12.0,5.0,-3.0,-5.0,2.0,-7.0,-45.0,1650821808336210.0
-6.0,-14.0,-56.0,-11.0,-9.0,-12.0,-5.0,-9.0,1650821808337210.0
-15.0,4.0,26.0,18.0,3.0,3.0,2.0,24.0,1650821808337210.0
10.0,-12.0,-27.0,0.0,1.0,3.0,-1.0,-21.0,1650821808350276.0
6.0,-19.0,-13.0,1.0,-11.0,-6.0,5.0,35.0,1650821808350276.0
-14.0,28.0,8.0,6.0,13.0,5.0,0.0,-8.0,1650821808358419.0
16.0,3.0,-4.0,-1.0,4.0,10.0,2.0,5.0,1650821808358419.0
-5.0,9.0,35.0,3.0,4.0,1.0,-6.0,4.0,1650821808373529.0
-10.0,2.0,-68.0,-9.0,-8.0,-9.0,-2.0,-7.0,1650821808373529.0
4.0,12.0,26.0,2.0,-10.0,-5.0,0.0,-11.0,1650821808374487.0
-3.0,-1.0,-6.0,-6.0,-6.0,-4.0,0.0,10.0,1650821808374487.0
-18.0,-10.0,36.0,3.0,-6.0,-2.0,4.0,44.0,1650821808396509.0
24.0,4.0,-17.0,-16.0,-1.0,-6.0,-12.0,-62.0,1650821808396509.0
8.0,26.0,8.0,8.0,-2.0,-6.0,4.0,12.0,1650821808397510.0
-10.0,-26.0,-33.0,-8.0,-17.0,-16.0,-7.0,-14.0,1650821808397510.0
14.0,3.0,7.0,-4.0,9.0,7.0,6.0,8.0,1650821808410571.0
-7.0,6.0,28.0,20.0,26.0,28.0,3.0,9.0,1650821808410571.0
6.0,7.0,18.0,-4.0,-3.0,-2.0,-10.0,0.0,1650821808418549.0
1.0,-34.0,-68.0,-2.0,2.0,10.0,9.0,-1.0,1650821808418549.0
-12.0,-12.0,-9.0,-8.0,-7.0,-7.0,-7.0,-31.0,1650821808433740.0
2.0,17.0,20.0,-3.0,-34.0,-35.0,11.0,80.0,1650821808433740.0
6.0,-23.0,-14.0,-10.0,9.0,-7.0,-10.0,-73.0,1650821808433740.0
-1.0,18.0,29.0,7.0,18.0,31.0,7.0,18.0,1650821808433740.0
5.0,8.0,11.0,17.0,2.0,8.0,0.0,-13.0,1650821808456787.0
6.0,-4.0,-5.0,-1.0,5.0,-12.0,2.0,16.0,1650821808456787.0
11.0,30.0,21.0,12.0,-1.0,11.0,-3.0,-6.0,1650821808457761.0
-14.0,-13.0,-19.0,-15.0,4.0,-1.0,14.0,56.0,1650821808457761.0
9.0,-23.0,-25.0,-7.0,-23.0,-6.0,-3.0,-37.0,1650821808479924.0
-4.0,-18.0,19.0,-1.0,15.0,4.0,-5.0,1.0,1650821808479924.0
-8.0,4.0,-1.0,-1.0,-9.0,-11.0,-1.0,10.0,1650821808479924.0
4.0,20.0,4.0,7.0,-1.0,-9.0,-6.0,-18.0,1650821808479924.0
4.0,-1.0,-7.0,-15.0,6.0,15.0,5.0,35.0,1650821808493867.0
-8.0,11.0,8.0,7.0,-9.0,-9.0,-11.0,-35.0,1650821808493867.0
2.0,6.0,14.0,5.0,6.0,5.0,3.0,9.0,1650821808493867.0
-1.0,7.0,12.0,2.0,6.0,4.0,-9.0,-16.0,1650821808493867.0
-5.0,2.0,15.0,6.0,-11.0,-11.0,1.0,4.0,1650821808517074.0
2.0,-22.0,-13.0,-14.0,-15.0,-23.0,-4.0,-13.0,1650821808517074.0
-22.0,-1.0,-21.0,-1.0,5.0,22.0,-5.0,-10.0,1650821808517074.0
14.0,13.0,31.0,11.0,21.0,29.0,14.0,2.0,1650821808517074.0
-9.0,-2.0,-11.0,-2.0,9.0,2.0,7.0,7.0,1650821808538861.0
9.0,9.0,23.0,2.0,4.0,4.0,5.0,17.0,1650821808538861.0
-5.0,-8.0,-14.0,-14.0,-22.0,-23.0,-19.0,-57.0,1650821808539860.0
-7.0,-21.0,-4.0,10.0,-2.0,-12.0,-12.0,3.0,1650821808539860.0
11.0,5.0,2.0,5.0,-3.0,-1.0,0.0,1.0,1650821808553880.0
-3.0,9.0,12.0,-11.0,-2.0,12.0,5.0,14.0,1650821808553880.0
3.0,0.0,-17.0,-8.0,1.0,-1.0,4.0,26.0,1650821808553880.0
-1.0,-18.0,28.0,7.0,0.0,-4.0,-6.0,-15.0,1650821808553880.0
-1.0,11.0,-5.0,8.0,5.0,-5.0,4.0,16.0,1650821808576212.0
-2.0,1.0,23.0,4.0,-26.0,-9.0,-9.0,-5.0,1650821808576212.0
-14.0,-14.0,-20.0,0.0,54.0,36.0,3.0,4.0,1650821808577140.0
6.0,24.0,-10.0,3.0,10.0,9.0,3.0,-2.0,1650821808577140.0
3.0,1.0,28.0,8.0,-7.0,-9.0,-2.0,4.0,1650821808598858.0
-5.0,8.0,0.0,-7.0,-18.0,-18.0,-7.0,-21.0,1650821808598858.0
1.0,-1.0,-7.0,0.0,-11.0,-11.0,0.0,8.0,1650821808599857.0
-4.0,-7.0,-26.0,-13.0,-10.0,-6.0,-3.0,-6.0,1650821808599857.0
-19.0,7.0,25.0,6.0,-4.0,-7.0,-7.0,-14.0,1650821808613791.0
22.0,-8.0,20.0,10.0,9.0,4.0,-2.0,3.0,1650821808613791.0
-9.0,-19.0,-29.0,-7.0,-12.0,-9.0,6.0,22.0,1650821808613791.0
10.0,-5.0,4.0,1.0,2.0,-1.0,-1.0,7.0,1650821808613791.0
10.0,27.0,20.0,8.0,6.0,5.0,-8.0,-6.0,1650821808637039.0
-25.0,-13.0,3.0,13.0,21.0,17.0,-1.0,8.0,1650821808637039.0
15.0,9.0,8.0,0.0,-6.0,1.0,13.0,-5.0,1650821808637039.0
5.0,17.0,7.0,-3.0,-8.0,-7.0,-2.0,28.0,1650821808637039.0
-4.0,-2.0,-11.0,-10.0,-11.0,-12.0,-7.0,-22.0,1650821808659155.0
-6.0,-1.0,-13.0,-1.0,15.0,6.0,-2.0,-2.0,1650821808659155.0
14.0,-2.0,5.0,-2.0,-21.0,-9.0,0.0,16.0,1650821808660085.0
-41.0,29.0,17.0,-1.0,0.0,-4.0,1.0,-2.0,1650821808660085.0
21.0,1.0,-1.0,0.0,25.0,22.0,13.0,3.0,1650821808673116.0
-1.0,-4.0,-22.0,3.0,8.0,15.0,9.0,1.0,1650821808673116.0
-4.0,-13.0,-6.0,-5.0,-7.0,-15.0,-6.0,-4.0,1650821808674048.0
14.0,6.0,15.0,2.0,-8.0,-7.0,6.0,-9.0,1650821808674048.0
-8.0,-13.0,8.0,0.0,-6.0,-7.0,-7.0,10.0,1650821808696998.0
15.0,11.0,14.0,-2.0,-1.0,9.0,6.0,31.0,1650821808696998.0
-3.0,5.0,14.0,0.0,-6.0,4.0,-7.0,-35.0,1650821808696998.0
7.0,5.0,-12.0,1.0,9.0,-3.0,1.0,-3.0,1650821808696998.0
-26.0,-11.0,-25.0,-10.0,-11.0,-14.0,-13.0,-17.0,1650821808719904.0
14.0,15.0,0.0,-1.0,-4.0,-7.0,-4.0,42.0,1650821808719904.0
-8.0,-11.0,5.0,-3.0,-15.0,-8.0,1.0,-10.0,1650821808719904.0
6.0,-22.0,-5.0,0.0,2.0,2.0,-3.0,14.0,1650821808719904.0
1.0,2.0,8.0,-4.0,-7.0,-1.0,13.0,-16.0,1650821808732938.0
-17.0,-1.0,-24.0,-15.0,-5.0,-6.0,-11.0,-29.0,1650821808732938.0
-15.0,17.0,29.0,10.0,-10.0,-3.0,-5.0,12.0,1650821808733929.0
13.0,-20.0,-12.0,9.0,15.0,14.0,4.0,-17.0,1650821808733929.0
2.0,-12.0,-17.0,12.0,17.0,-2.0,-3.0,17.0,1650821808757177.0
-14.0,-12.0,17.0,-18.0,-16.0,1.0,-4.0,-25.0,1650821808757177.0
-5.0,-13.0,-40.0,-16.0,-2.0,-1.0,-2.0,-13.0,1650821808758181.0
-4.0,3.0,20.0,9.0,-10.0,-3.0,-1.0,-7.0,1650821808758181.0
-7.0,-21.0,-58.0,-25.0,-5.0,1.0,-3.0,-3.0,1650821808786404.0
-6.0,-3.0,21.0,12.0,11.0,-1.0,1.0,-19.0,1650821808786404.0
11.0,23.0,25.0,12.0,19.0,28.0,7.0,18.0,1650821808787346.0
-11.0,-27.0,-25.0,-19.0,-11.0,1.0,-6.0,-14.0,1650821808787346.0
23.0,16.0,6.0,4.0,8.0,2.0,12.0,37.0,1650821808793347.0
-6.0,4.0,32.0,16.0,16.0,-3.0,3.0,-23.0,1650821808793347.0
-6.0,-14.0,-27.0,-5.0,-6.0,-13.0,-5.0,10.0,1650821808794344.0
15.0,12.0,26.0,-4.0,-16.0,-14.0,-9.0,29.0,1650821808794344.0
-13.0,-10.0,4.0,3.0,-9.0,-3.0,0.0,-49.0,1650821808817448.0
8.0,-22.0,-50.0,-18.0,-13.0,-5.0,0.0,25.0,1650821808817448.0
-6.0,-5.0,35.0,18.0,14.0,9.0,10.0,-24.0,1650821808817448.0
11.0,30.0,8.0,0.0,10.0,7.0,2.0,-13.0,1650821808817448.0
-5.0,43.0,2.0,14.0,5.0,6.0,9.0,26.0,1650821808839570.0
8.0,-48.0,-6.0,0.0,-2.0,3.0,1.0,2.0,1650821808839570.0
-5.0,-16.0,-17.0,-3.0,2.0,-6.0,-10.0,13.0,1650821808839570.0
-13.0,9.0,-22.0,-24.0,-19.0,-15.0,-8.0,-59.0,1650821808839570.0
21.0,7.0,39.0,5.0,-7.0,0.0,0.0,6.0,1650821808853573.0
-8.0,54.0,49.0,16.0,2.0,5.0,-2.0,-17.0,1650821808853573.0
-1.0,-30.0,-36.0,1.0,15.0,7.0,14.0,26.0,1650821808854503.0
-17.0,-34.0,-39.0,-8.0,-9.0,-14.0,-6.0,-3.0,1650821808854503.0
5.0,8.0,-9.0,-7.0,8.0,12.0,-1.0,8.0,1650821808876940.0
6.0,12.0,8.0,8.0,20.0,21.0,7.0,-3.0,1650821808876940.0
5.0,4.0,37.0,7.0,-12.0,-11.0,-5.0,12.0,1650821808876940.0
-1.0,16.0,10.0,3.0,-2.0,-4.0,1.0,3.0,1650821808876940.0
-3.0,-8.0,-17.0,-9.0,-14.0,-10.0,-2.0,3.0,1650821808899011.0
-11.0,-24.0,-23.0,-1.0,4.0,3.0,0.0,-21.0,1650821808899011.0
3.0,15.0,17.0,-2.0,2.0,3.0,1.0,1.0,1650821808899943.0
1.0,1.0,3.0,8.0,-2.0,-2.0,4.0,6.0,1650821808899943.0
-8.0,-15.0,-9.0,-15.0,-15.0,-12.0,-9.0,1.0,1650821808913074.0
1.0,-6.0,-13.0,-2.0,-4.0,-4.0,0.0,-7.0,1650821808913074.0
18.0,14.0,-2.0,1.0,-3.0,1.0,4.0,19.0,1650821808914081.0
8.0,7.0,9.0,6.0,14.0,10.0,2.0,-20.0,1650821808914081.0
-5.0,-11.0,5.0,5.0,-2.0,-2.0,-4.0,-4.0,1650821808936048.0
-7.0,3.0,-12.0,-6.0,-7.0,-14.0,-7.0,-3.0,1650821808936048.0
-3.0,-5.0,-8.0,-9.0,-23.0,-21.0,-5.0,-7.0,1650821808937055.0
-11.0,-3.0,14.0,4.0,5.0,-6.0,6.0,9.0,1650821808937055.0
11.0,-8.0,5.0,5.0,14.0,39.0,4.0,13.0,1650821808959061.0
-7.0,5.0,-6.0,0.0,9.0,20.0,11.0,-20.0,1650821808959061.0
0.0,5.0,-9.0,-6.0,2.0,-18.0,-4.0,6.0,1650821808959993.0
1.0,-3.0,5.0,13.0,-3.0,-3.0,-4.0,1.0,1650821808959993.0
-7.0,-5.0,0.0,0.0,-8.0,-14.0,-4.0,-1.0,1650821808973766.0
0.0,-1.0,-12.0,-38.0,-10.0,2.0,-6.0,5.0,1650821808973766.0
1.0,2.0,-1.0,-11.0,-3.0,6.0,3.0,9.0,1650821808973766.0
3.0,6.0,1.0,-6.0,-1.0,-9.0,0.0,2.0,1650821808973766.0
-2.0,-5.0,-1.0,-2.0,-14.0,-19.0,-3.0,-7.0,1650821808996109.0
3.0,-2.0,12.0,39.0,15.0,1.0,-3.0,14.0,1650821808996109.0
-6.0,5.0,2.0,17.0,16.0,14.0,-1.0,-12.0,1650821809003159.0
1.0,-7.0,-10.0,-38.0,-7.0,5.0,2.0,8.0,1650821809003159.0
1.0,2.0,9.0,17.0,5.0,-10.0,-2.0,5.0,1650821809018875.0
-9.0,1.0,-9.0,-6.0,-8.0,-4.0,-1.0,-7.0,1650821809018875.0
-3.0,-7.0,-9.0,-26.0,-17.0,-5.0,-5.0,6.0,1650821809019876.0
9.0,4.0,5.0,23.0,11.0,13.0,4.0,-6.0,1650821809019876.0
3.0,0.0,-4.0,-10.0,7.0,3.0,4.0,8.0,1650821809033905.0
4.0,-2.0,3.0,4.0,-10.0,-23.0,-8.0,7.0,1650821809033905.0
-32.0,2.0,8.0,20.0,4.0,-3.0,-1.0,-10.0,1650821809034862.0
8.0,-2.0,1.0,-8.0,-3.0,18.0,-2.0,3.0,1650821809034862.0
-3.0,-8.0,-6.0,-9.0,7.0,2.0,0.0,-10.0,1650821809064444.0
-1.0,2.0,-5.0,6.0,0.0,-1.0,10.0,9.0,1650821809064444.0
4.0,2.0,3.0,7.0,7.0,14.0,-1.0,-5.0,1650821809064804.0
-3.0,-3.0,13.0,-19.0,-10.0,-4.0,-2.0,1.0,1650821809064804.0
-2.0,3.0,-2.0,15.0,5.0,-7.0,-2.0,-7.0,1650821809078927.0
4.0,-7.0,-14.0,-7.0,-20.0,-13.0,-5.0,0.0,1650821809078927.0
8.0,-1.0,0.0,2.0,17.0,4.0,1.0,4.0,1650821809079871.0
-4.0,1.0,5.0,21.0,19.0,16.0,2.0,2.0,1650821809079871.0
5.0,-3.0,-6.0,-17.0,-20.0,-6.0,-1.0,-9.0,1650821809101997.0
-8.0,-1.0,-6.0,-11.0,-4.0,-7.0,-2.0,3.0,1650821809101997.0
3.0,-2.0,-2.0,-2.0,-17.0,-24.0,-4.0,-5.0,1650821809102928.0
-5.0,-1.0,-5.0,-3.0,-3.0,8.0,-1.0,2.0,1650821809102928.0
-2.0,0.0,4.0,7.0,3.0,6.0,-2.0,-4.0,1650821809116943.0
2.0,3.0,3.0,9.0,11.0,5.0,2.0,4.0,1650821809116943.0
1.0,0.0,-3.0,-19.0,4.0,14.0,4.0,1.0,1650821809116943.0
2.0,1.0,7.0,12.0,9.0,-3.0,2.0,1.0,1650821809116943.0
-2.0,-2.0,-2.0,-2.0,-6.0,-4.0,-1.0,1.0,1650821809138986.0
1.0,-3.0,-9.0,-13.0,-5.0,-1.0,-4.0,-1.0,1650821809138986.0
3.0,1.0,4.0,1.0,-6.0,-7.0,-4.0,-1.0,1650821809139916.0
0.0,-2.0,1.0,7.0,-6.0,-7.0,-4.0,-1.0,1650821809139916.0
-3.0,-2.0,-4.0,-1.0,-2.0,-2.0,-1.0,-3.0,1650821809152949.0
0.0,-1.0,-2.0,3.0,4.0,5.0,0.0,1.0,1650821809152949.0
3.0,1.0,6.0,-1.0,4.0,5.0,1.0,-1.0,1650821809160926.0
-1.0,-3.0,-3.0,-3.0,-5.0,-10.0,-3.0,0.0,1650821809160926.0
-1.0,1.0,-4.0,6.0,3.0,3.0,0.0,-3.0,1650821809176785.0
2.0,1.0,1.0,-1.0,0.0,0.0,-2.0,-2.0,1650821809176785.0
2.0,2.0,1.0,-1.0,-2.0,3.0,0.0,1.0,1650821809177801.0
-2.0,-4.0,-1.0,5.0,-1.0,-2.0,1.0,-2.0,1650821809177801.0
-1.0,3.0,-2.0,-4.0,7.0,1.0,2.0,1.0,1650821809198799.0
1.0,-2.0,2.0,0.0,4.0,6.0,2.0,2.0,1650821809198799.0
0.0,-4.0,-3.0,0.0,-3.0,0.0,0.0,-1.0,1650821809199727.0
-1.0,-1.0,-9.0,-2.0,-3.0,-6.0,-3.0,0.0,1650821809199727.0
-1.0,3.0,6.0,-5.0,-6.0,-4.0,-3.0,-2.0,1650821809213171.0
-2.0,2.0,-4.0,-10.0,-10.0,-11.0,-3.0,1.0,1650821809213171.0
-1.0,-8.0,-3.0,3.0,7.0,2.0,-2.0,-2.0,1650821809220759.0
1.0,1.0,4.0,5.0,4.0,6.0,1.0,0.0,1650821809220759.0
-1.0,0.0,-2.0,-6.0,-11.0,-6.0,-1.0,0.0,1650821809236974.0
0.0,2.0,-1.0,-1.0,9.0,16.0,5.0,1.0,1650821809236974.0
1.0,8.0,5.0,5.0,4.0,7.0,2.0,1.0,1650821809236974.0
-1.0,-2.0,-4.0,0.0,-9.0,-6.0,0.0,1.0,1650821809236974.0
-3.0,-3.0,-3.0,-3.0,12.0,-4.0,0.0,1.0,1650821809258861.0
-1.0,-2.0,-1.0,2.0,0.0,2.0,-1.0,-1.0,1650821809258861.0
0.0,-1.0,0.0,3.0,-7.0,-10.0,-3.0,-4.0,1650821809259862.0
0.0,-3.0,-4.0,-5.0,-8.0,-11.0,-3.0,-3.0,1650821809259862.0
-2.0,-1.0,0.0,0.0,-13.0,-12.0,-5.0,-1.0,1650821809281976.0
-1.0,-1.0,-1.0,-4.0,-2.0,-6.0,-5.0,0.0,1650821809281976.0
0.0,-4.0,-5.0,1.0,6.0,12.0,3.0,0.0,1650821809281976.0
-1.0,1.0,3.0,-3.0,5.0,14.0,7.0,0.0,1650821809281976.0
0.0,-3.0,6.0,14.0,8.0,3.0,2.0,0.0,1650821809297114.0
-1.0,-2.0,-1.0,2.0,0.0,-4.0,-1.0,0.0,1650821809297114.0
0.0,0.0,-7.0,-4.0,-6.0,-11.0,-3.0,-1.0,1650821809297114.0
0.0,5.0,3.0,-9.0,-11.0,-18.0,-7.0,-2.0,1650821809297114.0
-3.0,-9.0,-5.0,-1.0,-9.0,-9.0,-3.0,-3.0,1650821809319167.0
-1.0,-1.0,-5.0,-3.0,-5.0,6.0,-2.0,0.0,1650821809319167.0
0.0,3.0,8.0,13.0,18.0,28.0,8.0,2.0,1650821809320123.0
3.0,6.0,1.0,1.0,18.0,11.0,5.0,3.0,1650821809320123.0
-2.0,-3.0,0.0,2.0,10.0,6.0,-1.0,0.0,1650821809341261.0
1.0,3.0,7.0,3.0,-7.0,-15.0,-4.0,-1.0,1650821809341261.0
-2.0,-3.0,-5.0,-8.0,-17.0,-20.0,-5.0,-1.0,1650821809342190.0
0.0,1.0,-7.0,-6.0,-5.0,0.0,-3.0,-2.0,1650821809342190.0
1.0,3.0,3.0,-2.0,-5.0,1.0,1.0,0.0,1650821809356900.0
-2.0,-3.0,-3.0,-5.0,-13.0,-9.0,-1.0,-2.0,1650821809356900.0
-1.0,0.0,-2.0,0.0,22.0,10.0,-2.0,-1.0,1650821809356900.0
-3.0,-4.0,0.0,5.0,-2.0,-5.0,-1.0,0.0,1650821809356900.0
1.0,2.0,-6.0,-2.0,2.0,6.0,3.0,0.0,1650821809379359.0
-1.0,-3.0,-2.0,-1.0,9.0,20.0,5.0,0.0,1650821809379359.0
1.0,-1.0,5.0,3.0,-5.0,-4.0,1.0,0.0,1650821809379359.0
0.0,-1.0,-2.0,-3.0,-4.0,-12.0,-2.0,-2.0,1650821809379359.0
-1.0,-4.0,-4.0,-6.0,-9.0,-5.0,-3.0,-2.0,1650821809401518.0
0.0,4.0,2.0,1.0,4.0,-2.0,0.0,0.0,1650821809401518.0
-2.0,-1.0,-1.0,-3.0,0.0,-1.0,-1.0,-1.0,1650821809402537.0
-2.0,-4.0,-6.0,-3.0,-7.0,-3.0,-1.0,-1.0,1650821809402537.0
-1.0,3.0,3.0,0.0,-8.0,-5.0,0.0,-1.0,1650821809416635.0
0.0,-5.0,-3.0,4.0,19.0,15.0,4.0,2.0,1650821809416635.0
1.0,0.0,3.0,1.0,5.0,10.0,1.0,1.0,1650821809417663.0
0.0,0.0,1.0,3.0,-1.0,-5.0,-2.0,1.0,1650821809417663.0
-2.0,-4.0,-5.0,-5.0,-2.0,-6.0,-3.0,-2.0,1650821809438858.0
-2.0,0.0,0.0,-2.0,-10.0,3.0,-1.0,-1.0,1650821809438858.0
0.0,2.0,-5.0,-3.0,-12.0,-7.0,0.0,0.0,1650821809439842.0
-2.0,0.0,-4.0,4.0,12.0,6.0,3.0,-2.0,1650821809439842.0
2.0,4.0,0.0,-1.0,5.0,-2.0,-3.0,-1.0,1650821809461923.0
1.0,-1.0,3.0,-1.0,-19.0,-24.0,-4.0,-1.0,1650821809461923.0
0.0,1.0,-2.0,-1.0,4.0,9.0,-1.0,1.0,1650821809461923.0
2.0,-3.0,-2.0,-1.0,13.0,26.0,1.0,1.0,1650821809461923.0
-1.0,2.0,-8.0,-5.0,2.0,-2.0,1.0,0.0,1650821809476932.0
0.0,0.0,9.0,4.0,-3.0,-10.0,0.0,-2.0,1650821809476932.0
-1.0,2.0,3.0,1.0,-13.0,-7.0,-3.0,-1.0,1650821809476932.0
-2.0,-8.0,-6.0,0.0,-1.0,-1.0,0.0,0.0,1650821809476932.0
1.0,1.0,3.0,1.0,7.0,7.0,1.0,0.0,1650821809498873.0
0.0,1.0,-3.0,-3.0,3.0,5.0,0.0,1.0,1650821809498873.0
0.0,0.0,-2.0,-2.0,-13.0,-17.0,-4.0,-3.0,1650821809499878.0
-2.0,-3.0,2.0,-1.0,5.0,11.0,-1.0,-2.0,1650821809499878.0
1.0,0.0,-2.0,5.0,10.0,17.0,3.0,-1.0,1650821809521918.0
-1.0,-1.0,0.0,2.0,-1.0,-5.0,0.0,-1.0,1650821809521918.0
-1.0,-2.0,1.0,1.0,-1.0,-7.0,0.0,1.0,1650821809521918.0
1.0,0.0,-2.0,-5.0,-9.0,-10.0,-1.0,-2.0,1650821809521918.0
-1.0,0.0,-1.0,-5.0,-6.0,-3.0,-3.0,-1.0,1650821809534868.0
0.0,1.0,-1.0,-3.0,-2.0,-3.0,-1.0,0.0,1650821809534868.0
-2.0,-5.0,-4.0,-2.0,-3.0,-5.0,-3.0,-1.0,1650821809543793.0
0.0,-1.0,3.0,2.0,-2.0,-8.0,-1.0,0.0,1650821809543793.0
2.0,1.0,3.0,1.0,3.0,12.0,5.0,1.0,1650821809559918.0
0.0,1.0,0.0,3.0,11.0,12.0,2.0,1.0,1650821809559918.0
1.0,1.0,-1.0,-1.0,3.0,4.0,1.0,0.0,1650821809560902.0
-2.0,-2.0,-1.0,-3.0,-11.0,-16.0,-7.0,-2.0,1650821809560902.0
-1.0,-2.0,-2.0,-2.0,-1.0,3.0,0.0,0.0,1650821809588926.0
1.0,0.0,-1.0,-2.0,-8.0,-2.0,-1.0,-1.0,1650821809588926.0
-3.0,-4.0,-5.0,-6.0,-18.0,-16.0,-3.0,-1.0,1650821809590855.0
1.0,0.0,3.0,8.0,33.0,34.0,5.0,4.0,1650821809590855.0
-1.0,-1.0,4.0,7.0,21.0,18.0,4.0,1.0,1650821809594844.0
0.0,0.0,-1.0,0.0,3.0,-1.0,1.0,0.0,1650821809594844.0
-1.0,1.0,0.0,-3.0,-12.0,-14.0,-3.0,-1.0,1650821809603860.0
-2.0,0.0,-3.0,-3.0,-23.0,-25.0,-7.0,-3.0,1650821809603860.0
-4.0,-1.0,1.0,-4.0,-9.0,-4.0,-2.0,1.0,1650821809618807.0
-2.0,-4.0,-5.0,-1.0,4.0,9.0,2.0,-2.0,1650821809618807.0
1.0,1.0,3.0,2.0,4.0,-4.0,1.0,-2.0,1650821809620805.0
0.0,0.0,-2.0,-1.0,-6.0,-11.0,-2.0,-2.0,1650821809620805.0
1.0,-1.0,-1.0,1.0,1.0,9.0,1.0,0.0,1650821809641913.0
1.0,2.0,1.0,0.0,2.0,7.0,2.0,2.0,1650821809641913.0
1.0,-2.0,3.0,4.0,10.0,9.0,2.0,0.0,1650821809642845.0
0.0,0.0,-4.0,-3.0,-5.0,-7.0,0.0,1.0,1650821809642845.0
1.0,-1.0,1.0,-1.0,-5.0,-19.0,-5.0,-2.0,1650821809654917.0
-2.0,-7.0,-3.0,-4.0,1.0,4.0,-1.0,-1.0,1650821809654917.0
-2.0,-4.0,-10.0,-9.0,-7.0,-11.0,-3.0,0.0,1650821809663820.0
-1.0,4.0,7.0,4.0,-3.0,11.0,3.0,-1.0,1650821809663820.0
0.0,1.0,6.0,9.0,10.0,16.0,3.0,-1.0,1650821809679090.0
1.0,1.0,0.0,3.0,13.0,11.0,2.0,0.0,1650821809679090.0
1.0,-3.0,-1.0,0.0,-2.0,-6.0,-1.0,-1.0,1650821809681046.0
0.0,-2.0,-7.0,-7.0,-5.0,-12.0,-4.0,-2.0,1650821809681046.0
1.0,-1.0,-4.0,-5.0,-15.0,-14.0,-3.0,-2.0,1650821809701990.0
-2.0,-1.0,0.0,-1.0,-5.0,-6.0,-4.0,-2.0,1650821809701990.0
0.0,0.0,-1.0,-2.0,0.0,1.0,-1.0,-1.0,1650821809702961.0
-1.0,-1.0,2.0,4.0,-3.0,10.0,1.0,-1.0,1650821809702961.0
-1.0,-1.0,3.0,2.0,7.0,10.0,4.0,2.0,1650821809715038.0
0.0,2.0,1.0,1.0,7.0,4.0,-1.0,0.0,1650821809715038.0
-1.0,-1.0,3.0,2.0,0.0,0.0,2.0,-1.0,1650821809723806.0
-1.0,3.0,0.0,-4.0,-14.0,-12.0,-2.0,-1.0,1650821809723806.0
-1.0,-4.0,-3.0,-3.0,13.0,5.0,-1.0,-2.0,1650821809738889.0
0.0,0.0,-1.0,-3.0,-13.0,-14.0,-3.0,-1.0,1650821809738889.0
-1.0,0.0,-2.0,-2.0,-1.0,-8.0,-5.0,-1.0,1650821809740886.0
0.0,2.0,1.0,1.0,3.0,15.0,3.0,2.0,1650821809740886.0
0.0,2.0,0.0,0.0,-8.0,-3.0,1.0,-1.0,1650821809761923.0
0.0,-2.0,-2.0,1.0,10.0,0.0,-2.0,-1.0,1650821809761923.0
0.0,1.0,3.0,2.0,2.0,7.0,-1.0,-1.0,1650821809762858.0
-1.0,-5.0,-3.0,-3.0,-9.0,-4.0,-1.0,-3.0,1650821809762858.0
0.0,-2.0,-2.0,-4.0,-2.0,-9.0,-3.0,0.0,1650821809774873.0
-1.0,0.0,-1.0,1.0,1.0,-7.0,1.0,-1.0,1650821809774873.0
-1.0,0.0,1.0,3.0,7.0,12.0,2.0,-1.0,1650821809783896.0
0.0,0.0,0.0,-3.0,3.0,3.0,2.0,2.0,1650821809783896.0
-1.0,0.0,-3.0,-4.0,-17.0,-12.0,-2.0,-1.0,1650821809799925.0
-2.0,1.0,4.0,1.0,9.0,4.0,-2.0,0.0,1650821809799925.0
-1.0,0.0,-1.0,1.0,0.0,3.0,2.0,0.0,1650821809800856.0
0.0,0.0,-1.0,-4.0,1.0,-8.0,-1.0,0.0,1650821809800856.0
-1.0,-3.0,-2.0,2.0,-13.0,-6.0,-4.0,-1.0,1650821809822049.0
-2.0,-1.0,-2.0,-1.0,-5.0,-16.0,-5.0,-1.0,1650821809822049.0
0.0,2.0,-3.0,-2.0,1.0,13.0,3.0,-1.0,1650821809822973.0
0.0,0.0,4.0,5.0,7.0,11.0,1.0,-2.0,1650821809822973.0
-1.0,-1.0,-1.0,-2.0,11.0,10.0,1.0,0.0,1650821809835996.0
1.0,2.0,-2.0,-3.0,-12.0,-8.0,-2.0,-1.0,1650821809835996.0
-1.0,-1.0,3.0,1.0,6.0,3.0,1.0,-1.0,1650821809843793.0
-1.0,-1.0,-1.0,1.0,0.0,3.0,3.0,2.0,1650821809843793.0
1.0,2.0,2.0,2.0,0.0,0.0,2.0,-1.0,1650821809859857.0
1.0,0.0,-2.0,-2.0,-4.0,-1.0,0.0,-2.0,1650821809859857.0
0.0,-1.0,-2.0,-4.0,1.0,-4.0,-2.0,-2.0,1650821809860818.0
-3.0,-1.0,-7.0,-2.0,-2.0,-11.0,-3.0,-2.0,1650821809860818.0
-2.0,-2.0,1.0,2.0,1.0,0.0,1.0,0.0,1650821809881948.0
0.0,2.0,1.0,0.0,3.0,13.0,2.0,-1.0,1650821809881948.0
0.0,0.0,0.0,1.0,-4.0,-4.0,0.0,0.0,1650821809882880.0
1.0,0.0,-1.0,-3.0,-2.0,-6.0,-4.0,-1.0,1650821809882880.0
-1.0,-1.0,-3.0,-3.0,-4.0,-5.0,-3.0,-2.0,1650821809895954.0
0.0,7.0,0.0,-3.0,-12.0,-11.0,-1.0,1.0,1650821809895954.0
-1.0,-8.0,-2.0,-3.0,-8.0,-6.0,-3.0,-1.0,1650821809903821.0
-1.0,0.0,2.0,3.0,9.0,13.0,4.0,2.0,1650821809903821.0
1.0,0.0,-2.0,2.0,22.0,31.0,8.0,3.0,1650821809918834.0
0.0,1.0,9.0,9.0,5.0,8.0,4.0,0.0,1650821809918834.0
0.0,3.0,-1.0,-1.0,-4.0,-11.0,-3.0,0.0,1650821809920789.0
0.0,-2.0,-4.0,-4.0,-12.0,-15.0,-4.0,-2.0,1650821809920789.0
-2.0,0.0,-5.0,-7.0,-20.0,-22.0,-9.0,-2.0,1650821809941774.0
-1.0,-7.0,-8.0,-10.0,-31.0,-33.0,-9.0,-3.0,1650821809941774.0
-1.0,1.0,2.0,3.0,12.0,-1.0,-1.0,0.0,1650821809942733.0
-1.0,-1.0,1.0,6.0,29.0,57.0,9.0,1.0,1650821809942733.0
4.0,2.0,7.0,12.0,24.0,25.0,9.0,5.0,1650821809954871.0
0.0,1.0,1.0,0.0,10.0,6.0,4.0,0.0,1650821809954871.0
0.0,-2.0,-3.0,-2.0,-22.0,-21.0,-3.0,0.0,1650821809963877.0
-1.0,0.0,-1.0,-5.0,-19.0,-32.0,-8.0,-3.0,1650821809963877.0
-2.0,-1.0,-3.0,-6.0,-13.0,-12.0,-10.0,-5.0,1650821809979086.0
-3.0,-6.0,-3.0,-5.0,-18.0,-21.0,-8.0,-4.0,1650821809979086.0
-1.0,1.0,-1.0,1.0,7.0,12.0,3.0,2.0,1650821809981013.0
-1.0,-2.0,0.0,7.0,32.0,35.0,7.0,2.0,1650821809981013.0
-2.0,2.0,6.0,3.0,5.0,6.0,4.0,1.0,1650821810001922.0
0.0,-1.0,-1.0,0.0,4.0,2.0,1.0,1.0,1650821810001922.0
-1.0,-1.0,-2.0,-6.0,-10.0,-6.0,-3.0,-2.0,1650821810002868.0
-1.0,-1.0,0.0,0.0,-17.0,-21.0,-6.0,-1.0,1650821810002868.0
0.0,-2.0,-3.0,-3.0,-12.0,-13.0,-4.0,0.0,1650821810014874.0
0.0,-1.0,-1.0,-1.0,5.0,2.0,-1.0,0.0,1650821810014874.0
0.0,0.0,-1.0,-4.0,-2.0,7.0,-2.0,-2.0,1650821810023948.0
1.0,-3.0,-1.0,0.0,-7.0,-7.0,-1.0,-1.0,1650821810023948.0
-2.0,0.0,3.0,2.0,18.0,15.0,4.0,0.0,1650821810039064.0
2.0,3.0,4.0,8.0,25.0,28.0,9.0,4.0,1650821810039064.0
2.0,0.0,0.0,4.0,8.0,3.0,2.0,0.0,1650821810040992.0
-1.0,1.0,-3.0,-9.0,-20.0,-21.0,-5.0,-4.0,1650821810040992.0
-2.0,-3.0,2.0,-2.0,-26.0,-39.0,-11.0,-3.0,1650821810061935.0
-4.0,-3.0,-6.0,-5.0,-8.0,-1.0,-3.0,-4.0,1650821810061935.0
-3.0,0.0,0.0,1.0,4.0,18.0,5.0,-1.0,1650821810062870.0
0.0,2.0,1.0,1.0,5.0,-7.0,2.0,1.0,1650821810062870.0
2.0,1.0,-2.0,2.0,15.0,24.0,9.0,3.0,1650821810074900.0
1.0,5.0,4.0,4.0,10.0,12.0,3.0,2.0,1650821810074900.0
-1.0,-3.0,-6.0,-4.0,2.0,-3.0,1.0,-1.0,1650821810083837.0
-2.0,-1.0,-2.0,-4.0,-11.0,-15.0,-4.0,-3.0,1650821810083837.0
-2.0,-3.0,-4.0,-3.0,-10.0,-14.0,-7.0,-2.0,1650821810099060.0
-2.0,-2.0,-2.0,-2.0,-7.0,-3.0,-2.0,-1.0,1650821810099060.0
-1.0,-1.0,0.0,-1.0,-6.0,-6.0,-2.0,-2.0,1650821810100988.0
-1.0,1.0,2.0,4.0,3.0,8.0,1.0,-1.0,1650821810100988.0
0.0,3.0,1.0,0.0,6.0,6.0,2.0,0.0,1650821810121925.0
1.0,-4.0,-2.0,-1.0,1.0,-1.0,0.0,1.0,1650821810121925.0
0.0,0.0,2.0,0.0,-5.0,-7.0,-2.0,0.0,1650821810122860.0
1.0,2.0,0.0,2.0,9.0,15.0,2.0,2.0,1650821810122860.0
0.0,1.0,-2.0,-3.0,-15.0,-8.0,-1.0,-2.0,1650821810135590.0
-1.0,-3.0,-2.0,-2.0,5.0,0.0,-2.0,-2.0,1650821810135590.0
-1.0,0.0,0.0,1.0,6.0,-3.0,-3.0,-2.0,1650821810144582.0
0.0,-2.0,-3.0,-1.0,1.0,7.0,4.0,2.0,1650821810144582.0
2.0,2.0,3.0,4.0,13.0,10.0,4.0,1.0,1650821810159540.0
-1.0,2.0,1.0,0.0,-6.0,1.0,2.0,1.0,1650821810159540.0
-2.0,-2.0,-2.0,-2.0,-9.0,-13.0,-3.0,2.0,1650821810160527.0
-1.0,-3.0,-3.0,-3.0,-6.0,-6.0,-7.0,-1.0,1650821810160527.0
-2.0,-2.0,-4.0,-4.0,-2.0,-3.0,-1.0,-1.0,1650821810181681.0
-1.0,1.0,0.0,1.0,1.0,0.0,0.0,-1.0,1650821810181681.0
0.0,0.0,1.0,-1.0,1.0,2.0,-1.0,0.0,1650821810183610.0
0.0,1.0,1.0,-5.0,-3.0,-9.0,-3.0,0.0,1650821810183610.0
-3.0,-5.0,-4.0,-3.0,-3.0,8.0,-3.0,0.0,1650821810195228.0
-1.0,-1.0,-2.0,0.0,-1.0,3.0,-1.0,0.0,1650821810195228.0
-1.0,0.0,-2.0,-2.0,-5.0,-16.0,-3.0,0.0,1650821810204206.0
0.0,-1.0,1.0,0.0,0.0,-4.0,-2.0,-1.0,1650821810204206.0
0.0,3.0,1.0,2.0,6.0,15.0,1.0,-1.0,1650821810219231.0
0.0,-3.0,0.0,4.0,12.0,13.0,5.0,0.0,1650821810219231.0
1.0,1.0,2.0,5.0,16.0,17.0,6.0,3.0,1650821810220162.0
-1.0,-3.0,-3.0,-2.0,-7.0,-17.0,-2.0,-3.0,1650821810220162.0
-2.0,-1.0,-5.0,-7.0,-25.0,-32.0,-6.0,-3.0,1650821810241320.0
1.0,-1.0,-2.0,-5.0,-5.0,-5.0,-6.0,-2.0,1650821810241320.0
-1.0,0.0,0.0,3.0,9.0,18.0,2.0,1.0,1650821810243278.0
0.0,-1.0,-1.0,1.0,8.0,6.0,3.0,1.0,1650821810243278.0
0.0,-2.0,-2.0,-1.0,-2.0,3.0,2.0,3.0,1650821810255652.0
-1.0,-2.0,-2.0,-3.0,-6.0,-9.0,-3.0,-1.0,1650821810255652.0
-3.0,-1.0,5.0,1.0,6.0,2.0,-2.0,-1.0,1650821810264632.0
2.0,1.0,0.0,1.0,0.0,0.0,1.0,1.0,1650821810264632.0
0.0,-2.0,0.0,-2.0,-3.0,-4.0,-1.0,-2.0,1650821810278743.0
-2.0,-1.0,-3.0,-2.0,-6.0,-6.0,-1.0,-1.0,1650821810278743.0
0.0,4.0,-2.0,-2.0,-4.0,-4.0,-1.0,0.0,1650821810280741.0
0.0,0.0,-1.0,-1.0,3.0,6.0,1.0,-1.0,1650821810280741.0
0.0,-6.0,-1.0,-1.0,0.0,-6.0,-1.0,1.0,1650821810301946.0
0.0,-1.0,-1.0,0.0,-1.0,0.0,0.0,-2.0,1650821810301946.0
-1.0,-3.0,-3.0,-2.0,-3.0,3.0,0.0,-2.0,1650821810302880.0
-1.0,0.0,-1.0,0.0,-7.0,-10.0,-2.0,-3.0,1650821810302880.0
1.0,2.0,1.0,2.0,3.0,6.0,1.0,1.0,1650821810314915.0
1.0,1.0,-1.0,-1.0,0.0,2.0,1.0,1.0,1650821810314915.0
1.0,2.0,0.0,0.0,2.0,12.0,1.0,0.0,1650821810323884.0
0.0,-2.0,1.0,2.0,11.0,7.0,6.0,0.0,1650821810323884.0
-2.0,0.0,1.0,0.0,-5.0,-13.0,-2.0,-1.0,1650821810339065.0
-2.0,-3.0,-3.0,-4.0,-5.0,-3.0,-5.0,-1.0,1650821810339065.0
0.0,1.0,0.0,-2.0,-10.0,-8.0,0.0,0.0,1650821810341019.0
-1.0,-1.0,-1.0,0.0,-8.0,-2.0,-3.0,0.0,1650821810341019.0
-1.0,0.0,-1.0,-3.0,-2.0,-9.0,-2.0,-2.0,1650821810361209.0
-1.0,-1.0,-1.0,1.0,1.0,-2.0,1.0,-1.0,1650821810361209.0
2.0,2.0,2.0,3.0,25.0,30.0,4.0,-1.0,1650821810363136.0
-1.0,5.0,-1.0,2.0,7.0,5.0,3.0,1.0,1650821810363136.0
-2.0,-6.0,0.0,-2.0,-6.0,-11.0,-3.0,-2.0,1650821810391342.0
0.0,1.0,-2.0,-4.0,-16.0,-12.0,-1.0,1.0,1650821810391342.0
-1.0,-3.0,-2.0,-4.0,-11.0,0.0,0.0,0.0,1650821810393271.0
1.0,-2.0,2.0,0.0,1.0,7.0,-1.0,-1.0,1650821810393271.0
-2.0,3.0,-1.0,0.0,-3.0,-9.0,-2.0,-2.0,1650821810399282.0
-1.0,0.0,2.0,1.0,3.0,-4.0,1.0,-1.0,1650821810399282.0
1.0,-1.0,-1.0,-1.0,1.0,7.0,2.0,-1.0,1650821810400257.0
0.0,-1.0,-1.0,-2.0,0.0,1.0,-2.0,0.0,1650821810400257.0
-2.0,-1.0,-3.0,-3.0,-8.0,-3.0,-2.0,1.0,1650821810422383.0
-2.0,0.0,1.0,2.0,4.0,4.0,0.0,-1.0,1650821810422383.0
-1.0,-3.0,-5.0,-2.0,5.0,-5.0,-1.0,-2.0,1650821810423322.0
0.0,1.0,4.0,2.0,-9.0,-7.0,-2.0,-1.0,1650821810423322.0
5.0,9.0,2.0,3.0,10.0,12.0,3.0,5.0,1650821810451575.0
1.0,-8.0,-6.0,-1.0,13.0,16.0,2.0,1.0,1650821810451575.0
-1.0,1.0,0.0,2.0,-8.0,-19.0,-4.0,0.0,1650821810453504.0
-1.0,-1.0,-3.0,-5.0,-7.0,-12.0,-4.0,-2.0,1650821810453504.0
-1.0,-2.0,0.0,2.0,-5.0,4.0,0.0,-1.0,1650821810458517.0
-1.0,0.0,1.0,1.0,0.0,4.0,2.0,0.0,1650821810458517.0
0.0,1.0,1.0,0.0,8.0,8.0,0.0,-4.0,1650821810460485.0
-2.0,0.0,-2.0,-2.0,-3.0,-11.0,-2.0,1.0,1650821810460485.0
3.0,-1.0,-2.0,-1.0,-2.0,-6.0,3.0,-1.0,1650821810481774.0
-2.0,1.0,-1.0,-4.0,-4.0,2.0,3.0,9.0,1650821810481774.0
0.0,-3.0,-2.0,-2.0,-12.0,-11.0,-7.0,-7.0,1650821810482728.0
0.0,-4.0,2.0,2.0,4.0,1.0,-3.0,-1.0,1650821810482728.0
-3.0,-1.0,-2.0,2.0,11.0,11.0,-1.0,-5.0,1650821810503649.0
0.0,4.0,0.0,0.0,3.0,-2.0,-5.0,-6.0,1650821810503649.0
-1.0,6.0,2.0,-1.0,-5.0,1.0,4.0,6.0,1650821810505653.0
1.0,-2.0,-1.0,-2.0,-3.0,2.0,-10.0,-7.0,1650821810505653.0
1.0,-3.0,-1.0,-1.0,2.0,-6.0,-2.0,-6.0,1650821810518782.0
-5.0,-3.0,-2.0,-2.0,-5.0,-2.0,26.0,28.0,1650821810518782.0
4.0,-2.0,-4.0,-4.0,-6.0,-5.0,-4.0,-3.0,1650821810524883.0
-9.0,-1.0,-1.0,0.0,2.0,1.0,-3.0,-6.0,1650821810524883.0
7.0,2.0,1.0,-1.0,5.0,0.0,-16.0,-23.0,1650821810542042.0
0.0,-2.0,-2.0,0.0,-3.0,-3.0,-6.0,-6.0,1650821810542042.0
1.0,-4.0,3.0,1.0,-3.0,-3.0,14.0,25.0,1650821810542990.0
-5.0,-1.0,-4.0,-2.0,2.0,1.0,0.0,-9.0,1650821810542990.0
-8.0,1.0,-1.0,-1.0,-3.0,0.0,-6.0,8.0,1650821810563918.0
14.0,5.0,4.0,1.0,1.0,-4.0,-24.0,-33.0,1650821810563918.0
-3.0,-1.0,-4.0,-1.0,0.0,-1.0,5.0,14.0,1650821810565844.0
6.0,11.0,4.0,2.0,0.0,4.0,31.0,40.0,1650821810565844.0
-4.0,-3.0,2.0,-2.0,0.0,2.0,1.0,-3.0,1650821810578816.0
-3.0,-3.0,-1.0,1.0,-2.0,0.0,-2.0,-4.0,1650821810578816.0
-11.0,0.0,-1.0,-1.0,-1.0,-3.0,-11.0,-17.0,1650821810584859.0
17.0,1.0,0.0,0.0,0.0,-2.0,-7.0,0.0,1650821810584859.0
-1.0,-5.0,-1.0,0.0,-1.0,3.0,19.0,19.0,1650821810601984.0
-3.0,3.0,1.0,-1.0,-1.0,-1.0,-4.0,-6.0,1650821810601984.0
-1.0,-3.0,-2.0,-2.0,-1.0,-2.0,-11.0,-11.0,1650821810602943.0
-4.0,2.0,0.0,1.0,0.0,-2.0,-20.0,-50.0,1650821810602943.0
4.0,1.0,-1.0,-1.0,1.0,2.0,25.0,61.0,1650821810624000.0
-4.0,-11.0,-2.0,-1.0,4.0,2.0,18.0,28.0,1650821810624000.0
-4.0,-14.0,-3.0,-3.0,-5.0,-2.0,2.0,2.0,1650821810626024.0
22.0,-11.0,-7.0,-4.0,-1.0,0.0,0.0,68.0,1650821810626024.0
-10.0,13.0,-2.0,-6.0,-16.0,-22.0,-27.0,-96.0,1650821810638111.0
-4.0,0.0,2.0,0.0,-8.0,9.0,-10.0,-28.0,1650821810638111.0
-8.0,9.0,5.0,8.0,19.0,28.0,7.0,0.0,1650821810645135.0
5.0,4.0,4.0,8.0,28.0,18.0,11.0,14.0,1650821810645135.0
20.0,-9.0,-8.0,-4.0,-5.0,-22.0,-6.0,9.0,1650821810669167.0
-7.0,4.0,-5.0,-10.0,-20.0,-15.0,-3.0,9.0,1650821810669167.0
0.0,6.0,5.0,0.0,-21.0,-5.0,-3.0,-9.0,1650821810670125.0
0.0,-8.0,-3.0,1.0,16.0,36.0,8.0,-4.0,1650821810670125.0
-2.0,4.0,4.0,5.0,19.0,19.0,8.0,5.0,1650821810684127.0
-6.0,-15.0,-10.0,-3.0,-2.0,-16.0,-2.0,-11.0,1650821810684127.0
10.0,3.0,3.0,-9.0,-44.0,-55.0,-15.0,17.0,1650821810686055.0
-33.0,3.0,0.0,0.0,9.0,-5.0,-7.0,-50.0,1650821810686055.0
-8.0,3.0,-6.0,6.0,29.0,46.0,4.0,-9.0,1650821810698218.0
24.0,9.0,11.0,11.0,22.0,22.0,22.0,57.0,1650821810698218.0
-5.0,-3.0,1.0,-1.0,1.0,-14.0,-7.0,-28.0,1650821810705134.0
-10.0,-3.0,-3.0,-6.0,-33.0,-25.0,6.0,22.0,1650821810705134.0
-10.0,-11.0,-3.0,-6.0,-26.0,-14.0,-24.0,-43.0,1650821810728901.0
-1.0,7.0,-6.0,-2.0,12.0,-5.0,-7.0,17.0,1650821810728901.0
0.0,3.0,7.0,4.0,12.0,17.0,16.0,10.0,1650821810730925.0
18.0,-12.0,-11.0,-4.0,-13.0,-15.0,-19.0,-61.0,1650821810730925.0
8.0,11.0,5.0,0.0,1.0,-1.0,1.0,36.0,1650821810743930.0
-33.0,24.0,-21.0,-8.0,-12.0,-4.0,9.0,17.0,1650821810743930.0
0.0,-5.0,4.0,5.0,17.0,14.0,6.0,10.0,1650821810745888.0
-3.0,0.0,-3.0,-3.0,-2.0,-2.0,-2.0,-1.0,1650821810745888.0
-5.0,-28.0,-7.0,-1.0,-10.0,-6.0,-2.0,8.0,1650821810757974.0
-18.0,6.0,3.0,-3.0,5.0,-6.0,-19.0,-93.0,1650821810757974.0
5.0,-1.0,3.0,3.0,11.0,10.0,-4.0,13.0,1650821810766800.0
-5.0,0.0,-5.0,1.0,-3.0,-4.0,7.0,2.0,1650821810766800.0
1.0,3.0,7.0,5.0,-11.0,-8.0,13.0,27.0,1650821810781923.0
9.0,-12.0,25.0,3.0,-2.0,11.0,0.0,3.0,1650821810781923.0
-2.0,-11.0,-18.0,-3.0,4.0,7.0,-4.0,-6.0,1650821810782865.0
-12.0,-21.0,-2.0,2.0,1.0,-3.0,-11.0,-34.0,1650821810782865.0
0.0,16.0,22.0,-2.0,-13.0,-22.0,2.0,30.0,1650821810804313.0
11.0,27.0,0.0,-2.0,-4.0,-5.0,-5.0,2.0,1650821810804313.0
3.0,-10.0,-22.0,0.0,27.0,35.0,3.0,-16.0,1650821810805311.0
-2.0,9.0,0.0,1.0,2.0,6.0,7.0,27.0,1650821810805311.0
-12.0,0.0,-5.0,2.0,5.0,-4.0,5.0,3.0,1650821810817390.0
7.0,-14.0,2.0,-3.0,-21.0,-23.0,-12.0,-11.0,1650821810817390.0
-9.0,24.0,14.0,-6.0,-21.0,-30.0,-6.0,10.0,1650821810826422.0
12.0,-11.0,-23.0,-8.0,-18.0,-20.0,-6.0,11.0,1650821810826422.0
24.0,-5.0,1.0,0.0,19.0,12.0,-3.0,-14.0,1650821810841499.0
12.0,-5.0,0.0,5.0,9.0,44.0,2.0,-11.0,1650821810841499.0
3.0,-11.0,1.0,11.0,23.0,34.0,18.0,33.0,1650821810843427.0
-10.0,12.0,18.0,6.0,11.0,-4.0,16.0,17.0,1650821810843427.0
13.0,-2.0,-1.0,-1.0,-18.0,-31.0,-5.0,35.0,1650821810864022.0
-13.0,-8.0,-10.0,-5.0,-11.0,-25.0,-6.0,-13.0,1650821810864022.0
4.0,-10.0,-8.0,-6.0,-8.0,2.0,-3.0,-28.0,1650821810866050.0
-13.0,7.0,10.0,2.0,-3.0,14.0,4.0,-1.0,1650821810866050.0
-4.0,0.0,-1.0,2.0,22.0,9.0,3.0,6.0,1650821810878090.0
6.0,-15.0,-1.0,-1.0,-11.0,-25.0,-8.0,7.0,1650821810878090.0
-13.0,3.0,-6.0,-9.0,-32.0,-38.0,-8.0,-5.0,1650821810886881.0
2.0,4.0,12.0,0.0,15.0,24.0,-1.0,5.0,1650821810886881.0
-15.0,-2.0,-7.0,9.0,30.0,48.0,6.0,-33.0,1650821810901943.0
17.0,-8.0,3.0,6.0,18.0,23.0,11.0,15.0,1650821810901943.0
2.0,16.0,5.0,-1.0,0.0,-14.0,3.0,24.0,1650821810902900.0
-2.0,-6.0,-12.0,-15.0,-33.0,-45.0,-15.0,-43.0,1650821810902900.0
-9.0,-1.0,-3.0,-5.0,-17.0,-15.0,-6.0,-7.0,1650821810924034.0
-14.0,7.0,7.0,1.0,1.0,7.0,-2.0,-11.0,1650821810924034.0
21.0,-2.0,-3.0,6.0,10.0,6.0,6.0,13.0,1650821810925992.0
1.0,10.0,9.0,0.0,-2.0,0.0,3.0,11.0,1650821810925992.0
6.0,-6.0,-1.0,0.0,1.0,13.0,0.0,2.0,1650821810938121.0
-13.0,-8.0,-9.0,-4.0,7.0,-1.0,3.0,-6.0,1650821810938121.0
0.0,-3.0,2.0,-4.0,-13.0,-22.0,-6.0,16.0,1650821810947119.0
6.0,-13.0,-13.0,-6.0,-7.0,-10.0,-15.0,-67.0,1650821810947119.0
5.0,12.0,2.0,-6.0,-4.0,9.0,-7.0,-3.0,1650821810961327.0
5.0,-24.0,13.0,6.0,4.0,1.0,14.0,46.0,1650821810961327.0
-2.0,5.0,8.0,6.0,17.0,10.0,-2.0,-15.0,1650821810963287.0
7.0,-2.0,5.0,9.0,7.0,11.0,12.0,34.0,1650821810963287.0
-17.0,-5.0,-6.0,-9.0,-9.0,-9.0,-5.0,-14.0,1650821810984443.0
-19.0,-1.0,-15.0,-5.0,-22.0,-10.0,-6.0,-13.0,1650821810984443.0
20.0,-3.0,11.0,0.0,10.0,5.0,-4.0,-19.0,1650821810985804.0
-5.0,-15.0,-7.0,6.0,20.0,27.0,-2.0,1.0,1650821810985804.0
-1.0,-5.0,-9.0,-4.0,-7.0,-17.0,13.0,26.0,1650821811006981.0
-6.0,8.0,-15.0,-10.0,-9.0,-11.0,-11.0,-9.0,1650821811006981.0
-10.0,0.0,7.0,-6.0,-25.0,-10.0,-4.0,-8.0,1650821811007986.0
6.0,17.0,9.0,1.0,-9.0,-9.0,-1.0,21.0,1650821811007986.0
2.0,11.0,-3.0,1.0,12.0,5.0,-5.0,2.0,1650821811022044.0
3.0,4.0,-8.0,3.0,13.0,1.0,5.0,6.0,1650821811022044.0
-2.0,0.0,-1.0,4.0,10.0,11.0,0.0,-5.0,1650821811022988.0
5.0,11.0,6.0,4.0,10.0,21.0,6.0,12.0,1650821811022988.0
-12.0,0.0,9.0,-2.0,-9.0,-9.0,-1.0,-3.0,1650821811043915.0
19.0,-7.0,-12.0,-3.0,-16.0,-19.0,6.0,29.0,1650821811043915.0
15.0,5.0,-5.0,-7.0,-11.0,-18.0,-12.0,-44.0,1650821811045871.0
-20.0,4.0,0.0,-1.0,2.0,7.0,-4.0,-14.0,1650821811045871.0
9.0,-5.0,1.0,-1.0,-3.0,9.0,2.0,-14.0,1650821811058091.0
17.0,-5.0,2.0,2.0,5.0,7.0,2.0,24.0,1650821811058091.0
-15.0,-25.0,5.0,-1.0,-4.0,-26.0,-2.0,9.0,1650821811066919.0
17.0,7.0,7.0,-4.0,-27.0,-17.0,-2.0,1.0,1650821811066919.0
-1.0,-14.0,-3.0,0.0,13.0,12.0,-11.0,-27.0,1650821811081960.0
-11.0,6.0,14.0,15.0,34.0,39.0,8.0,3.0,1650821811081960.0
6.0,3.0,-16.0,-1.0,13.0,17.0,7.0,23.0,1650821811082892.0
-14.0,0.0,9.0,0.0,1.0,-19.0,5.0,25.0,1650821811082892.0
4.0,-6.0,-7.0,-6.0,-19.0,-17.0,-5.0,-34.0,1650821811105078.0
6.0,7.0,10.0,0.0,-8.0,4.0,-5.0,-9.0,1650821811105078.0
-11.0,-3.0,-19.0,-4.0,-9.0,-4.0,0.0,-9.0,1650821811106019.0
-10.0,-12.0,2.0,-4.0,-3.0,-11.0,-7.0,8.0,1650821811106019.0
1.0,8.0,2.0,-3.0,-12.0,-14.0,6.0,27.0,1650821811118104.0
4.0,1.0,-3.0,-3.0,-13.0,-20.0,-1.0,15.0,1650821811118104.0
-5.0,8.0,-3.0,4.0,9.0,26.0,3.0,-40.0,1650821811126878.0
2.0,9.0,-2.0,5.0,31.0,41.0,8.0,6.0,1650821811126878.0
-3.0,3.0,0.0,5.0,8.0,1.0,1.0,0.0,1650821811141916.0
-5.0,-1.0,1.0,-5.0,-9.0,-27.0,-4.0,-11.0,1650821811141916.0
1.0,9.0,8.0,-6.0,-33.0,-32.0,-2.0,27.0,1650821811142853.0
29.0,-11.0,-18.0,-3.0,-7.0,10.0,4.0,18.0,1650821811142853.0
-38.0,13.0,14.0,7.0,31.0,28.0,1.0,-17.0,1650821811164087.0
-7.0,-8.0,4.0,1.0,3.0,5.0,1.0,3.0,1650821811164087.0
-10.0,1.0,-3.0,-5.0,-4.0,-6.0,-6.0,-18.0,1650821811166044.0
-2.0,-8.0,0.0,-9.0,-14.0,-21.0,-8.0,1.0,1650821811166044.0
40.0,-19.0,-11.0,-3.0,-14.0,-6.0,-4.0,8.0,1650821811178119.0
-4.0,-1.0,-12.0,-8.0,-10.0,-4.0,-3.0,-12.0,1650821811178119.0
-4.0,18.0,17.0,3.0,-4.0,3.0,4.0,21.0,1650821811186100.0
-3.0,-2.0,11.0,4.0,14.0,1.0,2.0,-6.0,1650821811186100.0
-6.0,2.0,-7.0,6.0,11.0,4.0,4.0,7.0,1650821811201374.0
3.0,-15.0,-5.0,0.0,18.0,21.0,6.0,-3.0,1650821811201374.0
6.0,-9.0,-6.0,-1.0,1.0,4.0,-5.0,5.0,1650821811203341.0
-23.0,-3.0,-16.0,-9.0,-16.0,-9.0,-4.0,-5.0,1650821811203341.0
0.0,2.0,13.0,-4.0,-16.0,-28.0,-3.0,4.0,1650821811224233.0
8.0,-3.0,-11.0,-2.0,-6.0,1.0,-5.0,-18.0,1650821811224233.0
6.0,-3.0,1.0,4.0,4.0,9.0,2.0,0.0,1650821811226160.0
1.0,-7.0,-3.0,8.0,23.0,9.0,4.0,-12.0,1650821811226160.0
2.0,20.0,7.0,-5.0,-7.0,-1.0,-5.0,-13.0,1650821811238139.0
-17.0,-19.0,-10.0,-5.0,-9.0,-16.0,-7.0,-6.0,1650821811238139.0
6.0,-10.0,-12.0,0.0,0.0,3.0,5.0,23.0,1650821811254317.0
23.0,4.0,0.0,-2.0,-27.0,-8.0,5.0,-5.0,1650821811254317.0
-4.0,6.0,2.0,1.0,19.0,-2.0,0.0,9.0,1650821811261364.0
-4.0,-3.0,-7.0,0.0,11.0,23.0,-7.0,-18.0,1650821811261364.0
6.0,-12.0,4.0,4.0,9.0,9.0,13.0,30.0,1650821811263320.0
-7.0,2.0,12.0,2.0,3.0,-10.0,-1.0,-4.0,1650821811263320.0
-4.0,-12.0,-26.0,-5.0,-23.0,-17.0,-2.0,-8.0,1650821811283995.0
6.0,17.0,5.0,-1.0,-15.0,-25.0,-12.0,-11.0,1650821811283995.0
3.0,23.0,-1.0,-1.0,13.0,26.0,2.0,-1.0,1650821811285992.0
-14.0,4.0,8.0,1.0,5.0,21.0,4.0,-9.0,1650821811285992.0
7.0,-8.0,-1.0,4.0,4.0,4.0,3.0,3.0,1650821811306740.0
6.0,4.0,7.0,3.0,13.0,-8.0,6.0,37.0,1650821811306740.0
-32.0,-3.0,-2.0,-8.0,-17.0,-22.0,-16.0,-83.0,1650821811313068.0
-3.0,1.0,-3.0,2.0,-7.0,-5.0,4.0,41.0,1650821811313068.0
5.0,11.0,21.0,2.0,-6.0,12.0,0.0,-6.0,1650821811322039.0
-6.0,-5.0,18.0,12.0,26.0,14.0,4.0,-10.0,1650821811322039.0
-7.0,-34.0,-12.0,2.0,10.0,-3.0,4.0,23.0,1650821811323023.0
9.0,12.0,3.0,-5.0,-10.0,-20.0,-8.0,-11.0,1650821811323023.0
-24.0,-10.0,-12.0,-9.0,-20.0,1.0,-2.0,4.0,1650821811344036.0
-14.0,10.0,1.0,1.0,-5.0,7.0,0.0,-2.0,1650821811344036.0
30.0,-3.0,5.0,2.0,4.0,0.0,6.0,20.0,1650821811345988.0
-22.0,1.0,2.0,2.0,17.0,6.0,0.0,8.0,1650821811345988.0
13.0,0.0,-7.0,1.0,5.0,-4.0,2.0,12.0,1650821811366998.0
7.0,15.0,5.0,0.0,-13.0,-3.0,1.0,-8.0,1650821811366998.0
-10.0,-3.0,-3.0,-4.0,-2.0,2.0,-3.0,-16.0,1650821811368012.0
4.0,-5.0,-9.0,3.0,-4.0,-7.0,1.0,7.0,1650821811368012.0
4.0,-2.0,9.0,-6.0,-10.0,-16.0,-6.0,-2.0,1650821811382021.0
-4.0,0.0,-1.0,-5.0,0.0,1.0,-2.0,-6.0,1650821811382021.0
-3.0,1.0,3.0,1.0,4.0,9.0,-2.0,14.0,1650821811383014.0
2.0,-7.0,4.0,2.0,8.0,8.0,5.0,34.0,1650821811383014.0
12.0,0.0,-2.0,6.0,13.0,-1.0,1.0,-24.0,1650821811403802.0
-1.0,12.0,-9.0,-5.0,-20.0,-22.0,0.0,-1.0,1650821811403802.0
-3.0,4.0,3.0,2.0,-4.0,7.0,2.0,-2.0,1650821811405826.0
3.0,10.0,-1.0,2.0,26.0,32.0,3.0,-6.0,1650821811405826.0
0.0,-8.0,5.0,6.0,15.0,8.0,7.0,57.0,1650821811426999.0
6.0,21.0,-5.0,-1.0,3.0,-6.0,6.0,23.0,1650821811426999.0
9.0,-4.0,-3.0,-10.0,-28.0,-39.0,-15.0,-35.0,1650821811427999.0
-8.0,-4.0,-11.0,-8.0,-15.0,-5.0,-11.0,-35.0,1650821811427999.0
11.0,-13.0,-23.0,-4.0,-1.0,13.0,5.0,18.0,1650821811441129.0
9.0,-5.0,1.0,5.0,8.0,4.0,2.0,11.0,1650821811441129.0
-12.0,13.0,11.0,3.0,7.0,2.0,-1.0,-13.0,1650821811448112.0
-2.0,-11.0,-6.0,-1.0,0.0,-1.0,-1.0,-3.0,1650821811448112.0
-7.0,-2.0,3.0,-3.0,-12.0,-10.0,-5.0,-11.0,1650821811464416.0
-5.0,3.0,6.0,-2.0,-2.0,0.0,-3.0,-14.0,1650821811464416.0
-5.0,-6.0,-11.0,-3.0,8.0,2.0,-4.0,-3.0,1650821811465804.0
-12.0,-4.0,6.0,3.0,-3.0,-8.0,-1.0,-5.0,1650821811465804.0
25.0,18.0,-7.0,-4.0,-7.0,-6.0,-3.0,-29.0,1650821811486930.0
-2.0,-17.0,14.0,2.0,-3.0,6.0,0.0,0.0,1650821811486930.0
1.0,-6.0,-10.0,3.0,5.0,2.0,4.0,10.0,1650821811487860.0
-2.0,-10.0,-7.0,-9.0,-3.0,2.0,-3.0,-5.0,1650821811487860.0
1.0,-6.0,21.0,10.0,11.0,15.0,7.0,41.0,1650821811500925.0
-6.0,-10.0,-16.0,-5.0,1.0,5.0,-1.0,-31.0,1650821811500925.0
-10.0,35.0,-22.0,-12.0,-11.0,-19.0,-4.0,-4.0,1650821811508066.0
10.0,-6.0,-6.0,1.0,-10.0,-9.0,-4.0,0.0,1650821811508066.0
-8.0,6.0,-6.0,-9.0,-6.0,11.0,-1.0,-3.0,1650821811524870.0
4.0,12.0,15.0,8.0,11.0,11.0,-3.0,-4.0,1650821811524870.0
-15.0,-11.0,8.0,7.0,6.0,0.0,4.0,26.0,1650821811529925.0
28.0,2.0,-15.0,-9.0,-12.0,-32.0,-14.0,-27.0,1650821811529925.0
-8.0,-2.0,-2.0,2.0,8.0,-9.0,1.0,12.0,1650821811546945.0
-4.0,10.0,1.0,-7.0,-9.0,13.0,-5.0,-18.0,1650821811546945.0
7.0,-16.0,-6.0,2.0,13.0,29.0,4.0,-2.0,1650821811547867.0
0.0,9.0,17.0,3.0,-9.0,-7.0,2.0,1.0,1650821811547867.0
-9.0,-12.0,-4.0,-6.0,-15.0,-36.0,-10.0,-1.0,1650821811561854.0
-9.0,1.0,12.0,1.0,-1.0,-4.0,-6.0,-22.0,1650821811561854.0
0.0,-3.0,4.0,3.0,4.0,28.0,-2.0,-10.0,1650821811567904.0
-7.0,-2.0,5.0,7.0,26.0,24.0,18.0,46.0,1650821811567904.0
14.0,10.0,-5.0,1.0,-12.0,-12.0,-1.0,-26.0,1650821811583860.0
-9.0,-10.0,-15.0,-13.0,-2.0,-24.0,-3.0,14.0,1650821811583860.0
9.0,11.0,25.0,1.0,-14.0,-17.0,-9.0,-4.0,1650821811585816.0
-15.0,-22.0,-8.0,4.0,1.0,15.0,0.0,-9.0,1650821811585816.0
-1.0,-5.0,4.0,4.0,-1.0,3.0,-5.0,-10.0,1650821811607039.0
0.0,20.0,10.0,1.0,4.0,-2.0,6.0,14.0,1650821811607039.0
-2.0,-7.0,13.0,2.0,-1.0,-3.0,0.0,5.0,1650821811607994.0
22.0,29.0,-20.0,-14.0,-10.0,-7.0,-4.0,16.0,1650821811607994.0
-21.0,2.0,5.0,3.0,11.0,16.0,3.0,-34.0,1650821811621017.0
28.0,-20.0,-2.0,6.0,4.0,7.0,2.0,4.0,1650821811621017.0
-5.0,-6.0,-18.0,-1.0,6.0,-4.0,3.0,15.0,1650821811627998.0
-7.0,5.0,6.0,-1.0,-7.0,-12.0,-1.0,-7.0,1650821811627998.0
-10.0,-4.0,2.0,-3.0,-5.0,6.0,0.0,20.0,1650821811643747.0
-2.0,-4.0,-14.0,-7.0,-5.0,-4.0,-4.0,-11.0,1650821811643747.0
10.0,12.0,-5.0,-3.0,0.0,4.0,3.0,24.0,1650821811645746.0
14.0,-6.0,-6.0,-2.0,-6.0,-2.0,-9.0,-42.0,1650821811645746.0
-11.0,8.0,9.0,3.0,6.0,5.0,6.0,5.0,1650821811666998.0
40.0,-12.0,-11.0,4.0,5.0,-5.0,3.0,13.0,1650821811666998.0
-42.0,-1.0,9.0,1.0,-12.0,-4.0,1.0,7.0,1650821811668018.0
-19.0,-6.0,-8.0,-6.0,0.0,4.0,0.0,-7.0,1650821811668018.0
18.0,0.0,1.0,3.0,25.0,19.0,-7.0,-30.0,1650821811681046.0
-8.0,6.0,-7.0,-3.0,-13.0,-15.0,3.0,24.0,1650821811681046.0
14.0,11.0,9.0,-2.0,3.0,12.0,2.0,-6.0,1650821811688034.0
-1.0,3.0,19.0,3.0,-7.0,-2.0,-1.0,-4.0,1650821811688034.0
-16.0,-4.0,-5.0,3.0,4.0,-2.0,1.0,-17.0,1650821811704440.0
-10.0,-13.0,-7.0,-4.0,-14.0,-8.0,-7.0,-4.0,1650821811704440.0
5.0,0.0,-7.0,-4.0,-5.0,-21.0,-6.0,-9.0,1650821811705831.0
-26.0,-14.0,-11.0,0.0,16.0,19.0,1.0,-1.0,1650821811705831.0
38.0,17.0,20.0,0.0,-7.0,-1.0,5.0,24.0,1650821811727044.0
-2.0,12.0,17.0,5.0,3.0,5.0,2.0,5.0,1650821811727044.0
-4.0,-6.0,-5.0,0.0,-2.0,-8.0,-3.0,-13.0,1650821811728043.0
1.0,9.0,9.0,-1.0,-11.0,-17.0,-5.0,-7.0,1650821811728043.0
-9.0,-20.0,-25.0,-7.0,1.0,5.0,3.0,24.0,1650821811749324.0
-1.0,10.0,3.0,2.0,2.0,17.0,6.0,23.0,1650821811749324.0
1.0,-8.0,-3.0,-4.0,1.0,-2.0,0.0,-15.0,1650821811750257.0
12.0,-5.0,13.0,2.0,-1.0,-10.0,-1.0,12.0,1650821811750257.0
-17.0,-7.0,4.0,2.0,0.0,0.0,-5.0,-1.0,1650821811764284.0
-3.0,5.0,2.0,-3.0,-7.0,-4.0,9.0,13.0,1650821811764284.0
7.0,-4.0,1.0,8.0,26.0,14.0,1.0,7.0,1650821811765220.0
14.0,4.0,-3.0,-3.0,-7.0,1.0,1.0,7.0,1650821811765220.0
-5.0,-1.0,-6.0,-5.0,-2.0,-3.0,2.0,-5.0,1650821811786388.0
-1.0,1.0,1.0,2.0,3.0,-1.0,-7.0,-26.0,1650821811786388.0
0.0,-2.0,-1.0,-3.0,-9.0,-10.0,4.0,17.0,1650821811788343.0
0.0,0.0,11.0,0.0,-3.0,-13.0,-6.0,-6.0,1650821811788343.0
-3.0,22.0,-5.0,-4.0,-10.0,2.0,-4.0,-14.0,1650821811808861.0
-4.0,-18.0,-19.0,0.0,10.0,22.0,4.0,-2.0,1650821811808861.0
9.0,15.0,12.0,5.0,11.0,10.0,2.0,5.0,1650821811810885.0
-12.0,24.0,-13.0,-7.0,3.0,-20.0,-4.0,-18.0,1650821811810885.0
3.0,-10.0,-14.0,-7.0,-14.0,-16.0,-4.0,4.0,1650821811823889.0
-2.0,11.0,10.0,-2.0,-11.0,-9.0,-5.0,-31.0,1650821811823889.0
6.0,0.0,7.0,3.0,-6.0,-1.0,-1.0,-4.0,1650821811825844.0
18.0,-10.0,-2.0,6.0,6.0,12.0,8.0,28.0,1650821811825844.0
-3.0,-3.0,-2.0,5.0,11.0,7.0,3.0,3.0,1650821811846839.0
-3.0,-6.0,-8.0,-8.0,-10.0,-9.0,-6.0,-25.0,1650821811846839.0
-10.0,-3.0,-4.0,0.0,-8.0,-10.0,-4.0,-8.0,1650821811847839.0
-1.0,1.0,0.0,-1.0,2.0,1.0,-2.0,13.0,1650821811847839.0
8.0,3.0,16.0,3.0,-7.0,6.0,3.0,-2.0,1650821811859873.0
-8.0,-20.0,-5.0,4.0,22.0,14.0,1.0,10.0,1650821811859873.0
5.0,12.0,1.0,-3.0,4.0,5.0,-3.0,-7.0,1650821811868818.0
-8.0,-24.0,-14.0,-5.0,-4.0,-7.0,2.0,11.0,1650821811868818.0
-11.0,-13.0,-5.0,4.0,-3.0,-9.0,0.0,-6.0,1650821811883803.0
-3.0,6.0,15.0,0.0,-6.0,12.0,-2.0,2.0,1650821811883803.0
-8.0,-13.0,-11.0,-7.0,-13.0,-14.0,-2.0,-5.0,1650821811885827.0
4.0,1.0,-2.0,4.0,4.0,1.0,1.0,-6.0,1650821811885827.0
-6.0,4.0,13.0,-1.0,-3.0,4.0,-3.0,-5.0,1650821811907074.0
-2.0,-7.0,-17.0,1.0,14.0,-2.0,-2.0,14.0,1650821811907074.0
0.0,4.0,-6.0,-7.0,-1.0,6.0,-3.0,-36.0,1650821811908074.0
-4.0,21.0,20.0,0.0,-2.0,3.0,1.0,-1.0,1650821811908074.0
10.0,-14.0,-29.0,-6.0,-7.0,-10.0,-2.0,1.0,1650821811919893.0
-2.0,10.0,10.0,2.0,-6.0,-7.0,-1.0,4.0,1650821811919893.0
-4.0,-20.0,6.0,1.0,-6.0,-7.0,-4.0,-1.0,1650821811928848.0
0.0,1.0,-1.0,1.0,0.0,-2.0,1.0,-3.0,1650821811928848.0
-4.0,17.0,5.0,-3.0,-2.0,-2.0,-4.0,-4.0,1650821811944009.0
6.0,-6.0,0.0,-3.0,-4.0,3.0,0.0,2.0,1650821811944009.0
-3.0,-6.0,-7.0,1.0,8.0,-4.0,-2.0,8.0,1650821811946033.0
-1.0,1.0,-6.0,1.0,-4.0,0.0,4.0,7.0,1650821811946033.0
1.0,-6.0,0.0,3.0,3.0,9.0,1.0,1.0,1650821811966144.0
-6.0,0.0,2.0,3.0,10.0,6.0,5.0,-1.0,1650821811966144.0
11.0,3.0,4.0,1.0,-5.0,-1.0,1.0,5.0,1650821811968142.0
-6.0,-8.0,-4.0,-4.0,-6.0,-4.0,-6.0,-9.0,1650821811968142.0
-1.0,3.0,3.0,-5.0,-5.0,-9.0,-3.0,-1.0,1650821811979934.0
-3.0,-3.0,5.0,1.0,-8.0,-7.0,-5.0,-3.0,1650821811979934.0
-1.0,-2.0,-13.0,-2.0,7.0,5.0,3.0,3.0,1650821811988861.0
2.0,-2.0,2.0,4.0,-1.0,-2.0,1.0,0.0,1650821811988861.0
-3.0,-3.0,0.0,-3.0,2.0,13.0,-1.0,-2.0,1650821812003924.0
-2.0,1.0,5.0,-3.0,0.0,0.0,-1.0,-3.0,1650821812003924.0
2.0,-2.0,0.0,-1.0,-10.0,-12.0,-1.0,4.0,1650821812005921.0
-2.0,-1.0,-8.0,-2.0,-2.0,4.0,-3.0,-4.0,1650821812005921.0
0.0,-1.0,0.0,-2.0,5.0,5.0,3.0,2.0,1650821812034017.0
1.0,-2.0,-5.0,2.0,5.0,4.0,3.0,0.0,1650821812034017.0
0.0,4.0,7.0,7.0,2.0,2.0,4.0,6.0,1650821812035974.0
-1.0,-4.0,-3.0,-1.0,3.0,-4.0,-2.0,-3.0,1650821812035974.0
-2.0,0.0,-3.0,-4.0,0.0,-8.0,-3.0,-2.0,1650821812039962.0
1.0,0.0,0.0,-2.0,-2.0,2.0,-2.0,-1.0,1650821812039962.0
-2.0,-5.0,3.0,5.0,2.0,6.0,2.0,-1.0,1650821812057039.0
2.0,5.0,5.0,2.0,-1.0,-1.0,-1.0,0.0,1650821812057039.0
-1.0,-5.0,-7.0,-2.0,-4.0,-15.0,-4.0,-3.0,1650821812064085.0
-1.0,-4.0,-15.0,-13.0,-8.0,-7.0,-2.0,0.0,1650821812064085.0
0.0,1.0,0.0,-4.0,-8.0,2.0,1.0,1.0,1650821812066014.0
0.0,0.0,2.0,3.0,13.0,13.0,1.0,-1.0,1650821812066014.0
-1.0,2.0,1.0,4.0,9.0,10.0,7.0,3.0,1650821812087415.0
0.0,1.0,1.0,-1.0,-2.0,-1.0,2.0,0.0,1650821812087415.0
0.0,2.0,10.0,10.0,8.0,6.0,2.0,0.0,1650821812089063.0
0.0,1.0,-8.0,-8.0,-4.0,-1.0,-1.0,-3.0,1650821812089063.0
-2.0,-3.0,-1.0,9.0,-5.0,-12.0,-5.0,-4.0,1650821812100099.0
-2.0,-2.0,-1.0,-11.0,-11.0,-11.0,-2.0,-2.0,1650821812100099.0
-1.0,-2.0,-3.0,-1.0,-7.0,-12.0,-4.0,0.0,1650821812117173.0
0.0,0.0,8.0,11.0,3.0,16.0,2.0,0.0,1650821812117173.0
2.0,4.0,1.0,0.0,3.0,8.0,3.0,5.0,1650821812123745.0
0.0,-1.0,-3.0,-4.0,8.0,6.0,4.0,-1.0,1650821812123745.0
-1.0,-2.0,-2.0,3.0,4.0,-1.0,-2.0,-2.0,1650821812125742.0
0.0,1.0,-3.0,-2.0,-5.0,-14.0,-2.0,-3.0,1650821812125742.0
-1.0,1.0,8.0,3.0,-7.0,-11.0,-1.0,-3.0,1650821812147124.0
1.0,-1.0,1.0,3.0,3.0,16.0,3.0,3.0,1650821812147124.0
-1.0,0.0,-4.0,-6.0,-1.0,6.0,3.0,0.0,1650821812148124.0
-1.0,0.0,-5.0,-11.0,-3.0,-4.0,1.0,0.0,1650821812148124.0
1.0,1.0,2.0,1.0,-1.0,-5.0,-4.0,-1.0,1650821812159928.0
-1.0,0.0,-2.0,3.0,4.0,-13.0,-2.0,-2.0,1650821812159928.0
0.0,0.0,-1.0,-3.0,3.0,9.0,0.0,-1.0,1650821812168834.0
0.0,-2.0,3.0,4.0,0.0,2.0,1.0,1.0,1650821812168834.0
-2.0,0.0,-3.0,-6.0,1.0,2.0,0.0,0.0,1650821812183766.0
0.0,3.0,6.0,7.0,-2.0,0.0,-1.0,1.0,1650821812183766.0
-1.0,-4.0,-7.0,-3.0,-2.0,2.0,3.0,2.0,1650821812189819.0
-1.0,0.0,-12.0,-10.0,-1.0,-4.0,0.0,1.0,1650821812189819.0
0.0,0.0,3.0,0.0,1.0,-7.0,-1.0,-1.0,1650821812206911.0
-2.0,-7.0,-2.0,1.0,-5.0,-4.0,-3.0,-2.0,1650821812206911.0
1.0,1.0,8.0,10.0,1.0,3.0,-2.0,-1.0,1650821812207911.0
1.0,1.0,8.0,0.0,-2.0,-3.0,-1.0,-1.0,1650821812207911.0
-3.0,-6.0,-21.0,-20.0,-5.0,-3.0,-2.0,-2.0,1650821812219928.0
1.0,-3.0,8.0,13.0,-2.0,-5.0,1.0,0.0,1650821812219928.0
-1.0,-2.0,-6.0,-8.0,-7.0,-7.0,-2.0,0.0,1650821812228873.0
0.0,1.0,5.0,6.0,3.0,6.0,1.0,0.0,1650821812228873.0
0.0,3.0,2.0,1.0,13.0,11.0,3.0,0.0,1650821812243816.0
0.0,4.0,-4.0,-7.0,-7.0,-12.0,-6.0,-3.0,1650821812243816.0
0.0,0.0,-4.0,-6.0,-11.0,-16.0,-3.0,-2.0,1650821812249856.0
-1.0,-6.0,1.0,3.0,9.0,18.0,1.0,0.0,1650821812249856.0
2.0,-2.0,6.0,8.0,9.0,30.0,7.0,2.0,1650821812266911.0
1.0,3.0,0.0,-2.0,-5.0,-18.0,-1.0,0.0,1650821812266911.0
-1.0,-1.0,-9.0,-9.0,-9.0,-28.0,-7.0,-1.0,1650821812267919.0
-3.0,-2.0,2.0,2.0,2.0,22.0,2.0,-1.0,1650821812267919.0
-1.0,1.0,1.0,4.0,8.0,18.0,4.0,1.0,1650821812288861.0
-1.0,-3.0,1.0,4.0,3.0,4.0,2.0,-1.0,1650821812288861.0
0.0,3.0,0.0,-2.0,-9.0,-19.0,-4.0,-2.0,1650821812290885.0
-2.0,-5.0,-15.0,-17.0,-15.0,-28.0,-6.0,-2.0,1650821812290885.0
-5.0,-1.0,5.0,7.0,-1.0,1.0,-2.0,-3.0,1650821812303889.0
0.0,1.0,-1.0,-1.0,5.0,7.0,1.0,1.0,1650821812303889.0
-1.0,-2.0,1.0,0.0,4.0,7.0,3.0,2.0,1650821812305818.0
0.0,1.0,-4.0,-3.0,2.0,0.0,1.0,-1.0,1650821812305818.0
1.0,3.0,8.0,7.0,-1.0,-5.0,0.0,0.0,1650821812342013.0
-2.0,-4.0,-1.0,1.0,-7.0,-3.0,-2.0,-2.0,1650821812342013.0
0.0,2.0,2.0,1.0,2.0,4.0,0.0,0.0,1650821812342941.0
0.0,1.0,-4.0,-4.0,1.0,-6.0,-4.0,0.0,1650821812342941.0
2.0,3.0,-5.0,-5.0,-7.0,-16.0,-2.0,0.0,1650821812348952.0
-1.0,-2.0,1.0,1.0,2.0,14.0,3.0,1.0,1650821812348952.0
2.0,1.0,-2.0,3.0,14.0,19.0,4.0,1.0,1650821812350947.0
0.0,5.0,8.0,7.0,-1.0,-3.0,1.0,0.0,1650821812350947.0
0.0,-4.0,-5.0,-4.0,3.0,-1.0,-2.0,-1.0,1650821812364970.0
0.0,6.0,4.0,-2.0,-6.0,-16.0,-5.0,-3.0,1650821812364970.0
-2.0,-4.0,-5.0,-6.0,-9.0,-4.0,1.0,0.0,1650821812365880.0
1.0,3.0,3.0,7.0,-7.0,1.0,0.0,-1.0,1650821812365880.0
-2.0,-1.0,2.0,1.0,6.0,4.0,1.0,0.0,1650821812394238.0
0.0,-3.0,-4.0,1.0,10.0,14.0,3.0,1.0,1650821812394238.0
0.0,-1.0,-5.0,-4.0,-3.0,-4.0,-1.0,-2.0,1650821812395238.0
-1.0,-4.0,-2.0,0.0,-8.0,-18.0,-7.0,-2.0,1650821812395238.0
-2.0,-3.0,0.0,-2.0,-16.0,-9.0,-4.0,-3.0,1650821812409266.0
-3.0,-1.0,-6.0,-6.0,-10.0,-5.0,-2.0,-2.0,1650821812409266.0
-2.0,-2.0,4.0,11.0,10.0,13.0,4.0,1.0,1650821812410225.0
0.0,-1.0,1.0,4.0,24.0,15.0,6.0,1.0,1650821812410225.0
1.0,-2.0,-5.0,-5.0,-9.0,-11.0,-3.0,-2.0,1650821812423169.0
0.0,0.0,-4.0,-4.0,-10.0,4.0,-1.0,-1.0,1650821812423169.0
-1.0,1.0,-3.0,-6.0,14.0,12.0,2.0,1.0,1650821812432167.0
-1.0,0.0,7.0,11.0,0.0,1.0,1.0,0.0,1650821812432167.0
0.0,-6.0,-3.0,-4.0,0.0,-7.0,-2.0,0.0,1650821812446928.0
-1.0,-3.0,4.0,3.0,-5.0,-13.0,-2.0,-1.0,1650821812446928.0
0.0,-2.0,-4.0,-8.0,-8.0,2.0,-1.0,-1.0,1650821812447929.0
0.0,0.0,1.0,0.0,3.0,3.0,2.0,0.0,1650821812447929.0
-1.0,-1.0,3.0,1.0,-6.0,-11.0,-3.0,-1.0,1650821812469263.0
0.0,-2.0,-3.0,-2.0,-4.0,1.0,-1.0,-1.0,1650821812469263.0
-1.0,2.0,-1.0,-1.0,-2.0,0.0,-3.0,-3.0,1650821812470220.0
-2.0,-15.0,-10.0,-13.0,-17.0,-33.0,-9.0,-6.0,1650821812470220.0
-2.0,-1.0,-3.0,0.0,8.0,26.0,4.0,0.0,1650821812483224.0
1.0,6.0,9.0,14.0,22.0,39.0,10.0,2.0,1650821812483224.0
1.0,1.0,0.0,3.0,12.0,9.0,8.0,4.0,1650821812490206.0
0.0,4.0,0.0,0.0,-3.0,-10.0,0.0,-1.0,1650821812490206.0
-2.0,2.0,-1.0,-5.0,-13.0,-26.0,-5.0,-2.0,1650821812506280.0
-2.0,-7.0,-10.0,-8.0,0.0,-2.0,-6.0,-3.0,1650821812506280.0
-1.0,4.0,1.0,-5.0,-8.0,-3.0,-6.0,-4.0,1650821812508209.0
-3.0,-3.0,4.0,3.0,-30.0,-18.0,-3.0,-1.0,1650821812508209.0
0.0,1.0,2.0,0.0,24.0,5.0,-1.0,-2.0,1650821812537014.0
3.0,4.0,0.0,6.0,29.0,31.0,10.0,5.0,1650821812537014.0
0.0,1.0,4.0,4.0,1.0,2.0,3.0,1.0,1650821812538404.0
1.0,1.0,-5.0,-8.0,-3.0,4.0,-2.0,0.0,1650821812538404.0
0.0,0.0,1.0,1.0,-18.0,-12.0,-4.0,-2.0,1650821812543359.0
-1.0,-1.0,5.0,-3.0,-13.0,-17.0,-4.0,-3.0,1650821812543359.0
-3.0,-5.0,-7.0,-6.0,-6.0,-14.0,-5.0,-3.0,1650821812550340.0
1.0,2.0,3.0,2.0,-5.0,-9.0,-2.0,-2.0,1650821812550340.0
-1.0,-3.0,-3.0,1.0,0.0,20.0,5.0,1.0,1650821812566831.0
2.0,3.0,4.0,9.0,22.0,21.0,7.0,2.0,1650821812566831.0
0.0,0.0,-4.0,-1.0,13.0,10.0,7.0,3.0,1650821812567790.0
0.0,2.0,-1.0,-1.0,5.0,1.0,0.0,1.0,1650821812567790.0
-1.0,-1.0,-1.0,-4.0,-7.0,-14.0,-3.0,-3.0,1650821812588868.0
-3.0,-5.0,-2.0,-7.0,-27.0,-29.0,-10.0,-3.0,1650821812588868.0
-1.0,-3.0,-3.0,-3.0,-13.0,-19.0,-8.0,-3.0,1650821812590819.0
-3.0,1.0,-3.0,-1.0,6.0,23.0,3.0,1.0,1650821812590819.0
1.0,-2.0,0.0,5.0,7.0,20.0,6.0,2.0,1650821812611974.0
0.0,5.0,3.0,3.0,15.0,5.0,3.0,2.0,1650821812611974.0
1.0,-4.0,4.0,4.0,7.0,-3.0,-1.0,0.0,1650821812612911.0
1.0,1.0,-10.0,-14.0,-2.0,-6.0,-2.0,-1.0,1650821812612911.0
0.0,-2.0,3.0,8.0,-13.0,-8.0,-4.0,-1.0,1650821812626979.0
-3.0,1.0,10.0,3.0,-18.0,-20.0,-6.0,-3.0,1650821812626979.0
-3.0,-5.0,-13.0,-17.0,-12.0,-10.0,-5.0,-5.0,1650821812627913.0
-1.0,-5.0,5.0,7.0,18.0,15.0,4.0,2.0,1650821812627913.0
1.0,2.0,-2.0,4.0,19.0,29.0,7.0,4.0,1650821812649134.0
1.0,1.0,-2.0,1.0,9.0,3.0,4.0,1.0,1650821812649134.0
1.0,1.0,5.0,4.0,-3.0,-1.0,-1.0,-2.0,1650821812651064.0
-1.0,-2.0,-4.0,-7.0,-13.0,-5.0,-1.0,-3.0,1650821812651064.0
-1.0,1.0,-1.0,-6.0,-11.0,-19.0,-5.0,-2.0,1650821812671306.0
-3.0,-3.0,-7.0,-10.0,-9.0,-14.0,-7.0,-1.0,1650821812671306.0
-1.0,1.0,3.0,4.0,-12.0,-17.0,-6.0,-1.0,1650821812673234.0
-1.0,1.0,-1.0,5.0,7.0,26.0,5.0,0.0,1650821812673234.0
1.0,3.0,2.0,6.0,23.0,34.0,7.0,4.0,1650821812686867.0
3.0,0.0,0.0,5.0,12.0,9.0,7.0,0.0,1650821812686867.0
1.0,-1.0,-2.0,1.0,0.0,-4.0,2.0,1.0,1650821812687835.0
-1.0,-2.0,2.0,1.0,-7.0,-17.0,-5.0,-2.0,1650821812687835.0
-1.0,-2.0,-16.0,-18.0,-22.0,-26.0,-9.0,-4.0,1650821812708864.0
-2.0,-4.0,-4.0,-9.0,-14.0,-7.0,-6.0,-3.0,1650821812708864.0
-1.0,-4.0,-7.0,1.0,5.0,11.0,1.0,0.0,1650821812710888.0
2.0,3.0,7.0,6.0,12.0,8.0,2.0,3.0,1650821812710888.0
0.0,-3.0,2.0,3.0,0.0,-3.0,0.0,0.0,1650821812723826.0
0.0,-2.0,-6.0,-5.0,-5.0,-2.0,-3.0,-1.0,1650821812723826.0
1.0,0.0,-1.0,-3.0,3.0,6.0,-1.0,1.0,1650821812729877.0
-1.0,0.0,7.0,12.0,-1.0,3.0,1.0,-1.0,1650821812729877.0
-1.0,-2.0,-4.0,-9.0,-8.0,-27.0,-5.0,-2.0,1650821812746999.0
-1.0,0.0,0.0,3.0,5.0,9.0,-1.0,-1.0,1650821812746999.0
-1.0,0.0,3.0,2.0,7.0,26.0,7.0,1.0,1650821812747998.0
1.0,2.0,-5.0,-4.0,3.0,-1.0,0.0,0.0,1650821812747998.0
-1.0,-3.0,2.0,2.0,-5.0,-16.0,-3.0,-2.0,1650821812769159.0
-1.0,-1.0,-2.0,-1.0,-14.0,-18.0,-4.0,-2.0,1650821812769159.0
-2.0,-5.0,3.0,3.0,-5.0,6.0,-1.0,0.0,1650821812770090.0
1.0,0.0,-8.0,-12.0,4.0,2.0,-1.0,-2.0,1650821812770090.0
-1.0,4.0,4.0,0.0,-8.0,-14.0,-3.0,-3.0,1650821812783096.0
0.0,-3.0,-6.0,-3.0,-2.0,3.0,-2.0,1.0,1650821812783096.0
-1.0,1.0,11.0,15.0,18.0,18.0,3.0,2.0,1650821812792031.0
2.0,4.0,3.0,3.0,7.0,13.0,5.0,1.0,1650821812792031.0
1.0,-1.0,-3.0,-6.0,7.0,11.0,3.0,2.0,1650821812807015.0
-1.0,-4.0,1.0,1.0,-9.0,-14.0,-1.0,-1.0,1650821812807015.0
-1.0,1.0,-4.0,-8.0,-12.0,-15.0,-5.0,-3.0,1650821812807969.0
-3.0,-2.0,7.0,5.0,-8.0,-8.0,-6.0,-2.0,1650821812807969.0
-1.0,-2.0,-4.0,-2.0,-8.0,-3.0,-2.0,-2.0,1650821812828870.0
1.0,1.0,-2.0,2.0,9.0,4.0,0.0,0.0,1650821812828870.0
1.0,4.0,0.0,-3.0,4.0,-3.0,4.0,-1.0,1650821812830799.0
0.0,-1.0,-4.0,-4.0,1.0,10.0,1.0,0.0,1650821812830799.0
0.0,0.0,-1.0,1.0,1.0,12.0,3.0,1.0,1650821812842920.0
1.0,-1.0,0.0,-4.0,1.0,-3.0,0.0,-3.0,1650821812842920.0
0.0,3.0,3.0,6.0,-5.0,-13.0,-5.0,-3.0,1650821812851899.0
-3.0,-12.0,-5.0,-4.0,3.0,-7.0,-3.0,1.0,1650821812851899.0
1.0,3.0,6.0,4.0,-6.0,1.0,1.0,1.0,1650821812866047.0
-1.0,3.0,0.0,2.0,3.0,2.0,1.0,0.0,1650821812866047.0
3.0,0.0,-1.0,-1.0,4.0,13.0,2.0,0.0,1650821812868048.0
-1.0,2.0,-4.0,-3.0,0.0,0.0,1.0,2.0,1650821812868048.0
-2.0,-1.0,1.0,4.0,1.0,-6.0,-2.0,-2.0,1650821812889925.0
-3.0,-6.0,-3.0,-6.0,-16.0,-14.0,-3.0,-3.0,1650821812889925.0
-1.0,0.0,1.0,2.0,-2.0,-9.0,-3.0,-1.0,1650821812890850.0
0.0,2.0,5.0,8.0,12.0,25.0,4.0,1.0,1650821812890850.0
2.0,2.0,-2.0,-2.0,17.0,20.0,6.0,2.0,1650821812903149.0
0.0,-1.0,1.0,4.0,6.0,-2.0,-2.0,-1.0,1650821812903149.0
-1.0,-1.0,0.0,-2.0,-15.0,-13.0,-4.0,-1.0,1650821812918845.0
0.0,1.0,0.0,-7.0,-19.0,-27.0,-8.0,-3.0,1650821812918845.0
-5.0,-5.0,-7.0,-5.0,-5.0,-11.0,-5.0,-4.0,1650821812927000.0
-1.0,1.0,-4.0,-6.0,-17.0,7.0,0.0,-2.0,1650821812927000.0
-1.0,-1.0,1.0,7.0,19.0,16.0,7.0,2.0,1650821812928001.0
1.0,2.0,7.0,10.0,16.0,18.0,5.0,1.0,1650821812928001.0
2.0,1.0,2.0,-3.0,6.0,-2.0,2.0,0.0,1650821812957522.0
-1.0,-1.0,-5.0,-5.0,-8.0,-10.0,-3.0,0.0,1650821812957522.0
-1.0,-1.0,-2.0,-4.0,-15.0,-18.0,-7.0,-4.0,1650821812958533.0
-1.0,-1.0,-4.0,-6.0,-12.0,-8.0,-4.0,-4.0,1650821812958533.0
1.0,0.0,-4.0,-1.0,-3.0,4.0,1.0,-1.0,1650821812962539.0
0.0,-8.0,-2.0,2.0,11.0,8.0,1.0,1.0,1650821812962539.0
1.0,0.0,-3.0,-2.0,-4.0,-5.0,-1.0,2.0,1650821812971496.0
0.0,3.0,4.0,2.0,4.0,9.0,2.0,2.0,1650821812971496.0
-2.0,-3.0,1.0,2.0,3.0,7.0,-1.0,-1.0,1650821812986970.0
0.0,3.0,3.0,4.0,13.0,3.0,3.0,1.0,1650821812986970.0
-1.0,-1.0,-6.0,-12.0,-4.0,-5.0,-3.0,-1.0,1650821812987894.0
-1.0,-3.0,-3.0,1.0,-10.0,-16.0,-4.0,-3.0,1650821812987894.0
0.0,0.0,-1.0,-3.0,-17.0,-16.0,-5.0,-1.0,1650821813008893.0
1.0,6.0,1.0,-3.0,-12.0,-10.0,-1.0,-1.0,1650821813008893.0
-1.0,0.0,0.0,2.0,15.0,26.0,4.0,1.0,1650821813010847.0
0.0,3.0,-1.0,-1.0,12.0,21.0,5.0,2.0,1650821813010847.0
1.0,-3.0,0.0,9.0,11.0,10.0,6.0,3.0,1650821813022956.0
0.0,0.0,-2.0,-3.0,-2.0,-10.0,-2.0,-1.0,1650821813022956.0
-2.0,-5.0,0.0,-1.0,-15.0,-18.0,-6.0,-2.0,1650821813032160.0
-2.0,-3.0,1.0,-1.0,-11.0,-12.0,-6.0,-3.0,1650821813032160.0
-3.0,-1.0,-3.0,-4.0,-2.0,-2.0,-2.0,0.0,1650821813046219.0
0.0,-1.0,1.0,1.0,-5.0,-10.0,-3.0,-2.0,1650821813046219.0
0.0,-1.0,-3.0,-2.0,8.0,9.0,1.0,-1.0,1650821813048175.0
1.0,0.0,-2.0,-6.0,5.0,8.0,3.0,2.0,1650821813048175.0
0.0,-1.0,2.0,6.0,9.0,9.0,3.0,1.0,1650821813069359.0
-2.0,-1.0,-1.0,3.0,0.0,10.0,1.0,0.0,1650821813069359.0
0.0,3.0,-1.0,-4.0,-4.0,-5.0,-1.0,-2.0,1650821813070289.0
-1.0,-5.0,-4.0,-4.0,-8.0,-18.0,-4.0,-1.0,1650821813070289.0
0.0,0.0,-1.0,-6.0,0.0,-9.0,-4.0,-2.0,1650821813082324.0
-2.0,-3.0,0.0,1.0,-2.0,2.0,0.0,0.0,1650821813082324.0
1.0,-1.0,-3.0,1.0,1.0,3.0,2.0,0.0,1650821813091299.0
-1.0,-2.0,-3.0,-3.0,-7.0,-12.0,-3.0,-2.0,1650821813091299.0
1.0,0.0,-4.0,-1.0,-2.0,0.0,1.0,0.0,1650821813107015.0
0.0,1.0,4.0,5.0,17.0,27.0,4.0,2.0,1650821813107015.0
2.0,0.0,4.0,5.0,11.0,17.0,7.0,3.0,1650821813108314.0
0.0,2.0,-2.0,-3.0,-5.0,-17.0,-3.0,0.0,1650821813108314.0
-1.0,2.0,-2.0,-4.0,-14.0,-10.0,-5.0,-4.0,1650821813128858.0
-2.0,-5.0,1.0,-3.0,-6.0,-9.0,-3.0,-2.0,1650821813128858.0
-2.0,0.0,-4.0,-8.0,-10.0,-8.0,-4.0,-1.0,1650821813130882.0
1.0,-2.0,-6.0,-1.0,-8.0,-10.0,0.0,0.0,1650821813130882.0
-2.0,5.0,9.0,7.0,14.0,3.0,0.0,-1.0,1650821813142935.0
2.0,3.0,-5.0,1.0,15.0,28.0,6.0,3.0,1650821813142935.0
-1.0,0.0,7.0,10.0,2.0,-2.0,0.0,1.0,1650821813151913.0
-2.0,-4.0,-6.0,-7.0,1.0,5.0,0.0,0.0,1650821813151913.0
-2.0,-1.0,-2.0,-3.0,-10.0,-5.0,-1.0,0.0,1650821813166939.0
0.0,-1.0,-4.0,-9.0,-7.0,-8.0,-1.0,-1.0,1650821813166939.0
1.0,4.0,-3.0,-4.0,-3.0,-4.0,-3.0,-2.0,1650821813168894.0
0.0,-8.0,-1.0,4.0,6.0,-2.0,0.0,0.0,1650821813168894.0
-1.0,-2.0,0.0,-3.0,-3.0,-1.0,-1.0,0.0,1650821813196933.0
0.0,-1.0,2.0,3.0,8.0,6.0,1.0,-2.0,1650821813196933.0
-1.0,3.0,-2.0,-1.0,5.0,4.0,1.0,0.0,1650821813197866.0
-1.0,2.0,5.0,3.0,-2.0,-5.0,-5.0,-1.0,1650821813197866.0
0.0,0.0,-3.0,-4.0,-7.0,-2.0,0.0,0.0,1650821813211239.0
-2.0,-4.0,-1.0,0.0,-14.0,-17.0,-5.0,-1.0,1650821813211239.0
0.0,-1.0,1.0,-1.0,-5.0,0.0,0.0,1.0,1650821813213167.0
-1.0,-5.0,-3.0,0.0,9.0,20.0,5.0,1.0,1650821813213167.0
0.0,-3.0,3.0,1.0,5.0,1.0,0.0,-1.0,1650821813227492.0
1.0,3.0,-1.0,-2.0,-4.0,-20.0,-2.0,-1.0,1650821813227492.0
-2.0,0.0,3.0,1.0,1.0,13.0,1.0,0.0,1650821813228498.0
-1.0,3.0,0.0,2.0,0.0,8.0,3.0,0.0,1650821813228498.0
1.0,0.0,-1.0,0.0,8.0,7.0,0.0,0.0,1650821813248750.0
1.0,-2.0,1.0,2.0,0.0,-9.0,-2.0,1.0,1650821813248750.0
0.0,-5.0,-8.0,-10.0,-3.0,-16.0,-6.0,-2.0,1650821813250705.0
1.0,4.0,9.0,6.0,-18.0,-16.0,-5.0,-2.0,1650821813250705.0
0.0,-1.0,0.0,1.0,-1.0,11.0,1.0,1.0,1650821813271794.0
0.0,1.0,-1.0,-2.0,14.0,19.0,2.0,1.0,1650821813271794.0
-1.0,0.0,0.0,1.0,-6.0,-4.0,0.0,-2.0,1650821813272738.0
-1.0,1.0,1.0,0.0,3.0,-3.0,-2.0,0.0,1650821813272738.0
0.0,-1.0,-7.0,-3.0,-5.0,-11.0,-5.0,-3.0,1650821813286809.0
0.0,3.0,1.0,-1.0,2.0,3.0,0.0,0.0,1650821813286809.0
-2.0,-7.0,-5.0,-2.0,-5.0,-6.0,-1.0,-1.0,1650821813287822.0
2.0,0.0,-2.0,1.0,7.0,15.0,4.0,2.0,1650821813287822.0
-2.0,2.0,7.0,6.0,3.0,6.0,-1.0,1.0,1650821813308864.0
0.0,2.0,-2.0,-3.0,-5.0,-1.0,-2.0,0.0,1650821813308864.0
-5.0,-5.0,-7.0,-9.0,-5.0,-13.0,-4.0,2.0,1650821813314916.0
6.0,2.0,-6.0,-4.0,-3.0,-9.0,-2.0,0.0,1650821813314916.0
0.0,-2.0,0.0,0.0,-3.0,1.0,0.0,0.0,1650821813331833.0
-1.0,2.0,3.0,3.0,-6.0,-11.0,-1.0,-3.0,1650821813331833.0
-3.0,-1.0,2.0,5.0,-1.0,7.0,0.0,1.0,1650821813332801.0
-1.0,-2.0,-6.0,-7.0,3.0,3.0,0.0,-1.0,1650821813332801.0
4.0,3.0,5.0,-2.0,-3.0,3.0,1.0,0.0,1650821813346375.0
-1.0,0.0,4.0,4.0,-3.0,-5.0,2.0,0.0,1650821813346375.0
-1.0,2.0,5.0,17.0,24.0,16.0,2.0,-2.0,1650821813352428.0
-2.0,-2.0,-3.0,-8.0,10.0,17.0,4.0,2.0,1650821813352428.0
-1.0,-10.0,-23.0,-19.0,-11.0,-7.0,-1.0,-1.0,1650821813368609.0
-1.0,-5.0,5.0,6.0,-3.0,-15.0,-3.0,-2.0,1650821813368609.0
2.0,-1.0,0.0,-4.0,-13.0,-14.0,-3.0,-2.0,1650821813370607.0
-2.0,2.0,10.0,8.0,-3.0,8.0,0.0,-3.0,1650821813370607.0
0.0,-3.0,-5.0,-6.0,1.0,-4.0,-1.0,2.0,1650821813391573.0
0.0,-2.0,-6.0,-6.0,-5.0,3.0,1.0,0.0,1650821813391573.0
-1.0,1.0,4.0,6.0,10.0,5.0,2.0,0.0,1650821813393550.0
2.0,1.0,8.0,12.0,-3.0,-12.0,-3.0,-3.0,1650821813393550.0
-4.0,1.0,0.0,2.0,-1.0,-1.0,0.0,-2.0,1650821813406317.0
-4.0,-5.0,-19.0,-18.0,1.0,7.0,1.0,-1.0,1650821813406317.0
-1.0,0.0,7.0,7.0,-2.0,-1.0,-1.0,-2.0,1650821813413176.0
-3.0,-1.0,4.0,0.0,-10.0,-15.0,-3.0,-1.0,1650821813413176.0
0.0,1.0,6.0,4.0,3.0,5.0,1.0,0.0,1650821813429270.0
0.0,-3.0,-10.0,-2.0,2.0,1.0,-3.0,-2.0,1650821813429270.0
1.0,-1.0,-5.0,-8.0,3.0,4.0,1.0,0.0,1650821813430227.0
-1.0,0.0,-4.0,-8.0,2.0,6.0,2.0,3.0,1650821813430227.0
1.0,0.0,16.0,20.0,8.0,5.0,3.0,0.0,1650821813451864.0
0.0,-3.0,-7.0,-10.0,-5.0,-3.0,-1.0,-1.0,1650821813451864.0
1.0,-1.0,-13.0,-13.0,-15.0,-16.0,-6.0,0.0,1650821813452863.0
-1.0,-1.0,7.0,10.0,-1.0,-14.0,-3.0,-1.0,1650821813452863.0
-2.0,1.0,3.0,10.0,0.0,12.0,-1.0,1.0,1650821813465927.0
0.0,-2.0,-8.0,-7.0,9.0,8.0,0.0,-1.0,1650821813465927.0
-3.0,-1.0,1.0,-13.0,-4.0,5.0,7.0,1.0,1650821813473892.0
0.0,0.0,-2.0,4.0,3.0,3.0,-1.0,-2.0,1650821813473892.0
1.0,1.0,4.0,-10.0,-1.0,-9.0,-2.0,0.0,1650821813488862.0
-3.0,0.0,3.0,4.0,-9.0,-6.0,0.0,0.0,1650821813488862.0
1.0,1.0,-10.0,-3.0,-3.0,-1.0,-3.0,-1.0,1650821813490859.0
0.0,3.0,4.0,2.0,2.0,-1.0,0.0,1.0,1650821813490859.0
-1.0,-1.0,3.0,10.0,-1.0,-1.0,-3.0,-3.0,1650821813512076.0
-4.0,-4.0,-1.0,0.0,-2.0,-3.0,-1.0,-2.0,1650821813512076.0
5.0,4.0,5.0,3.0,1.0,0.0,-1.0,0.0,1650821813513047.0
-1.0,-3.0,-11.0,-10.0,2.0,8.0,1.0,0.0,1650821813513047.0
0.0,0.0,2.0,-2.0,11.0,8.0,3.0,0.0,1650821813526013.0
1.0,1.0,14.0,22.0,6.0,0.0,-3.0,0.0,1650821813526013.0
3.0,0.0,-4.0,-13.0,-8.0,-8.0,-1.0,1.0,1650821813533093.0
-4.0,-3.0,5.0,7.0,-9.0,-12.0,-6.0,8.0,1650821813533093.0
-4.0,2.0,1.0,-10.0,-6.0,-6.0,-5.0,-25.0,1650821813548817.0
0.0,3.0,7.0,9.0,2.0,-5.0,3.0,16.0,1650821813548817.0
-2.0,-11.0,-34.0,-23.0,-2.0,17.0,0.0,-21.0,1650821813550813.0
3.0,0.0,1.0,7.0,-3.0,-2.0,2.0,3.0,1650821813550813.0
2.0,-5.0,-7.0,-7.0,20.0,5.0,0.0,7.0,1650821813571904.0
-4.0,11.0,23.0,20.0,12.0,21.0,6.0,8.0,1650821813571904.0
8.0,-11.0,-2.0,-4.0,-5.0,-10.0,1.0,-4.0,1650821813572840.0
-2.0,-8.0,2.0,7.0,-19.0,-8.0,4.0,5.0,1650821813572840.0
9.0,14.0,17.0,19.0,13.0,1.0,-3.0,-5.0,1650821813585986.0
7.0,5.0,8.0,-6.0,4.0,2.0,1.0,7.0,1650821813585986.0
-9.0,-3.0,-27.0,-21.0,-7.0,-4.0,-7.0,-12.0,1650821813592913.0
0.0,-4.0,-16.0,-13.0,-11.0,-11.0,-2.0,9.0,1650821813592913.0
-2.0,3.0,1.0,-1.0,-5.0,-8.0,-3.0,7.0,1650821813609078.0
-6.0,-18.0,-25.0,-17.0,-5.0,2.0,-3.0,5.0,1650821813609078.0
7.0,6.0,32.0,26.0,9.0,10.0,8.0,32.0,1650821813611034.0
-20.0,7.0,-21.0,-26.0,-1.0,-12.0,-8.0,-74.0,1650821813611034.0
2.0,-17.0,0.0,6.0,-15.0,-7.0,-3.0,-12.0,1650821813631108.0
-10.0,3.0,3.0,2.0,3.0,1.0,-5.0,-21.0,1650821813631108.0
6.0,-4.0,12.0,8.0,-3.0,-8.0,1.0,25.0,1650821813633040.0
6.0,-1.0,-5.0,-4.0,23.0,25.0,12.0,13.0,1650821813633040.0
7.0,-16.0,-31.0,1.0,4.0,-3.0,2.0,-1.0,1650821813645798.0
-17.0,-1.0,19.0,-13.0,-18.0,-15.0,-12.0,-5.0,1650821813645798.0
-15.0,9.0,3.0,-7.0,-2.0,-1.0,2.0,36.0,1650821813652780.0
17.0,7.0,38.0,13.0,2.0,1.0,4.0,-16.0,1650821813652780.0
-30.0,-18.0,-20.0,-10.0,-11.0,-13.0,-9.0,-55.0,1650821813668887.0
10.0,-4.0,-8.0,-10.0,-13.0,-17.0,-5.0,-3.0,1650821813668887.0
4.0,-3.0,-3.0,11.0,7.0,8.0,0.0,-3.0,1650821813670837.0
-9.0,14.0,-2.0,-2.0,15.0,18.0,-2.0,10.0,1650821813670837.0
3.0,-12.0,-4.0,-3.0,1.0,14.0,14.0,32.0,1650821813691984.0
27.0,13.0,-10.0,4.0,5.0,5.0,10.0,4.0,1650821813691984.0
-24.0,7.0,26.0,-6.0,-1.0,-8.0,-5.0,-15.0,1650821813692955.0
0.0,-7.0,-2.0,19.0,-3.0,-16.0,-6.0,16.0,1650821813692955.0
-5.0,6.0,-8.0,-34.0,-13.0,-3.0,4.0,14.0,1650821813705614.0
5.0,3.0,12.0,11.0,-6.0,9.0,-4.0,-9.0,1650821813705614.0
9.0,-7.0,-15.0,2.0,8.0,6.0,0.0,-25.0,1650821813721892.0
23.0,1.0,-22.0,-29.0,0.0,7.0,5.0,14.0,1650821813721892.0
-22.0,-22.0,22.0,39.0,15.0,0.0,2.0,24.0,1650821813728939.0
-6.0,-4.0,-13.0,-22.0,-1.0,-4.0,-1.0,-11.0,1650821813728939.0
6.0,-1.0,8.0,20.0,-5.0,-2.0,-1.0,2.0,1650821813730896.0
-6.0,0.0,-23.0,-18.0,-6.0,-14.0,-11.0,-4.0,1650821813730896.0
14.0,28.0,32.0,-4.0,-17.0,-13.0,-4.0,9.0,1650821813751866.0
1.0,-9.0,-16.0,6.0,-3.0,5.0,4.0,0.0,1650821813751866.0
0.0,4.0,-10.0,-9.0,5.0,1.0,-6.0,-14.0,1650821813753822.0
-7.0,-1.0,8.0,10.0,4.0,5.0,1.0,24.0,1650821813753822.0
9.0,18.0,-14.0,4.0,-2.0,4.0,2.0,8.0,1650821813764830.0
-2.0,-3.0,2.0,-14.0,1.0,2.0,3.0,-8.0,1650821813764830.0
-8.0,9.0,2.0,0.0,-10.0,-17.0,-10.0,3.0,1650821813781722.0
2.0,-6.0,1.0,-5.0,-9.0,-7.0,-3.0,-12.0,1650821813781722.0
12.0,6.0,-14.0,-14.0,-4.0,-4.0,-4.0,3.0,1650821813788857.0
10.0,10.0,13.0,16.0,4.0,5.0,5.0,10.0,1650821813788857.0
-19.0,11.0,-17.0,4.0,6.0,0.0,0.0,-11.0,1650821813790884.0
5.0,-12.0,23.0,17.0,-13.0,-1.0,0.0,-3.0,1650821813790884.0
6.0,21.0,-5.0,-4.0,23.0,23.0,9.0,7.0,1650821813812498.0
-8.0,-2.0,-21.0,-19.0,12.0,9.0,0.0,26.0,1650821813812498.0
23.0,-7.0,3.0,4.0,-1.0,1.0,-5.0,-45.0,1650821813813512.0
-32.0,17.0,11.0,1.0,1.0,-3.0,8.0,6.0,1650821813813512.0
-1.0,-3.0,-9.0,5.0,-22.0,-20.0,-3.0,5.0,1650821813825584.0
-3.0,19.0,19.0,0.0,-14.0,-15.0,-8.0,-8.0,1650821813825584.0
-4.0,-36.0,-5.0,9.0,9.0,7.0,-3.0,6.0,1650821813834638.0
12.0,2.0,8.0,5.0,16.0,18.0,6.0,17.0,1650821813834638.0
-6.0,-3.0,5.0,5.0,2.0,11.0,3.0,-31.0,1650821813848819.0
-8.0,-8.0,-38.0,-11.0,-6.0,-10.0,-4.0,-17.0,1650821813848819.0
3.0,18.0,34.0,11.0,1.0,-2.0,7.0,6.0,1650821813850770.0
2.0,-3.0,-16.0,-8.0,2.0,-3.0,-7.0,-11.0,1650821813850770.0
-7.0,-8.0,11.0,5.0,-6.0,-11.0,-4.0,23.0,1650821813871842.0
12.0,4.0,0.0,-1.0,4.0,4.0,6.0,25.0,1650821813871842.0
-5.0,-22.0,-17.0,-8.0,-13.0,-9.0,0.0,-18.0,1650821813872772.0
8.0,0.0,-1.0,6.0,6.0,6.0,-1.0,-12.0,1650821813872772.0
-5.0,-8.0,-6.0,-23.0,1.0,4.0,1.0,2.0,1650821813884806.0
4.0,-17.0,25.0,26.0,4.0,-2.0,-3.0,-3.0,1650821813884806.0
-17.0,-22.0,18.0,2.0,-6.0,-19.0,-1.0,-14.0,1650821813894722.0
-11.0,-16.0,-45.0,-19.0,-8.0,-4.0,-7.0,-22.0,1650821813894722.0
-3.0,-7.0,3.0,0.0,1.0,15.0,-1.0,-8.0,1650821813908819.0
6.0,5.0,1.0,-2.0,6.0,3.0,4.0,10.0,1650821813908819.0
5.0,1.0,2.0,4.0,-1.0,-1.0,4.0,24.0,1650821813910841.0
3.0,6.0,1.0,-19.0,-1.0,-5.0,-4.0,-12.0,1650821813910841.0
18.0,14.0,8.0,4.0,-6.0,-17.0,-12.0,0.0,1650821813932026.0
-34.0,-19.0,-17.0,-6.0,4.0,14.0,13.0,13.0,1650821813932026.0
-18.0,8.0,2.0,-1.0,8.0,7.0,-9.0,-47.0,1650821813932924.0
9.0,4.0,13.0,14.0,0.0,4.0,7.0,32.0,1650821813932924.0
-12.0,-15.0,-7.0,7.0,-5.0,-11.0,-12.0,-47.0,1650821813944873.0
16.0,4.0,-9.0,-20.0,-11.0,-18.0,-4.0,-3.0,1650821813944873.0
2.0,-4.0,-5.0,-5.0,1.0,5.0,3.0,14.0,1650821813954116.0
-3.0,2.0,6.0,13.0,3.0,14.0,4.0,3.0,1650821813954116.0
-5.0,10.0,12.0,-9.0,-2.0,-13.0,4.0,35.0,1650821813969144.0
-6.0,-14.0,-4.0,-3.0,-10.0,-14.0,-13.0,-44.0,1650821813969144.0
8.0,3.0,16.0,10.0,7.0,15.0,2.0,8.0,1650821813971100.0
1.0,-3.0,-1.0,-13.0,1.0,-5.0,-4.0,-3.0,1650821813971100.0
-6.0,0.0,5.0,20.0,-1.0,-2.0,-2.0,7.0,1650821813999049.0
1.0,28.0,-3.0,-11.0,-7.0,-4.0,2.0,4.0,1650821813999049.0
17.0,27.0,5.0,7.0,-7.0,-6.0,4.0,29.0,1650821814000977.0
1.0,-21.0,-17.0,-5.0,-5.0,-8.0,-12.0,-4.0,1650821814000977.0
-1.0,-2.0,-22.0,-33.0,-8.0,-8.0,-4.0,-9.0,1650821814005500.0
-6.0,1.0,19.0,26.0,5.0,-4.0,-3.0,10.0,1650821814005500.0
0.0,10.0,1.0,-1.0,6.0,21.0,8.0,-11.0,1650821814014574.0
-11.0,11.0,12.0,2.0,0.0,5.0,-3.0,-40.0,1650821814014574.0
14.0,-2.0,-17.0,-10.0,2.0,-1.0,9.0,9.0,1650821814028597.0
23.0,-6.0,4.0,18.0,10.0,-3.0,2.0,25.0,1650821814028597.0
2.0,-1.0,-20.0,-11.0,8.0,15.0,-1.0,-5.0,1650821814030531.0
0.0,11.0,61.0,24.0,11.0,17.0,12.0,14.0,1650821814030531.0
4.0,-27.0,-21.0,-3.0,2.0,-6.0,2.0,4.0,1650821814050651.0
10.0,12.0,-26.0,-21.0,-6.0,6.0,-3.0,3.0,1650821814050651.0
-4.0,-5.0,4.0,3.0,-9.0,-16.0,-3.0,16.0,1650821814058861.0
-2.0,1.0,-15.0,-4.0,-15.0,-17.0,-2.0,-4.0,1650821814058861.0
0.0,-6.0,-12.0,-4.0,-5.0,-3.0,-4.0,1.0,1650821814064915.0
-6.0,-2.0,6.0,10.0,-1.0,2.0,0.0,-4.0,1650821814064915.0
4.0,-2.0,-5.0,-15.0,-3.0,-1.0,-4.0,-3.0,1650821814073860.0
-17.0,7.0,1.0,13.0,-4.0,-7.0,0.0,0.0,1650821814073860.0
-1.0,13.0,15.0,2.0,10.0,11.0,4.0,0.0,1650821814088876.0
-5.0,-22.0,7.0,5.0,-7.0,-2.0,2.0,-2.0,1650821814088876.0
-6.0,8.0,1.0,0.0,-3.0,-5.0,-10.0,12.0,1650821814090901.0
8.0,-13.0,-6.0,1.0,9.0,9.0,12.0,1.0,1650821814090901.0
25.0,3.0,12.0,12.0,6.0,14.0,14.0,13.0,1650821814112014.0
-8.0,-10.0,-24.0,-16.0,-1.0,-3.0,-8.0,-14.0,1650821814112014.0
9.0,0.0,11.0,1.0,-6.0,-14.0,3.0,50.0,1650821814113023.0
-13.0,-4.0,-26.0,-19.0,-21.0,-33.0,-21.0,-65.0,1650821814113023.0
-10.0,22.0,-16.0,-26.0,-3.0,16.0,-4.0,6.0,1650821814125087.0
3.0,-3.0,-5.0,12.0,15.0,28.0,10.0,-10.0,1650821814125087.0
5.0,8.0,20.0,13.0,26.0,18.0,9.0,6.0,1650821814134047.0
-2.0,-31.0,-21.0,-5.0,8.0,1.0,-3.0,31.0,1650821814134047.0
-7.0,2.0,26.0,19.0,1.0,-13.0,-1.0,-12.0,1650821814149219.0
2.0,5.0,7.0,-17.0,-2.0,-3.0,-1.0,-6.0,1650821814149219.0
-6.0,5.0,1.0,10.0,-6.0,2.0,-2.0,-15.0,1650821814150179.0
3.0,-3.0,-38.0,-12.0,-11.0,-2.0,-1.0,11.0,1650821814150179.0
-1.0,0.0,-7.0,-7.0,-2.0,5.0,0.0,-4.0,1650821814171311.0
1.0,8.0,15.0,19.0,-2.0,-7.0,-2.0,-5.0,1650821814171311.0
-12.0,-13.0,-14.0,-12.0,1.0,-11.0,-10.0,-13.0,1650821814173240.0
20.0,-2.0,13.0,-10.0,-2.0,1.0,9.0,54.0,1650821814173240.0
14.0,9.0,-3.0,6.0,5.0,7.0,5.0,-8.0,1650821814194278.0
-6.0,-2.0,15.0,0.0,-2.0,-9.0,-9.0,-6.0,1650821814194278.0
14.0,4.0,-13.0,-1.0,-6.0,-2.0,8.0,5.0,1650821814195291.0
-30.0,17.0,20.0,3.0,-6.0,-7.0,-7.0,0.0,1650821814195291.0
4.0,-6.0,-14.0,3.0,4.0,7.0,-2.0,-8.0,1650821814209308.0
3.0,4.0,10.0,-5.0,4.0,8.0,10.0,8.0,1650821814209308.0
-1.0,-13.0,2.0,6.0,-9.0,-14.0,-3.0,-1.0,1650821814210278.0
1.0,8.0,3.0,-6.0,1.0,11.0,-3.0,-7.0,1650821814210278.0
-11.0,-7.0,-13.0,-19.0,2.0,9.0,-2.0,-5.0,1650821814231250.0
-9.0,4.0,30.0,25.0,0.0,-2.0,-2.0,-7.0,1650821814231250.0
11.0,9.0,14.0,-4.0,5.0,9.0,6.0,-5.0,1650821814233178.0
-6.0,-24.0,-43.0,13.0,18.0,1.0,0.0,-19.0,1650821814233178.0
-5.0,-4.0,-3.0,-14.0,-19.0,-15.0,-7.0,-5.0,1650821814254465.0
7.0,27.0,-32.0,-16.0,-18.0,-12.0,-7.0,-4.0,1650821814254465.0
-5.0,-11.0,12.0,2.0,-15.0,-10.0,0.0,8.0,1650821814255830.0
13.0,18.0,42.0,9.0,0.0,3.0,6.0,11.0,1650821814255830.0
-12.0,-10.0,-11.0,-6.0,-2.0,-7.0,-13.0,-10.0,1650821814276944.0
-2.0,-40.0,-25.0,-4.0,-2.0,-2.0,-1.0,26.0,1650821814276944.0
4.0,1.0,-12.0,7.0,2.0,3.0,5.0,-13.0,1650821814277944.0
6.0,5.0,1.0,-4.0,8.0,11.0,7.0,5.0,1650821814277944.0
-1.0,-1.0,-2.0,8.0,5.0,-3.0,-2.0,-4.0,1650821814291918.0
-13.0,18.0,34.0,1.0,0.0,2.0,6.0,12.0,1650821814291918.0
-12.0,-22.0,-21.0,-6.0,0.0,2.0,-12.0,-43.0,1650821814292904.0
14.0,-5.0,-12.0,-20.0,-26.0,-31.0,-11.0,-4.0,1650821814292904.0
-6.0,1.0,25.0,23.0,11.0,7.0,2.0,5.0,1650821814313802.0
3.0,-4.0,-13.0,-9.0,18.0,25.0,5.0,-7.0,1650821814313802.0
-11.0,0.0,1.0,7.0,31.0,25.0,9.0,4.0,1650821814315800.0
3.0,1.0,18.0,15.0,-9.0,-20.0,-3.0,-2.0,1650821814315800.0
1.0,5.0,-13.0,-27.0,-5.0,-16.0,-2.0,-4.0,1650821814327930.0
-4.0,5.0,2.0,24.0,2.0,18.0,-2.0,-10.0,1650821814327930.0
-12.0,-41.0,-45.0,-47.0,-15.0,0.0,-1.0,3.0,1650821814336952.0
5.0,9.0,28.0,36.0,1.0,-9.0,-4.0,-5.0,1650821814336952.0
8.0,4.0,8.0,6.0,-5.0,-15.0,6.0,24.0,1650821814351980.0
-2.0,-8.0,-1.0,2.0,3.0,-8.0,-5.0,-6.0,1650821814351980.0
-3.0,16.0,-10.0,-15.0,-14.0,-16.0,-14.0,-11.0,1650821814352948.0
0.0,7.0,2.0,-1.0,4.0,11.0,3.0,-8.0,1650821814352948.0
-15.0,-12.0,-1.0,2.0,-5.0,3.0,-1.0,11.0,1650821814374311.0
5.0,-14.0,-1.0,4.0,-1.0,-3.0,-4.0,-14.0,1650821814374311.0
13.0,21.0,13.0,11.0,-2.0,2.0,7.0,20.0,1650821814375241.0
-3.0,-2.0,-10.0,-11.0,1.0,3.0,1.0,-8.0,1650821814375241.0
-2.0,22.0,13.0,12.0,-11.0,-6.0,-8.0,-19.0,1650821814388367.0
-6.0,-18.0,-25.0,-24.0,-6.0,-18.0,-2.0,17.0,1650821814388367.0
11.0,6.0,-2.0,3.0,3.0,-3.0,2.0,7.0,1650821814395353.0
-11.0,9.0,23.0,26.0,11.0,14.0,-3.0,4.0,1650821814395353.0
22.0,4.0,10.0,7.0,24.0,39.0,14.0,11.0,1650821814411569.0
-2.0,-1.0,-9.0,-2.0,-11.0,-12.0,-2.0,-4.0,1650821814411569.0
-4.0,14.0,2.0,-3.0,-16.0,-11.0,-5.0,-29.0,1650821814413537.0
-8.0,-6.0,15.0,-5.0,5.0,-2.0,0.0,6.0,1650821814413537.0
-3.0,-4.0,-26.0,-3.0,-11.0,-14.0,-5.0,-3.0,1650821814434469.0
-3.0,-5.0,29.0,11.0,0.0,-4.0,-3.0,3.0,1650821814434469.0
1.0,0.0,-3.0,5.0,6.0,2.0,2.0,-6.0,1650821814435821.0
1.0,6.0,-5.0,-19.0,-11.0,0.0,-6.0,-10.0,1650821814435821.0
-11.0,1.0,-8.0,4.0,9.0,-2.0,-1.0,-10.0,1650821814448860.0
10.0,4.0,1.0,4.0,0.0,2.0,9.0,21.0,1650821814448860.0
4.0,4.0,17.0,8.0,1.0,-4.0,-4.0,1.0,1650821814454913.0
-1.0,-19.0,-15.0,-15.0,-1.0,4.0,0.0,47.0,1650821814454913.0
2.0,-8.0,0.0,0.0,0.0,7.0,14.0,-39.0,1650821814471983.0
-1.0,8.0,9.0,5.0,8.0,7.0,6.0,-14.0,1650821814471983.0
-4.0,11.0,4.0,2.0,-6.0,-6.0,-6.0,16.0,1650821814477965.0
-3.0,-12.0,-14.0,-9.0,-7.0,-2.0,6.0,0.0,1650821814477965.0
-5.0,2.0,-2.0,3.0,0.0,-6.0,-10.0,-5.0,1650821814494344.0
1.0,13.0,22.0,3.0,12.0,4.0,1.0,1.0,1650821814494344.0
-3.0,-10.0,-11.0,3.0,7.0,5.0,5.0,-2.0,1650821814495829.0
1.0,-8.0,-30.0,-24.0,-11.0,4.0,2.0,-1.0,1650821814495829.0
-6.0,-10.0,15.0,34.0,15.0,9.0,0.0,8.0,1650821814508820.0
1.0,6.0,-9.0,-34.0,-6.0,3.0,-3.0,-16.0,1650821814508820.0
-1.0,-12.0,-25.0,-11.0,-1.0,-12.0,-4.0,6.0,1650821814515507.0
6.0,29.0,6.0,20.0,-6.0,-16.0,-3.0,4.0,1650821814515507.0
4.0,3.0,7.0,-16.0,-13.0,-13.0,-1.0,4.0,1650821814531660.0
-10.0,-13.0,-24.0,-1.0,0.0,-3.0,0.0,-11.0,1650821814531660.0
15.0,1.0,11.0,11.0,3.0,9.0,-2.0,38.0,1650821814532619.0
-1.0,11.0,11.0,-6.0,8.0,14.0,5.0,-27.0,1650821814532619.0
-5.0,2.0,25.0,3.0,2.0,3.0,-1.0,-1.0,1650821814555042.0
0.0,-12.0,-27.0,-3.0,-9.0,-13.0,-4.0,13.0,1650821814555042.0
-5.0,-8.0,-3.0,-11.0,-10.0,4.0,4.0,4.0,1650821814556011.0
1.0,-16.0,4.0,16.0,12.0,1.0,-4.0,4.0,1650821814556011.0
-2.0,-5.0,7.0,3.0,-1.0,-7.0,-8.0,12.0,1650821814568069.0
0.0,13.0,8.0,-16.0,-1.0,0.0,2.0,-31.0,1650821814568069.0
-8.0,-1.0,-12.0,-9.0,-14.0,-5.0,5.0,13.0,1650821814583145.0
13.0,-8.0,-4.0,4.0,2.0,4.0,-3.0,-22.0,1650821814583145.0
-7.0,-12.0,-2.0,-10.0,6.0,3.0,4.0,0.0,1650821814592043.0
8.0,11.0,16.0,20.0,7.0,4.0,-1.0,31.0,1650821814592043.0
4.0,3.0,-7.0,4.0,2.0,-3.0,4.0,-19.0,1650821814593042.0
-4.0,0.0,11.0,-1.0,3.0,19.0,5.0,8.0,1650821814593042.0
0.0,3.0,0.0,-6.0,-7.0,4.0,-8.0,-3.0,1650821814614014.0
5.0,-1.0,2.0,9.0,3.0,0.0,3.0,21.0,1650821814614014.0
-8.0,-4.0,34.0,12.0,4.0,-5.0,-6.0,-31.0,1650821814616012.0
-4.0,-14.0,-16.0,-8.0,-14.0,-21.0,-7.0,-17.0,1650821814616012.0
8.0,2.0,4.0,-10.0,-12.0,-8.0,3.0,27.0,1650821814628864.0
-12.0,-7.0,14.0,7.0,-2.0,-1.0,-5.0,-23.0,1650821814628864.0
-6.0,10.0,-9.0,-16.0,-1.0,-3.0,-2.0,4.0,1650821814634916.0
11.0,-22.0,-15.0,1.0,-2.0,1.0,3.0,6.0,1650821814634916.0
5.0,21.0,45.0,15.0,11.0,13.0,8.0,12.0,1650821814651854.0
5.0,-14.0,-20.0,-6.0,-4.0,0.0,0.0,2.0,1650821814651854.0
1.0,4.0,7.0,9.0,6.0,0.0,-4.0,12.0,1650821814652805.0
-8.0,-4.0,-23.0,-25.0,1.0,-1.0,-4.0,-33.0,1650821814652805.0
5.0,14.0,30.0,16.0,-16.0,-11.0,4.0,9.0,1650821814674922.0
-7.0,-9.0,-18.0,-2.0,2.0,-13.0,-9.0,-10.0,1650821814674922.0
-1.0,4.0,18.0,11.0,7.0,10.0,-1.0,-1.0,1650821814675874.0
-6.0,12.0,-25.0,-17.0,7.0,15.0,3.0,44.0,1650821814675874.0
-7.0,2.0,2.0,3.0,7.0,-2.0,-6.0,-61.0,1650821814687922.0
2.0,-13.0,3.0,-10.0,-8.0,7.0,6.0,6.0,1650821814687922.0
1.0,17.0,-4.0,22.0,2.0,9.0,-1.0,-2.0,1650821814696374.0
-2.0,10.0,34.0,3.0,5.0,-5.0,0.0,14.0,1650821814696374.0
2.0,-11.0,-47.0,-19.0,-7.0,-8.0,3.0,11.0,1650821814711920.0
6.0,21.0,31.0,17.0,-3.0,-11.0,-1.0,-1.0,1650821814711920.0
-17.0,-26.0,-28.0,-18.0,-5.0,-3.0,-9.0,-24.0,1650821814712873.0
9.0,-4.0,3.0,9.0,-5.0,-10.0,-8.0,2.0,1650821814712873.0
8.0,-7.0,-10.0,-4.0,-6.0,3.0,3.0,-2.0,1650821814734440.0
6.0,20.0,-6.0,-3.0,9.0,3.0,0.0,-2.0,1650821814734440.0
11.0,7.0,-11.0,-12.0,0.0,1.0,1.0,4.0,1650821814735805.0
13.0,1.0,26.0,23.0,4.0,5.0,10.0,50.0,1650821814735805.0
-13.0,-15.0,-31.0,-8.0,-1.0,-3.0,-10.0,-46.0,1650821814747840.0
-1.0,0.0,-6.0,-16.0,-5.0,0.0,2.0,10.0,1650821814747840.0
-4.0,-3.0,8.0,-16.0,-10.0,1.0,3.0,2.0,1650821814756760.0
10.0,4.0,20.0,27.0,29.0,22.0,6.0,2.0,1650821814756760.0
1.0,-8.0,-36.0,-9.0,-3.0,-3.0,0.0,22.0,1650821814771955.0
-8.0,14.0,26.0,12.0,-1.0,-4.0,-6.0,-11.0,1650821814771955.0
3.0,-7.0,-3.0,1.0,-16.0,-19.0,-6.0,0.0,1650821814772885.0
-2.0,-5.0,-17.0,-20.0,1.0,-6.0,2.0,-10.0,1650821814772885.0
-5.0,-12.0,-1.0,-9.0,-1.0,8.0,-3.0,10.0,1650821814794142.0
-6.0,-3.0,7.0,10.0,2.0,5.0,-6.0,-19.0,1650821814794142.0
9.0,13.0,1.0,5.0,2.0,-3.0,7.0,3.0,1650821814795167.0
-17.0,-22.0,-22.0,-11.0,-8.0,-13.0,-6.0,-11.0,1650821814795167.0
-2.0,1.0,2.0,13.0,-1.0,-1.0,-7.0,9.0,1650821814808223.0
-3.0,-13.0,-35.0,-25.0,7.0,16.0,6.0,-15.0,1650821814808223.0
10.0,12.0,22.0,11.0,9.0,8.0,6.0,4.0,1650821814816221.0
0.0,17.0,11.0,9.0,-7.0,-3.0,3.0,-26.0,1650821814816221.0
-6.0,-12.0,-12.0,1.0,-2.0,-12.0,-7.0,-10.0,1650821814832183.0
-4.0,20.0,23.0,8.0,-20.0,-24.0,-13.0,3.0,1650821814832183.0
-5.0,-1.0,-27.0,-21.0,5.0,13.0,-1.0,0.0,1650821814833143.0
-9.0,0.0,-1.0,1.0,8.0,13.0,-1.0,-9.0,1650821814833143.0
4.0,-9.0,16.0,12.0,4.0,4.0,4.0,11.0,1650821814861735.0
-6.0,-14.0,-31.0,-12.0,-15.0,-9.0,-4.0,-1.0,1650821814861735.0
-3.0,-5.0,10.0,5.0,0.0,-8.0,0.0,-2.0,1650821814862738.0
4.0,16.0,-5.0,-1.0,0.0,1.0,-2.0,7.0,1650821814862738.0
2.0,-4.0,-3.0,5.0,10.0,14.0,4.0,4.0,1650821814867719.0
5.0,14.0,11.0,-3.0,1.0,4.0,3.0,0.0,1650821814867719.0
6.0,-2.0,3.0,-1.0,-11.0,-12.0,1.0,15.0,1650821814877172.0
-13.0,-6.0,-5.0,-8.0,-8.0,-1.0,2.0,-4.0,1650821814877172.0
10.0,7.0,2.0,-6.0,-1.0,-10.0,-6.0,-6.0,1650821814891369.0
-6.0,-8.0,-2.0,-5.0,-6.0,-11.0,-7.0,-10.0,1650821814891369.0
9.0,-1.0,6.0,5.0,1.0,5.0,9.0,29.0,1650821814898847.0
-10.0,-9.0,5.0,19.0,5.0,13.0,-10.0,-27.0,1650821814898847.0
-3.0,7.0,9.0,0.0,11.0,14.0,12.0,11.0,1650821814922044.0
-8.0,-5.0,-13.0,-10.0,-2.0,-19.0,-5.0,3.0,1650821814922044.0
7.0,-27.0,-24.0,-5.0,-1.0,11.0,-6.0,10.0,1650821814922987.0
2.0,7.0,20.0,-1.0,-12.0,-4.0,-8.0,-16.0,1650821814922987.0
-2.0,6.0,0.0,1.0,1.0,1.0,6.0,8.0,1650821814927973.0
8.0,-9.0,-10.0,-3.0,13.0,10.0,3.0,14.0,1650821814927973.0
-10.0,9.0,8.0,1.0,2.0,-6.0,-3.0,-16.0,1650821814937172.0
1.0,-9.0,-5.0,-1.0,-13.0,-17.0,2.0,5.0,1650821814937172.0
-3.0,-3.0,-9.0,-7.0,-2.0,-4.0,-7.0,-3.0,1650821814951267.0
-2.0,-10.0,13.0,12.0,-3.0,2.0,3.0,10.0,1650821814951267.0
-7.0,6.0,-3.0,-4.0,-5.0,-8.0,-4.0,-16.0,1650821814953196.0
2.0,-1.0,-10.0,-6.0,1.0,9.0,1.0,1.0,1650821814953196.0
-4.0,7.0,3.0,3.0,0.0,3.0,-2.0,-1.0,1650821814974353.0
10.0,-4.0,-5.0,-2.0,6.0,12.0,8.0,6.0,1650821814974353.0
-2.0,1.0,2.0,-1.0,-4.0,-7.0,-3.0,-1.0,1650821814975286.0
2.0,-2.0,-3.0,-1.0,-8.0,-16.0,-1.0,8.0,1650821814975286.0
-6.0,-5.0,-5.0,-7.0,-5.0,-9.0,-10.0,-24.0,1650821814987805.0
3.0,0.0,0.0,4.0,6.0,3.0,-4.0,4.0,1650821814987805.0
-3.0,-7.0,4.0,5.0,9.0,27.0,22.0,-2.0,1650821814997044.0
-1.0,8.0,-1.0,-6.0,6.0,15.0,19.0,2.0,1650821814997044.0
1.0,1.0,5.0,-4.0,-4.0,-2.0,-2.0,11.0,1650821815012030.0
1.0,1.0,-1.0,4.0,-3.0,-10.0,-5.0,-6.0,1650821815012030.0
-5.0,4.0,0.0,-3.0,-6.0,-16.0,-15.0,-13.0,1650821815013014.0
-2.0,-15.0,-12.0,-9.0,-4.0,-13.0,-3.0,4.0,1650821815013014.0
-1.0,7.0,12.0,-4.0,-18.0,-6.0,-14.0,3.0,1650821815034191.0
-3.0,-9.0,-20.0,-1.0,3.0,14.0,13.0,-4.0,1650821815034191.0
0.0,1.0,6.0,8.0,28.0,21.0,2.0,6.0,1650821815035205.0
1.0,4.0,4.0,-2.0,11.0,6.0,2.0,0.0,1650821815035205.0
1.0,-3.0,-2.0,-6.0,-8.0,-8.0,0.0,2.0,1650821815048155.0
2.0,4.0,10.0,1.0,-9.0,-16.0,-5.0,-1.0,1650821815048155.0
-4.0,-2.0,-2.0,-3.0,-14.0,-7.0,-2.0,-5.0,1650821815057109.0
1.0,1.0,-4.0,0.0,-3.0,-2.0,-5.0,-1.0,1650821815057109.0
0.0,-4.0,-5.0,-3.0,7.0,1.0,2.0,2.0,1650821815071254.0
-1.0,5.0,4.0,0.0,0.0,-6.0,-1.0,3.0,1650821815071254.0
-2.0,-9.0,-4.0,1.0,1.0,8.0,-3.0,-5.0,1650821815078115.0
1.0,4.0,5.0,1.0,4.0,7.0,-3.0,-3.0,1650821815078115.0
3.0,-2.0,-1.0,-3.0,5.0,5.0,9.0,7.0,1650821815093711.0
0.0,1.0,-6.0,-7.0,-4.0,0.0,-1.0,-3.0,1650821815093711.0
-2.0,4.0,3.0,3.0,-10.0,-22.0,-8.0,-5.0,1650821815095708.0
0.0,-3.0,0.0,-5.0,-15.0,-11.0,-5.0,-1.0,1650821815095708.0
0.0,0.0,-3.0,-2.0,8.0,12.0,6.0,3.0,1650821815117072.0
3.0,7.0,15.0,16.0,15.0,7.0,1.0,0.0,1650821815117072.0
3.0,0.0,-11.0,-3.0,7.0,8.0,0.0,-2.0,1650821815118072.0
0.0,4.0,3.0,0.0,-4.0,4.0,1.0,-1.0,1650821815118072.0
0.0,1.0,0.0,-1.0,-6.0,-9.0,1.0,2.0,1650821815138860.0
-3.0,-6.0,-14.0,-6.0,-9.0,-13.0,-6.0,-3.0,1650821815138860.0
0.0,6.0,14.0,0.0,-12.0,-5.0,-1.0,0.0,1650821815140857.0
-3.0,-13.0,-13.0,-4.0,12.0,19.0,2.0,-1.0,1650821815140857.0
2.0,5.0,3.0,1.0,9.0,5.0,1.0,2.0,1650821815153921.0
-1.0,0.0,8.0,9.0,-1.0,1.0,0.0,0.0,1650821815153921.0
0.0,-1.0,-1.0,-2.0,-1.0,-11.0,-4.0,-3.0,1650821815155918.0
0.0,6.0,1.0,-2.0,-3.0,-9.0,-4.0,1.0,1650821815155918.0
-1.0,-10.0,0.0,0.0,-4.0,1.0,-1.0,-2.0,1650821815176103.0
-2.0,-3.0,-7.0,-5.0,-4.0,7.0,3.0,0.0,1650821815176103.0
0.0,-5.0,2.0,3.0,-1.0,-3.0,0.0,1.0,1650821815178039.0
1.0,5.0,-3.0,2.0,1.0,-7.0,-1.0,0.0,1650821815178039.0
-2.0,3.0,-1.0,-1.0,-5.0,-5.0,-2.0,-2.0,1650821815191503.0
1.0,-1.0,0.0,0.0,5.0,7.0,0.0,0.0,1650821815191503.0
-2.0,-3.0,3.0,-2.0,6.0,4.0,1.0,-2.0,1650821815193461.0
0.0,0.0,-1.0,-2.0,-8.0,-17.0,-5.0,0.0,1650821815193461.0
-2.0,-4.0,-5.0,0.0,-6.0,1.0,1.0,0.0,1650821815214505.0
0.0,2.0,2.0,5.0,13.0,30.0,4.0,1.0,1650821815214505.0
0.0,-7.0,0.0,3.0,8.0,6.0,4.0,2.0,1650821815215505.0
0.0,2.0,8.0,3.0,-9.0,-19.0,-5.0,0.0,1650821815215505.0
-2.0,1.0,-5.0,-1.0,-5.0,-10.0,-1.0,-1.0,1650821815236770.0
-1.0,3.0,2.0,-4.0,1.0,5.0,-1.0,-1.0,1650821815236770.0
1.0,-1.0,-3.0,1.0,-5.0,-2.0,-1.0,1.0,1650821815237775.0
-2.0,1.0,-1.0,-3.0,1.0,-3.0,-1.0,-1.0,1650821815237775.0
-1.0,-4.0,-3.0,-2.0,-4.0,-5.0,-4.0,0.0,1650821815250800.0
2.0,1.0,2.0,-3.0,1.0,6.0,1.0,-1.0,1650821815250800.0
2.0,2.0,-4.0,-5.0,1.0,-3.0,1.0,-1.0,1650821815257745.0
1.0,1.0,0.0,1.0,-4.0,-5.0,1.0,-1.0,1650821815257745.0
-1.0,2.0,-7.0,-3.0,5.0,13.0,2.0,0.0,1650821815273681.0
-1.0,-5.0,1.0,2.0,-3.0,2.0,0.0,-2.0,1650821815273681.0
-4.0,-2.0,2.0,3.0,1.0,-5.0,-2.0,-4.0,1650821815275669.0
0.0,-3.0,-1.0,-2.0,-1.0,-3.0,-3.0,1.0,1650821815275669.0
0.0,3.0,0.0,2.0,-3.0,-9.0,0.0,0.0,1650821815304364.0
0.0,0.0,-1.0,-1.0,-3.0,-7.0,0.0,2.0,1650821815304364.0
-1.0,-4.0,-7.0,-7.0,10.0,24.0,3.0,-1.0,1650821815305298.0
0.0,1.0,-1.0,0.0,0.0,3.0,0.0,-2.0,1650821815305298.0
-1.0,5.0,2.0,-1.0,-10.0,-9.0,-2.0,-2.0,1650821815311289.0
0.0,-2.0,1.0,-1.0,-6.0,-13.0,-3.0,0.0,1650821815311289.0
-2.0,0.0,4.0,1.0,-1.0,-16.0,-6.0,0.0,1650821815317263.0
0.0,1.0,1.0,4.0,14.0,23.0,3.0,2.0,1650821815317263.0
0.0,-2.0,-5.0,1.0,11.0,19.0,3.0,0.0,1650821815334447.0
1.0,-5.0,-3.0,1.0,-5.0,1.0,4.0,-1.0,1650821815334447.0
1.0,2.0,2.0,-3.0,-9.0,-10.0,-1.0,1.0,1650821815335370.0
-3.0,-3.0,-8.0,-8.0,-6.0,-11.0,-3.0,-3.0,1650821815335370.0
-2.0,6.0,5.0,1.0,-11.0,-19.0,-6.0,-3.0,1650821815363717.0
-2.0,-8.0,-6.0,-5.0,5.0,15.0,2.0,-1.0,1650821815363717.0
-1.0,2.0,1.0,3.0,4.0,9.0,1.0,1.0,1650821815365645.0
1.0,1.0,2.0,3.0,4.0,-4.0,-1.0,-1.0,1650821815365645.0
0.0,-2.0,1.0,2.0,-8.0,-13.0,-2.0,0.0,1650821815370659.0
-3.0,2.0,-4.0,-6.0,3.0,-7.0,-3.0,-3.0,1650821815370659.0
