EMG_s0,EMG_s1,EMG_s2,EMG_s3,EMG_s4,EMG_s5,EMG_s6,EMG_s7,timestamp
2.0,0.0,0.0,-2.0,-3.0,-3.0,-2.0,-1.0,1650821954700209.0
0.0,-2.0,-2.0,-2.0,-3.0,-6.0,-1.0,0.0,1650821954700209.0
0.0,0.0,-2.0,0.0,-3.0,-3.0,-2.0,0.0,1650821954700209.0
0.0,-1.0,0.0,-2.0,-5.0,-3.0,-1.0,-1.0,1650821954700209.0
-2.0,-1.0,-1.0,-3.0,-6.0,-3.0,-1.0,0.0,1650821954701127.0
1.0,0.0,0.0,0.0,1.0,1.0,0.0,-1.0,1650821954701127.0
0.0,0.0,0.0,0.0,1.0,3.0,0.0,-2.0,1650821954702123.0
0.0,-1.0,0.0,1.0,2.0,1.0,0.0,-2.0,1650821954702123.0
-1.0,1.0,4.0,5.0,5.0,2.0,-1.0,-1.0,1650821954707105.0
-1.0,-3.0,-7.0,-6.0,-1.0,0.0,-2.0,-1.0,1650821954707105.0
1.0,0.0,2.0,-1.0,-6.0,-5.0,-1.0,-2.0,1650821954713089.0
-1.0,0.0,-3.0,-3.0,0.0,0.0,-1.0,0.0,1650821954713089.0
-1.0,0.0,-4.0,-1.0,-1.0,2.0,0.0,0.0,1650821954728077.0
-2.0,-1.0,3.0,3.0,-1.0,1.0,2.0,-2.0,1650821954728077.0
0.0,-1.0,-1.0,0.0,3.0,3.0,4.0,0.0,1650821954738089.0
-1.0,0.0,0.0,2.0,0.0,-1.0,-2.0,-1.0,1650821954738089.0
1.0,1.0,3.0,-1.0,-4.0,-6.0,-4.0,-3.0,1650821954743037.0
1.0,-2.0,-3.0,-4.0,-6.0,-2.0,-3.0,0.0,1650821954743037.0
0.0,1.0,-3.0,1.0,1.0,0.0,-1.0,0.0,1650821954766728.0
-1.0,-1.0,-1.0,0.0,-2.0,-1.0,1.0,0.0,1650821954766728.0
-2.0,-1.0,-2.0,-3.0,-1.0,-3.0,1.0,-1.0,1650821954767742.0
-1.0,1.0,1.0,-1.0,-3.0,-2.0,-3.0,-1.0,1650821954767742.0
-3.0,-1.0,2.0,1.0,4.0,2.0,-1.0,1.0,1650821954804869.0
1.0,-1.0,0.0,-1.0,0.0,0.0,0.0,-1.0,1650821954804869.0
-1.0,-2.0,0.0,-2.0,-2.0,1.0,0.0,-1.0,1650821954804869.0
-1.0,0.0,1.0,2.0,0.0,-2.0,0.0,1.0,1650821954804869.0
1.0,-2.0,-2.0,-2.0,-2.0,-2.0,0.0,-1.0,1650821954805814.0
0.0,-2.0,1.0,-1.0,1.0,1.0,1.0,-1.0,1650821954805814.0
-1.0,1.0,2.0,3.0,5.0,2.0,-1.0,0.0,1650821954806812.0
-2.0,0.0,0.0,0.0,0.0,5.0,-1.0,-1.0,1650821954806812.0
-1.0,-3.0,-2.0,-4.0,-8.0,-4.0,0.0,-2.0,1650821954817783.0
-2.0,-1.0,-2.0,2.0,2.0,-1.0,-1.0,-1.0,1650821954817783.0
-1.0,-1.0,-1.0,0.0,0.0,-1.0,-1.0,-2.0,1650821954825761.0
0.0,-1.0,-1.0,-1.0,3.0,-2.0,-1.0,-1.0,1650821954825761.0
0.0,-1.0,2.0,0.0,-2.0,-1.0,-1.0,-1.0,1650821954832809.0
-1.0,-2.0,-6.0,-2.0,-3.0,0.0,-1.0,0.0,1650821954832809.0
0.0,0.0,2.0,0.0,-2.0,-2.0,-2.0,-1.0,1650821954848741.0
0.0,-2.0,-3.0,-5.0,-8.0,-3.0,-2.0,-3.0,1650821954848741.0
0.0,0.0,-1.0,1.0,-1.0,-4.0,-2.0,-2.0,1650821954854750.0
0.0,1.0,3.0,2.0,2.0,4.0,2.0,0.0,1650821954854750.0
1.0,-2.0,-3.0,0.0,8.0,7.0,3.0,0.0,1650821954869748.0
-1.0,1.0,4.0,2.0,-2.0,-1.0,0.0,-1.0,1650821954869748.0
0.0,0.0,0.0,-1.0,-2.0,0.0,0.0,-1.0,1650821954878833.0
0.0,-1.0,-1.0,-2.0,-4.0,-2.0,-2.0,0.0,1650821954878833.0
1.0,1.0,2.0,0.0,-3.0,-3.0,-1.0,0.0,1650821954893796.0
-2.0,-1.0,-3.0,0.0,-1.0,0.0,1.0,-1.0,1650821954893796.0
0.0,1.0,-2.0,-1.0,-1.0,-1.0,-1.0,2.0,1650821954895749.0
0.0,0.0,-1.0,-1.0,-1.0,0.0,-1.0,0.0,1650821954895749.0
-2.0,-1.0,0.0,1.0,0.0,4.0,1.0,1.0,1650821954916936.0
-2.0,-2.0,-1.0,-1.0,1.0,-3.0,-3.0,0.0,1650821954916936.0
-1.0,-2.0,0.0,1.0,0.0,1.0,0.0,-3.0,1650821954917936.0
0.0,-1.0,1.0,1.0,2.0,1.0,1.0,1.0,1650821954917936.0
-1.0,0.0,0.0,-1.0,-1.0,-1.0,-1.0,0.0,1650821954929969.0
0.0,0.0,-3.0,-3.0,-4.0,-2.0,0.0,-1.0,1650821954929969.0
0.0,0.0,0.0,2.0,0.0,-2.0,1.0,-1.0,1650821954938880.0
-1.0,-1.0,-1.0,-1.0,-1.0,-2.0,-2.0,0.0,1650821954938880.0
-2.0,1.0,-1.0,-1.0,-1.0,-4.0,-2.0,-1.0,1650821954954379.0
-2.0,-2.0,-1.0,-1.0,1.0,1.0,2.0,1.0,1650821954954379.0
-2.0,1.0,-1.0,-1.0,1.0,0.0,-3.0,0.0,1650821954955853.0
0.0,1.0,-1.0,-2.0,-3.0,-2.0,0.0,-2.0,1650821954955853.0
1.0,-1.0,-2.0,-1.0,-3.0,-1.0,0.0,-2.0,1650821954976789.0
0.0,0.0,-1.0,3.0,0.0,0.0,-1.0,0.0,1650821954976789.0
0.0,-1.0,2.0,1.0,2.0,2.0,1.0,0.0,1650821954977806.0
-1.0,-2.0,-2.0,-2.0,-3.0,-1.0,-1.0,0.0,1650821954977806.0
1.0,-2.0,-2.0,-3.0,-6.0,-6.0,-2.0,0.0,1650821954999858.0
0.0,-1.0,0.0,1.0,2.0,4.0,-1.0,0.0,1650821954999858.0
-1.0,0.0,-1.0,0.0,3.0,3.0,0.0,-1.0,1650821955000856.0
0.0,-1.0,0.0,0.0,-2.0,-7.0,-2.0,-2.0,1650821955000856.0
0.0,-1.0,1.0,2.0,-1.0,1.0,-1.0,-1.0,1650821955013888.0
1.0,1.0,-5.0,-4.0,-1.0,1.0,0.0,0.0,1650821955013888.0
-2.0,-2.0,-2.0,-2.0,0.0,0.0,2.0,1.0,1650821955015816.0
-1.0,0.0,-1.0,-2.0,-3.0,-1.0,-2.0,1.0,1650821955015816.0
-2.0,-2.0,-2.0,0.0,-4.0,-5.0,-2.0,-1.0,1650821955037006.0
1.0,-1.0,1.0,0.0,1.0,-1.0,-1.0,0.0,1650821955037006.0
0.0,1.0,-1.0,0.0,1.0,3.0,1.0,0.0,1650821955037978.0
-1.0,1.0,1.0,0.0,2.0,2.0,2.0,1.0,1650821955037978.0
-1.0,-1.0,-1.0,0.0,0.0,-1.0,0.0,-2.0,1650821955059128.0
1.0,-1.0,-1.0,-1.0,0.0,2.0,0.0,-1.0,1650821955059128.0
0.0,0.0,-2.0,-4.0,-3.0,-4.0,-3.0,0.0,1650821955060059.0
-1.0,-1.0,1.0,0.0,-3.0,-1.0,-3.0,-1.0,1650821955060059.0
-1.0,-1.0,-1.0,-1.0,-4.0,-1.0,0.0,-1.0,1650821955074240.0
0.0,-1.0,0.0,0.0,-1.0,-2.0,1.0,0.0,1650821955074240.0
0.0,0.0,0.0,0.0,3.0,-2.0,-2.0,-1.0,1650821955075171.0
-1.0,-1.0,2.0,1.0,2.0,1.0,2.0,-2.0,1650821955075171.0
-1.0,1.0,0.0,-1.0,4.0,6.0,2.0,1.0,1650821955096939.0
0.0,-1.0,1.0,1.0,-3.0,-2.0,-2.0,-1.0,1650821955096939.0
0.0,-1.0,-1.0,1.0,-2.0,-1.0,0.0,-2.0,1650821955097940.0
1.0,0.0,-2.0,-1.0,-4.0,-4.0,-2.0,-1.0,1650821955097940.0
-2.0,0.0,-3.0,0.0,-2.0,-2.0,-2.0,-1.0,1650821955119123.0
-1.0,-1.0,2.0,0.0,0.0,3.0,0.0,-1.0,1650821955119123.0
1.0,-1.0,1.0,1.0,0.0,4.0,0.0,0.0,1650821955120084.0
0.0,0.0,1.0,1.0,3.0,1.0,1.0,0.0,1650821955120084.0
0.0,-1.0,-4.0,-3.0,-3.0,-2.0,-2.0,0.0,1650821955133085.0
-2.0,0.0,0.0,-1.0,-4.0,-7.0,-4.0,-2.0,1650821955133085.0
-2.0,0.0,0.0,0.0,-3.0,-5.0,0.0,-1.0,1650821955140067.0
-1.0,-1.0,0.0,2.0,4.0,5.0,-1.0,-1.0,1650821955140067.0
-1.0,-2.0,-1.0,-2.0,1.0,0.0,0.0,0.0,1650821955156904.0
-2.0,-1.0,-1.0,-1.0,-1.0,-1.0,1.0,-1.0,1650821955156904.0
0.0,0.0,-2.0,-2.0,-2.0,0.0,0.0,1.0,1650821955157862.0
0.0,-1.0,1.0,-1.0,-2.0,-2.0,-1.0,0.0,1650821955157862.0
0.0,1.0,-1.0,-2.0,0.0,-2.0,-1.0,1.0,1650821955179114.0
1.0,0.0,-1.0,-1.0,1.0,2.0,0.0,0.0,1650821955179114.0
-1.0,-1.0,-1.0,0.0,0.0,3.0,2.0,0.0,1650821955185035.0
-1.0,-1.0,0.0,-1.0,2.0,1.0,-1.0,-1.0,1650821955185035.0
-1.0,-1.0,-1.0,-3.0,-1.0,0.0,-1.0,0.0,1650821955193771.0
-1.0,0.0,0.0,1.0,-1.0,-2.0,0.0,1.0,1650821955193771.0
0.0,0.0,0.0,-2.0,-4.0,-3.0,-1.0,-1.0,1650821955199823.0
0.0,0.0,0.0,-2.0,-3.0,-3.0,-2.0,-1.0,1650821955199823.0
0.0,0.0,4.0,2.0,5.0,2.0,0.0,0.0,1650821955216920.0
0.0,-1.0,-1.0,-2.0,-3.0,-1.0,0.0,-1.0,1650821955216920.0
-1.0,-1.0,-1.0,1.0,3.0,2.0,-1.0,0.0,1650821955217883.0
0.0,-1.0,-2.0,1.0,1.0,-1.0,1.0,-2.0,1650821955217883.0
-1.0,-1.0,-1.0,-1.0,-3.0,-4.0,-2.0,-1.0,1650821955246880.0
1.0,-1.0,0.0,0.0,0.0,-3.0,-2.0,-1.0,1650821955246880.0
0.0,0.0,-1.0,0.0,0.0,1.0,-2.0,0.0,1650821955247888.0
1.0,-1.0,1.0,2.0,4.0,5.0,2.0,1.0,1650821955247888.0
1.0,0.0,0.0,0.0,-2.0,1.0,0.0,1.0,1650821955252894.0
-1.0,0.0,2.0,-2.0,0.0,0.0,1.0,0.0,1650821955252894.0
-1.0,-1.0,-2.0,-4.0,-7.0,-7.0,-3.0,-1.0,1650821955259914.0
-1.0,-1.0,-2.0,0.0,0.0,-1.0,-1.0,-1.0,1650821955259914.0
-1.0,-1.0,0.0,1.0,1.0,2.0,-1.0,-1.0,1650821955276936.0
-3.0,-2.0,-1.0,0.0,-3.0,-2.0,-1.0,-1.0,1650821955276936.0
1.0,1.0,1.0,0.0,0.0,-1.0,0.0,-1.0,1650821955277936.0
0.0,0.0,-3.0,-1.0,-2.0,1.0,0.0,0.0,1650821955277936.0
0.0,-1.0,-2.0,-2.0,0.0,1.0,1.0,-1.0,1650821955307131.0
-2.0,1.0,-1.0,-1.0,0.0,0.0,-2.0,0.0,1650821955307131.0
-1.0,0.0,-2.0,0.0,-2.0,-3.0,-1.0,-2.0,1650821955309086.0
-1.0,-1.0,0.0,-1.0,-3.0,-3.0,0.0,-1.0,1650821955309086.0
0.0,0.0,-1.0,1.0,-3.0,-3.0,-1.0,0.0,1650821955313048.0
1.0,0.0,1.0,0.0,0.0,1.0,1.0,1.0,1650821955313048.0
0.0,1.0,1.0,0.0,3.0,2.0,1.0,2.0,1650821955320056.0
-1.0,0.0,-4.0,-2.0,-2.0,-2.0,0.0,-1.0,1650821955320056.0
1.0,0.0,0.0,-1.0,-2.0,-1.0,0.0,0.0,1650821955335937.0
-1.0,1.0,1.0,2.0,1.0,-1.0,0.0,0.0,1650821955335937.0
-1.0,-1.0,-1.0,-1.0,2.0,0.0,-1.0,1.0,1650821955336893.0
0.0,0.0,-1.0,-2.0,0.0,0.0,-2.0,-1.0,1650821955336893.0
-1.0,0.0,-5.0,-3.0,-2.0,-3.0,0.0,-2.0,1650821955357928.0
0.0,1.0,2.0,2.0,-3.0,-2.0,-1.0,-1.0,1650821955357928.0
0.0,-1.0,0.0,0.0,-1.0,3.0,-1.0,0.0,1650821955358861.0
-1.0,-1.0,0.0,1.0,1.0,-2.0,-1.0,0.0,1650821955358861.0
-2.0,-1.0,1.0,1.0,3.0,3.0,0.0,0.0,1650821955372884.0
1.0,0.0,-4.0,-3.0,1.0,1.0,0.0,1.0,1650821955372884.0
-1.0,1.0,-1.0,-2.0,-2.0,-2.0,0.0,-2.0,1650821955379900.0
-1.0,-1.0,-1.0,-3.0,-5.0,-5.0,-1.0,-1.0,1650821955379900.0
-3.0,0.0,0.0,-1.0,-4.0,-4.0,1.0,-1.0,1650821955395737.0
0.0,-1.0,1.0,1.0,2.0,5.0,-1.0,0.0,1650821955395737.0
0.0,-2.0,0.0,1.0,5.0,4.0,1.0,1.0,1650821955396668.0
0.0,1.0,-2.0,1.0,0.0,3.0,0.0,0.0,1650821955396668.0
-1.0,-1.0,0.0,-2.0,-3.0,-1.0,-1.0,-1.0,1650821955418675.0
-1.0,-1.0,-2.0,-3.0,-5.0,-4.0,-3.0,0.0,1650821955418675.0
-1.0,-2.0,-2.0,-2.0,-6.0,-3.0,-2.0,0.0,1650821955418675.0
-2.0,-1.0,-2.0,0.0,0.0,-1.0,-1.0,-2.0,1650821955418675.0
0.0,-2.0,-1.0,0.0,1.0,2.0,-1.0,1.0,1650821955432638.0
0.0,0.0,-2.0,-2.0,0.0,0.0,-1.0,-1.0,1650821955432638.0
0.0,2.0,-2.0,-1.0,0.0,-1.0,-1.0,0.0,1650821955440553.0
0.0,0.0,0.0,0.0,-3.0,-3.0,-1.0,0.0,1650821955440553.0
0.0,-1.0,-1.0,-1.0,-2.0,-4.0,-1.0,-1.0,1650821955456179.0
0.0,-1.0,3.0,3.0,3.0,3.0,0.0,-1.0,1650821955456179.0
-1.0,-2.0,-2.0,0.0,3.0,0.0,0.0,-2.0,1650821955456749.0
0.0,-3.0,-2.0,1.0,2.0,2.0,-1.0,1.0,1650821955456749.0
-1.0,0.0,4.0,4.0,0.0,1.0,0.0,0.0,1650821955478657.0
-1.0,0.0,-4.0,-2.0,-3.0,-3.0,1.0,-3.0,1650821955478657.0
-1.0,-1.0,-1.0,-1.0,-2.0,0.0,-1.0,-1.0,1650821955478800.0
0.0,-2.0,-3.0,-5.0,-3.0,-4.0,-1.0,-1.0,1650821955478800.0
0.0,-2.0,-3.0,-2.0,-4.0,-3.0,-1.0,0.0,1650821955492832.0
-2.0,-1.0,-1.0,1.0,-1.0,-2.0,-1.0,-1.0,1650821955492832.0
0.0,-1.0,2.0,3.0,3.0,5.0,2.0,-1.0,1650821955499814.0
-2.0,1.0,-1.0,0.0,0.0,-1.0,-1.0,1.0,1650821955499814.0
-1.0,1.0,-2.0,1.0,-1.0,-1.0,0.0,-1.0,1650821955523717.0
1.0,0.0,-1.0,-2.0,-5.0,-4.0,-4.0,0.0,1650821955523717.0
0.0,1.0,0.0,0.0,-5.0,-4.0,-1.0,-2.0,1650821955523717.0
0.0,0.0,1.0,2.0,5.0,6.0,1.0,-1.0,1650821955523717.0
-2.0,-2.0,4.0,1.0,0.0,0.0,0.0,-1.0,1650821955538679.0
0.0,-2.0,-1.0,-2.0,-1.0,-2.0,1.0,-1.0,1650821955538679.0
0.0,0.0,-2.0,-1.0,-2.0,-3.0,-2.0,-1.0,1650821955538822.0
-1.0,-1.0,3.0,-1.0,-3.0,3.0,0.0,1.0,1650821955538822.0
-1.0,0.0,1.0,1.0,2.0,0.0,0.0,0.0,1650821955553029.0
-1.0,0.0,-3.0,-2.0,-3.0,-4.0,0.0,1.0,1650821955553029.0
1.0,-1.0,1.0,0.0,0.0,1.0,1.0,1.0,1650821955559927.0
-2.0,0.0,0.0,0.0,3.0,4.0,1.0,-1.0,1650821955559927.0
1.0,2.0,-2.0,0.0,-1.0,-3.0,-1.0,1.0,1650821955583325.0
0.0,1.0,1.0,0.0,-2.0,-2.0,-3.0,-1.0,1650821955583325.0
0.0,1.0,0.0,-2.0,-2.0,-3.0,0.0,-1.0,1650821955584325.0
1.0,-2.0,-1.0,0.0,-1.0,-1.0,0.0,-2.0,1650821955584325.0
-1.0,0.0,-2.0,-3.0,1.0,4.0,1.0,-1.0,1650821955598352.0
-1.0,0.0,-1.0,-1.0,1.0,0.0,0.0,-1.0,1650821955598352.0
-2.0,-1.0,2.0,1.0,0.0,-4.0,-1.0,2.0,1650821955599285.0
0.0,-1.0,1.0,0.0,-1.0,-1.0,-2.0,0.0,1650821955599285.0
1.0,-2.0,-4.0,-3.0,-3.0,-2.0,-1.0,-1.0,1650821955612316.0
0.0,-1.0,2.0,0.0,-1.0,1.0,1.0,0.0,1650821955612316.0
0.0,-1.0,-1.0,-1.0,-3.0,0.0,-2.0,0.0,1650821955620294.0
-1.0,2.0,1.0,0.0,0.0,0.0,0.0,2.0,1650821955620294.0
-2.0,1.0,1.0,2.0,4.0,2.0,2.0,-1.0,1650821955635343.0
0.0,-1.0,-2.0,-1.0,0.0,-1.0,0.0,-2.0,1650821955635343.0
-1.0,0.0,-4.0,-3.0,-2.0,-2.0,0.0,-1.0,1650821955636343.0
1.0,-1.0,-2.0,-2.0,-5.0,-4.0,-2.0,0.0,1650821955636343.0
3.0,-1.0,-1.0,0.0,0.0,0.0,-1.0,0.0,1650821955658137.0
-1.0,1.0,-1.0,1.0,5.0,5.0,1.0,1.0,1650821955658137.0
-1.0,0.0,0.0,0.0,0.0,1.0,0.0,-1.0,1650821955659067.0
-1.0,1.0,0.0,-2.0,-4.0,-7.0,-2.0,0.0,1650821955659067.0
-2.0,1.0,1.0,-3.0,-2.0,-3.0,-2.0,0.0,1650821955673056.0
-1.0,-2.0,1.0,2.0,3.0,4.0,2.0,0.0,1650821955673056.0
0.0,-1.0,-2.0,-1.0,-2.0,0.0,-3.0,0.0,1650821955680078.0
-2.0,-2.0,-1.0,-1.0,0.0,-2.0,-1.0,-1.0,1650821955680078.0
1.0,-1.0,1.0,0.0,2.0,-1.0,-1.0,0.0,1650821955696214.0
0.0,-1.0,-2.0,2.0,1.0,-1.0,-1.0,0.0,1650821955696214.0
0.0,0.0,-2.0,-2.0,0.0,1.0,1.0,1.0,1650821955696214.0
1.0,-1.0,1.0,1.0,-3.0,-1.0,-1.0,-2.0,1650821955696214.0
0.0,1.0,0.0,-1.0,-1.0,-2.0,-1.0,0.0,1650821955718261.0
-2.0,0.0,-2.0,-3.0,-1.0,0.0,-1.0,-3.0,1650821955718261.0
-2.0,-1.0,1.0,1.0,-1.0,-2.0,-1.0,-2.0,1650821955719259.0
0.0,0.0,0.0,1.0,-1.0,-1.0,0.0,0.0,1650821955719259.0
-1.0,-1.0,-2.0,0.0,-3.0,0.0,0.0,0.0,1650821955741189.0
-1.0,-1.0,-1.0,-1.0,-1.0,0.0,0.0,0.0,1650821955741189.0
-2.0,-1.0,1.0,0.0,0.0,0.0,-2.0,0.0,1650821955741189.0
0.0,-2.0,-2.0,-3.0,-1.0,-2.0,-1.0,-2.0,1650821955741189.0
-2.0,-2.0,-2.0,-1.0,0.0,1.0,0.0,-2.0,1650821955756150.0
0.0,1.0,-1.0,0.0,-1.0,2.0,-1.0,1.0,1650821955756150.0
0.0,0.0,0.0,-1.0,-1.0,-1.0,0.0,0.0,1650821955756150.0
0.0,0.0,-1.0,1.0,-2.0,-3.0,0.0,0.0,1650821955756150.0
0.0,0.0,-1.0,-1.0,-1.0,0.0,0.0,0.0,1650821955778436.0
1.0,-1.0,1.0,0.0,2.0,3.0,0.0,0.0,1650821955778436.0
0.0,0.0,0.0,-1.0,2.0,1.0,-2.0,-3.0,1650821955779391.0
-1.0,0.0,-2.0,-3.0,-3.0,-3.0,-1.0,-1.0,1650821955779391.0
-1.0,-1.0,-1.0,-2.0,-2.0,-2.0,-1.0,-3.0,1650821955800936.0
-1.0,0.0,0.0,2.0,-1.0,-2.0,0.0,-1.0,1650821955800936.0
-1.0,-1.0,0.0,0.0,1.0,-1.0,0.0,-1.0,1650821955801896.0
-2.0,1.0,-3.0,1.0,-1.0,1.0,-1.0,-2.0,1650821955801896.0
1.0,0.0,0.0,0.0,-1.0,-1.0,-1.0,1.0,1650821955822924.0
0.0,-1.0,-4.0,-5.0,-2.0,-3.0,-2.0,0.0,1650821955822924.0
-1.0,0.0,6.0,3.0,-2.0,2.0,0.0,1.0,1650821955823908.0
1.0,-1.0,1.0,-2.0,-1.0,2.0,2.0,-1.0,1650821955823908.0
0.0,-1.0,0.0,1.0,2.0,-3.0,-2.0,-1.0,1650821955838704.0
0.0,0.0,0.0,1.0,0.0,-2.0,-1.0,-1.0,1650821955838704.0
0.0,1.0,-1.0,-1.0,1.0,-1.0,0.0,2.0,1650821955838823.0
-1.0,0.0,-5.0,-5.0,-1.0,1.0,0.0,1.0,1650821955838823.0
0.0,-1.0,-2.0,1.0,-3.0,-1.0,1.0,0.0,1650821955860960.0
-2.0,-1.0,0.0,-1.0,-3.0,-2.0,1.0,0.0,1650821955860960.0
0.0,-2.0,-4.0,-3.0,-3.0,-5.0,-3.0,-1.0,1650821955861892.0
-1.0,0.0,1.0,1.0,3.0,4.0,1.0,0.0,1650821955861892.0
1.0,0.0,0.0,1.0,5.0,7.0,2.0,1.0,1650821955883311.0
0.0,0.0,0.0,-1.0,1.0,0.0,2.0,-1.0,1650821955883311.0
-2.0,-1.0,0.0,-2.0,-3.0,-3.0,0.0,-1.0,1650821955884241.0
0.0,-2.0,-2.0,-2.0,-2.0,-2.0,-2.0,0.0,1650821955884241.0
-2.0,0.0,-1.0,0.0,-2.0,-3.0,-1.0,-1.0,1650821955898382.0
-1.0,-2.0,0.0,-1.0,-1.0,-1.0,-1.0,-1.0,1650821955898382.0
0.0,1.0,-2.0,-2.0,-2.0,4.0,0.0,0.0,1650821955899313.0
0.0,0.0,0.0,1.0,2.0,-2.0,-1.0,-1.0,1650821955899313.0
-1.0,-2.0,-1.0,-2.0,-4.0,-5.0,-1.0,-1.0,1650821955920929.0
0.0,0.0,-2.0,-1.0,-2.0,-3.0,-2.0,0.0,1650821955920929.0
1.0,-1.0,-1.0,3.0,1.0,3.0,2.0,-1.0,1650821955921887.0
-2.0,-1.0,0.0,2.0,6.0,4.0,-1.0,-1.0,1650821955921887.0
-2.0,-2.0,-1.0,1.0,-1.0,-2.0,-2.0,-1.0,1650821955942915.0
-1.0,-2.0,-2.0,-3.0,-2.0,-2.0,-1.0,-1.0,1650821955942915.0
0.0,0.0,-2.0,-1.0,-1.0,-2.0,-1.0,0.0,1650821955943849.0
0.0,-1.0,0.0,-1.0,-5.0,-4.0,0.0,-1.0,1650821955943849.0
-2.0,-1.0,1.0,-2.0,-6.0,-3.0,-2.0,-2.0,1650821955958090.0
0.0,0.0,-1.0,-1.0,0.0,2.0,0.0,1.0,1650821955958090.0
-1.0,-1.0,1.0,2.0,7.0,2.0,1.0,0.0,1650821955959021.0
1.0,-1.0,-1.0,-1.0,1.0,1.0,1.0,-1.0,1650821955959021.0
0.0,-1.0,-2.0,-1.0,-2.0,-2.0,-1.0,0.0,1650821955981178.0
0.0,0.0,-2.0,-2.0,-4.0,-4.0,-2.0,0.0,1650821955981178.0
0.0,-4.0,0.0,2.0,0.0,2.0,0.0,-1.0,1650821955981178.0
0.0,-1.0,-1.0,-1.0,1.0,1.0,-1.0,0.0,1650821955981178.0
0.0,-2.0,-4.0,-2.0,1.0,-1.0,0.0,-1.0,1650821956003653.0
-1.0,0.0,0.0,1.0,0.0,-1.0,-1.0,0.0,1650821956003653.0
0.0,0.0,-2.0,-2.0,-1.0,-4.0,-2.0,-2.0,1650821956004326.0
-1.0,1.0,-2.0,0.0,-2.0,-2.0,-1.0,0.0,1650821956004326.0
-1.0,0.0,-1.0,-1.0,0.0,2.0,0.0,-1.0,1650821956018006.0
-1.0,-3.0,-1.0,-1.0,2.0,2.0,-1.0,-3.0,1650821956018006.0
0.0,0.0,-1.0,-2.0,-1.0,-1.0,1.0,-1.0,1650821956025841.0
-1.0,0.0,1.0,-1.0,-5.0,-4.0,-2.0,0.0,1650821956025841.0
0.0,1.0,2.0,0.0,0.0,0.0,-1.0,1.0,1650821956040888.0
2.0,-1.0,1.0,2.0,4.0,0.0,-2.0,1.0,1650821956040888.0
-1.0,-1.0,-1.0,0.0,2.0,2.0,1.0,0.0,1650821956041847.0
1.0,-3.0,-2.0,1.0,-2.0,-1.0,1.0,-1.0,1650821956041847.0
-2.0,-2.0,0.0,1.0,-1.0,0.0,0.0,0.0,1650821956063763.0
-2.0,-2.0,-2.0,-2.0,-3.0,-1.0,-1.0,-1.0,1650821956063763.0
-1.0,-1.0,-1.0,-2.0,-4.0,-3.0,-3.0,-1.0,1650821956063763.0
1.0,0.0,0.0,-1.0,-1.0,-4.0,0.0,-1.0,1650821956063763.0
0.0,1.0,-3.0,-1.0,3.0,2.0,1.0,0.0,1650821956077811.0
0.0,2.0,3.0,2.0,3.0,0.0,1.0,-2.0,1650821956077811.0
0.0,0.0,0.0,1.0,-1.0,-1.0,-1.0,-2.0,1650821956086039.0
0.0,2.0,4.0,-2.0,-3.0,-2.0,-1.0,1.0,1650821956086039.0
-1.0,-6.0,-5.0,-4.0,1.0,4.0,0.0,0.0,1650821956100924.0
0.0,-1.0,2.0,1.0,3.0,0.0,2.0,0.0,1650821956100924.0
-3.0,0.0,-4.0,-2.0,-5.0,-6.0,-4.0,-3.0,1650821956101882.0
6.0,11.0,1.0,-2.0,0.0,-1.0,-17.0,-14.0,1650821956101882.0
-2.0,-5.0,2.0,-3.0,-8.0,-8.0,-5.0,-13.0,1650821956123803.0
0.0,-5.0,-1.0,-4.0,-1.0,2.0,26.0,39.0,1650821956123803.0
-10.0,-6.0,3.0,-1.0,1.0,1.0,1.0,4.0,1650821956123803.0
-9.0,-17.0,-7.0,-2.0,-3.0,1.0,-7.0,-12.0,1650821956123803.0
3.0,7.0,3.0,4.0,-4.0,-5.0,-12.0,-17.0,1650821956138858.0
13.0,22.0,2.0,-5.0,5.0,3.0,2.0,7.0,1650821956138858.0
12.0,5.0,2.0,-1.0,2.0,3.0,6.0,18.0,1650821956146203.0
0.0,-2.0,0.0,1.0,3.0,3.0,-1.0,18.0,1650821956146203.0
-18.0,-20.0,-3.0,-3.0,-7.0,-7.0,-10.0,-14.0,1650821956160506.0
12.0,-30.0,-9.0,7.0,-3.0,-2.0,-8.0,-25.0,1650821956160506.0
-29.0,-9.0,-11.0,-13.0,-5.0,-5.0,0.0,-7.0,1650821956161451.0
1.0,11.0,11.0,1.0,0.0,1.0,0.0,-4.0,1650821956161451.0
6.0,-7.0,-15.0,-2.0,1.0,1.0,7.0,17.0,1650821956183445.0
0.0,29.0,14.0,6.0,-1.0,-3.0,-4.0,1.0,1650821956183445.0
-2.0,-8.0,-3.0,3.0,0.0,-5.0,-10.0,-17.0,1650821956184376.0
10.0,4.0,7.0,7.0,4.0,6.0,10.0,12.0,1650821956184376.0
-5.0,10.0,7.0,1.0,5.0,5.0,-2.0,-4.0,1650821956206939.0
-4.0,1.0,7.0,2.0,-2.0,-4.0,-17.0,-17.0,1650821956206939.0
15.0,3.0,-13.0,-5.0,-6.0,-2.0,-9.0,-24.0,1650821956206939.0
29.0,11.0,-5.0,-9.0,1.0,2.0,27.0,43.0,1650821956206939.0
-7.0,12.0,20.0,3.0,-1.0,1.0,8.0,7.0,1650821956220933.0
-33.0,-46.0,-24.0,-16.0,-13.0,-7.0,-13.0,-9.0,1650821956220933.0
-13.0,-25.0,-4.0,-16.0,-8.0,-9.0,-14.0,-28.0,1650821956221891.0
-15.0,16.0,-3.0,0.0,-5.0,-5.0,-5.0,-17.0,1650821956221891.0
31.0,-8.0,-10.0,2.0,1.0,2.0,25.0,37.0,1650821956243056.0
-60.0,-30.0,8.0,10.0,7.0,4.0,17.0,44.0,1650821956243056.0
33.0,-25.0,-16.0,-11.0,-5.0,-2.0,17.0,35.0,1650821956243987.0
-35.0,8.0,10.0,0.0,-1.0,3.0,-10.0,-32.0,1650821956243987.0
13.0,22.0,13.0,26.0,13.0,6.0,-9.0,-1.0,1650821956266853.0
-12.0,-49.0,-37.0,-27.0,-11.0,-15.0,-44.0,-88.0,1650821956266853.0
-5.0,3.0,6.0,0.0,4.0,6.0,-3.0,1.0,1650821956266853.0
52.0,4.0,14.0,0.0,1.0,2.0,20.0,25.0,1650821956266853.0
-35.0,5.0,8.0,4.0,2.0,2.0,6.0,12.0,1650821956280545.0
9.0,15.0,-20.0,-2.0,-4.0,-6.0,-9.0,-25.0,1650821956280545.0
-12.0,-9.0,17.0,5.0,-1.0,-2.0,10.0,24.0,1650821956281477.0
7.0,-10.0,-8.0,-4.0,-2.0,2.0,0.0,-8.0,1650821956281477.0
4.0,15.0,11.0,10.0,8.0,7.0,2.0,-3.0,1650821956302872.0
43.0,23.0,3.0,-1.0,3.0,9.0,17.0,21.0,1650821956302872.0
-12.0,44.0,1.0,0.0,-2.0,-3.0,-15.0,12.0,1650821956303856.0
-28.0,-50.0,-29.0,0.0,-4.0,-5.0,1.0,2.0,1650821956303856.0
16.0,5.0,13.0,-1.0,9.0,6.0,10.0,13.0,1650821956326178.0
3.0,4.0,-27.0,-20.0,-14.0,-4.0,13.0,13.0,1650821956326178.0
19.0,13.0,20.0,19.0,2.0,-1.0,-5.0,4.0,1650821956326995.0
-4.0,22.0,4.0,-4.0,3.0,1.0,0.0,-3.0,1650821956326995.0
-14.0,-44.0,-17.0,-17.0,-10.0,-9.0,-16.0,-14.0,1650821956341125.0
10.0,-2.0,8.0,-1.0,-7.0,-5.0,3.0,18.0,1650821956341125.0
11.0,13.0,18.0,11.0,13.0,13.0,5.0,-16.0,1650821956341125.0
15.0,27.0,9.0,10.0,6.0,5.0,9.0,11.0,1650821956341125.0
-4.0,-22.0,-22.0,-19.0,-9.0,-9.0,-10.0,-15.0,1650821956363214.0
-26.0,9.0,12.0,9.0,-2.0,-6.0,-5.0,-10.0,1650821956363214.0
-9.0,-25.0,-14.0,0.0,-2.0,2.0,-3.0,-15.0,1650821956364146.0
9.0,18.0,30.0,8.0,6.0,7.0,16.0,14.0,1650821956364146.0
-1.0,-18.0,-17.0,2.0,3.0,-1.0,6.0,22.0,1650821956386235.0
-6.0,15.0,22.0,11.0,7.0,0.0,-19.0,-8.0,1650821956386235.0
8.0,14.0,11.0,3.0,2.0,2.0,8.0,-30.0,1650821956386235.0
0.0,-14.0,-24.0,-5.0,-5.0,-4.0,-11.0,17.0,1650821956386235.0
1.0,26.0,-5.0,-12.0,-14.0,-9.0,-1.0,-22.0,1650821956400435.0
-6.0,-7.0,-4.0,-6.0,-2.0,-2.0,3.0,-7.0,1650821956400435.0
-7.0,-15.0,-3.0,3.0,7.0,3.0,-4.0,-6.0,1650821956401368.0
-5.0,12.0,20.0,10.0,0.0,1.0,2.0,3.0,1650821956401368.0
4.0,17.0,17.0,12.0,8.0,4.0,6.0,15.0,1650821956424803.0
14.0,19.0,1.0,-1.0,-2.0,1.0,-3.0,6.0,1650821956424803.0
4.0,14.0,18.0,8.0,5.0,5.0,13.0,21.0,1650821956425803.0
-16.0,-50.0,-66.0,-27.0,-10.0,-11.0,-15.0,-11.0,1650821956425803.0
2.0,0.0,14.0,11.0,8.0,8.0,6.0,1.0,1650821956445756.0
17.0,21.0,10.0,-3.0,0.0,11.0,22.0,26.0,1650821956445756.0
-4.0,-14.0,-30.0,-2.0,-5.0,-8.0,-1.0,18.0,1650821956446747.0
-11.0,-11.0,14.0,-15.0,-5.0,-7.0,-11.0,-2.0,1650821956446747.0
-7.0,2.0,-3.0,-3.0,-3.0,-5.0,-17.0,-57.0,1650821956460775.0
-1.0,-11.0,-9.0,-1.0,-4.0,-2.0,-7.0,-17.0,1650821956460775.0
5.0,13.0,-13.0,-9.0,-2.0,3.0,12.0,7.0,1650821956461707.0
-2.0,14.0,28.0,10.0,3.0,-4.0,-5.0,2.0,1650821956461707.0
-1.0,-19.0,-20.0,-1.0,-2.0,-3.0,-7.0,7.0,1650821956482866.0
0.0,-2.0,-4.0,-6.0,4.0,4.0,7.0,14.0,1650821956482866.0
3.0,4.0,-8.0,-2.0,-5.0,-2.0,-1.0,5.0,1650821956483799.0
4.0,36.0,18.0,11.0,7.0,5.0,9.0,-25.0,1650821956483799.0
-3.0,-17.0,-8.0,-7.0,-4.0,1.0,0.0,7.0,1650821956505805.0
6.0,-10.0,17.0,21.0,2.0,-1.0,9.0,20.0,1650821956505805.0
-5.0,-6.0,-7.0,-11.0,8.0,4.0,0.0,18.0,1650821956506737.0
4.0,3.0,17.0,6.0,5.0,4.0,-1.0,-31.0,1650821956506737.0
21.0,17.0,1.0,-5.0,-6.0,-5.0,6.0,32.0,1650821956520922.0
-14.0,-13.0,1.0,-2.0,3.0,3.0,-8.0,-43.0,1650821956520922.0
-5.0,13.0,35.0,12.0,-10.0,-9.0,-18.0,-14.0,1650821956521854.0
-5.0,-27.0,-41.0,-2.0,12.0,7.0,10.0,7.0,1650821956521854.0
5.0,10.0,-1.0,-11.0,-6.0,0.0,1.0,10.0,1650821956543703.0
4.0,23.0,16.0,1.0,0.0,-5.0,1.0,19.0,1650821956543703.0
1.0,-15.0,-21.0,-8.0,-7.0,-4.0,0.0,0.0,1650821956543949.0
-4.0,6.0,-4.0,-4.0,-8.0,-7.0,-11.0,-8.0,1650821956543949.0
-23.0,-29.0,-6.0,3.0,2.0,-2.0,-8.0,-25.0,1650821956566853.0
11.0,0.0,6.0,6.0,5.0,2.0,1.0,29.0,1650821956566853.0
-1.0,14.0,6.0,-10.0,-12.0,-10.0,-12.0,-25.0,1650821956567131.0
-4.0,-18.0,-16.0,-6.0,-7.0,-3.0,-8.0,2.0,1650821956567131.0
-3.0,14.0,3.0,-12.0,-13.0,-4.0,-3.0,-24.0,1650821956581166.0
-7.0,-16.0,-11.0,-2.0,3.0,0.0,0.0,7.0,1650821956581166.0
-3.0,0.0,-7.0,0.0,6.0,5.0,1.0,-1.0,1650821956581166.0
-1.0,-2.0,-4.0,-4.0,-6.0,-9.0,-11.0,-19.0,1650821956581166.0
1.0,5.0,29.0,18.0,7.0,1.0,-3.0,13.0,1650821956603207.0
9.0,9.0,-11.0,-8.0,-1.0,3.0,-3.0,11.0,1650821956603207.0
-2.0,-9.0,-24.0,-6.0,-1.0,-4.0,-2.0,-30.0,1650821956604138.0
0.0,0.0,-2.0,-7.0,-7.0,1.0,5.0,18.0,1650821956604138.0
0.0,22.0,12.0,3.0,4.0,3.0,-6.0,-20.0,1650821956626618.0
-6.0,-2.0,6.0,-7.0,-8.0,-7.0,-14.0,-18.0,1650821956626618.0
2.0,4.0,22.0,12.0,6.0,3.0,12.0,26.0,1650821956626618.0
-7.0,-5.0,-22.0,-5.0,-8.0,-7.0,-19.0,-16.0,1650821956626618.0
8.0,0.0,-18.0,-3.0,1.0,2.0,12.0,35.0,1650821956640649.0
-2.0,-5.0,-10.0,0.0,3.0,1.0,4.0,-5.0,1650821956640649.0
7.0,10.0,14.0,-3.0,-6.0,-1.0,-4.0,-8.0,1650821956641580.0
-11.0,-18.0,-5.0,3.0,5.0,5.0,18.0,25.0,1650821956641580.0
14.0,12.0,20.0,2.0,1.0,2.0,-3.0,12.0,1650821956663681.0
-8.0,15.0,-5.0,-1.0,1.0,5.0,7.0,-37.0,1650821956663681.0
-4.0,-5.0,-12.0,1.0,-6.0,-6.0,-5.0,-12.0,1650821956663957.0
-2.0,4.0,33.0,7.0,2.0,-2.0,-3.0,4.0,1650821956663957.0
-11.0,-41.0,-62.0,-21.0,4.0,2.0,0.0,0.0,1650821956694378.0
3.0,-9.0,1.0,7.0,8.0,6.0,0.0,-7.0,1650821956694378.0
2.0,13.0,12.0,10.0,6.0,3.0,8.0,27.0,1650821956694805.0
6.0,14.0,18.0,11.0,-6.0,-8.0,-5.0,-8.0,1650821956694805.0
-8.0,-1.0,-14.0,-9.0,2.0,1.0,-1.0,-6.0,1650821956700820.0
10.0,2.0,5.0,-1.0,-11.0,-9.0,-1.0,5.0,1650821956700820.0
0.0,0.0,1.0,0.0,-1.0,0.0,-1.0,-13.0,1650821956701821.0
-20.0,-53.0,-51.0,-21.0,-1.0,1.0,-4.0,16.0,1650821956701821.0
19.0,22.0,43.0,20.0,7.0,2.0,3.0,-6.0,1650821956723703.0
7.0,-6.0,-13.0,-1.0,1.0,1.0,8.0,41.0,1650821956723703.0
0.0,4.0,11.0,1.0,-14.0,-14.0,-5.0,-19.0,1650821956723943.0
16.0,33.0,39.0,10.0,14.0,14.0,7.0,24.0,1650821956723943.0
-9.0,3.0,20.0,7.0,-2.0,-1.0,-9.0,-41.0,1650821956746853.0
-5.0,2.0,6.0,-1.0,7.0,4.0,15.0,36.0,1650821956746853.0
-2.0,-23.0,-12.0,-12.0,-8.0,-6.0,-8.0,-13.0,1650821956746853.0
3.0,12.0,6.0,2.0,-5.0,-4.0,-3.0,14.0,1650821956746853.0
8.0,1.0,3.0,3.0,-2.0,1.0,-1.0,-8.0,1650821956760899.0
-6.0,-17.0,2.0,12.0,12.0,8.0,-1.0,10.0,1650821956760899.0
-43.0,-10.0,-6.0,-13.0,-3.0,-3.0,-8.0,-29.0,1650821956761831.0
21.0,4.0,-2.0,7.0,3.0,2.0,-1.0,-21.0,1650821956761831.0
-9.0,-12.0,-17.0,-15.0,-12.0,-9.0,-5.0,31.0,1650821956782955.0
3.0,13.0,23.0,10.0,5.0,3.0,2.0,26.0,1650821956782955.0
-17.0,8.0,-2.0,-4.0,-3.0,-3.0,1.0,-1.0,1650821956783886.0
24.0,8.0,13.0,7.0,7.0,-2.0,-5.0,-4.0,1650821956783886.0
-10.0,-15.0,-35.0,-15.0,-6.0,-3.0,-6.0,-17.0,1650821956806904.0
7.0,16.0,31.0,6.0,2.0,3.0,-4.0,-11.0,1650821956806904.0
-1.0,-8.0,-7.0,20.0,7.0,5.0,11.0,63.0,1650821956807199.0
-7.0,1.0,-20.0,-15.0,-6.0,-6.0,0.0,-59.0,1650821956807199.0
-19.0,-11.0,-48.0,-33.0,-8.0,-5.0,-4.0,-8.0,1650821956821195.0
8.0,5.0,38.0,24.0,9.0,8.0,17.0,45.0,1650821956821195.0
12.0,8.0,-9.0,-6.0,-4.0,-2.0,-15.0,-43.0,1650821956821195.0
-23.0,-34.0,7.0,-8.0,-5.0,0.0,5.0,11.0,1650821956821195.0
-1.0,24.0,45.0,15.0,4.0,4.0,7.0,-19.0,1650821956843779.0
9.0,-24.0,-54.0,-19.0,-7.0,-10.0,-22.0,-43.0,1650821956843779.0
8.0,0.0,35.0,32.0,16.0,9.0,6.0,20.0,1650821956850829.0
-1.0,13.0,6.0,-7.0,-10.0,0.0,2.0,-7.0,1650821956850829.0
-8.0,-2.0,5.0,2.0,-2.0,-4.0,3.0,14.0,1650821956866884.0
8.0,8.0,26.0,4.0,-9.0,-8.0,-4.0,6.0,1650821956866884.0
-28.0,-22.0,-27.0,-12.0,-1.0,10.0,11.0,-16.0,1650821956866884.0
-14.0,1.0,-13.0,5.0,7.0,-3.0,-8.0,-6.0,1650821956866884.0
9.0,6.0,9.0,5.0,7.0,7.0,17.0,74.0,1650821956880914.0
-10.0,16.0,-17.0,-23.0,-24.0,-17.0,-10.0,-102.0,1650821956880914.0
27.0,38.0,29.0,3.0,8.0,4.0,-3.0,8.0,1650821956881877.0
-3.0,-26.0,-22.0,-5.0,-4.0,-1.0,1.0,20.0,1650821956881877.0
3.0,-7.0,10.0,21.0,2.0,-2.0,-6.0,-21.0,1650821956903738.0
-7.0,-13.0,-20.0,-7.0,13.0,7.0,2.0,38.0,1650821956903738.0
7.0,9.0,6.0,-6.0,-11.0,-7.0,2.0,19.0,1650821956903738.0
-15.0,15.0,8.0,1.0,-3.0,2.0,4.0,8.0,1650821956903738.0
8.0,24.0,30.0,23.0,7.0,0.0,5.0,-34.0,1650821956926963.0
-6.0,-15.0,-44.0,-18.0,-10.0,-6.0,-6.0,-16.0,1650821956926963.0
0.0,-4.0,-22.0,-12.0,9.0,2.0,-4.0,3.0,1650821956926963.0
3.0,-15.0,-11.0,-6.0,-6.0,-1.0,-1.0,19.0,1650821956926963.0
-12.0,10.0,-31.0,-24.0,-10.0,-9.0,-13.0,-23.0,1650821956949157.0
2.0,13.0,9.0,16.0,12.0,10.0,10.0,19.0,1650821956949157.0
-8.0,-15.0,4.0,10.0,8.0,1.0,0.0,-49.0,1650821956950117.0
-9.0,13.0,21.0,18.0,4.0,-2.0,-3.0,7.0,1650821956950117.0
15.0,-5.0,15.0,-14.0,-12.0,-3.0,4.0,17.0,1650821956971935.0
-1.0,1.0,-4.0,-10.0,-7.0,-8.0,-11.0,-36.0,1650821956971935.0
6.0,9.0,7.0,7.0,2.0,3.0,11.0,49.0,1650821956971935.0
16.0,18.0,22.0,4.0,10.0,12.0,12.0,25.0,1650821956971935.0
19.0,17.0,22.0,10.0,0.0,-3.0,-2.0,-16.0,1650821956986933.0
-26.0,10.0,15.0,11.0,4.0,2.0,4.0,13.0,1650821956986933.0
7.0,-3.0,4.0,-10.0,-16.0,-8.0,-5.0,9.0,1650821956986933.0
0.0,-7.0,-3.0,6.0,15.0,4.0,-4.0,-3.0,1650821956986933.0
0.0,0.0,-6.0,0.0,-4.0,-1.0,-8.0,-11.0,1650821957000923.0
-16.0,-14.0,0.0,3.0,10.0,6.0,9.0,26.0,1650821957000923.0
36.0,20.0,1.0,6.0,1.0,2.0,2.0,-13.0,1650821957001882.0
20.0,14.0,9.0,1.0,8.0,6.0,2.0,-24.0,1650821957001882.0
-6.0,-26.0,-25.0,-15.0,-7.0,-5.0,-10.0,-6.0,1650821957023704.0
7.0,7.0,22.0,7.0,-2.0,-3.0,-2.0,5.0,1650821957023704.0
3.0,-29.0,-30.0,-4.0,8.0,8.0,0.0,12.0,1650821957023941.0
2.0,15.0,-1.0,0.0,-11.0,-8.0,-4.0,-3.0,1650821957023941.0
0.0,1.0,-11.0,-9.0,0.0,0.0,-3.0,8.0,1650821957046928.0
9.0,14.0,5.0,1.0,-7.0,2.0,9.0,-16.0,1650821957046928.0
-14.0,-3.0,6.0,11.0,11.0,2.0,4.0,40.0,1650821957046928.0
15.0,-9.0,-25.0,-6.0,0.0,-3.0,-2.0,-38.0,1650821957046928.0
-5.0,-19.0,3.0,-5.0,-9.0,-11.0,-7.0,-20.0,1650821957059929.0
-2.0,12.0,3.0,-11.0,2.0,7.0,-1.0,38.0,1650821957059929.0
-9.0,-12.0,-6.0,-1.0,-1.0,6.0,7.0,-41.0,1650821957068794.0
-1.0,-4.0,-13.0,0.0,-4.0,-1.0,-3.0,-4.0,1650821957068794.0
-14.0,1.0,2.0,4.0,-1.0,2.0,8.0,29.0,1650821957083760.0
24.0,0.0,-14.0,1.0,-3.0,-8.0,-11.0,-7.0,1650821957083760.0
6.0,8.0,10.0,-8.0,-7.0,-9.0,-8.0,26.0,1650821957083760.0
-10.0,1.0,0.0,-9.0,-16.0,-7.0,-8.0,-20.0,1650821957083760.0
11.0,-29.0,-24.0,3.0,17.0,10.0,10.0,13.0,1650821957106959.0
12.0,14.0,31.0,5.0,3.0,-1.0,-5.0,-1.0,1650821957106959.0
-16.0,-24.0,-54.0,-22.0,-7.0,0.0,3.0,24.0,1650821957106959.0
-52.0,4.0,23.0,2.0,-4.0,-10.0,-17.0,-68.0,1650821957106959.0
20.0,-2.0,10.0,-2.0,-9.0,1.0,6.0,23.0,1650821957119950.0
0.0,1.0,-18.0,12.0,18.0,8.0,4.0,-2.0,1650821957119950.0
1.0,-9.0,-18.0,-25.0,-13.0,-14.0,-8.0,-9.0,1650821957128832.0
2.0,-4.0,-13.0,6.0,5.0,5.0,2.0,6.0,1650821957128832.0
-37.0,13.0,37.0,13.0,8.0,8.0,0.0,23.0,1650821957142963.0
-5.0,-28.0,-12.0,-15.0,-18.0,-11.0,-21.0,-124.0,1650821957142963.0
-9.0,-4.0,10.0,4.0,-1.0,-1.0,3.0,22.0,1650821957143935.0
4.0,-22.0,-48.0,-26.0,-23.0,-13.0,8.0,50.0,1650821957143935.0
4.0,10.0,-13.0,-7.0,14.0,10.0,2.0,-19.0,1650821957166843.0
11.0,-9.0,-12.0,3.0,1.0,5.0,11.0,74.0,1650821957166843.0
-38.0,1.0,14.0,10.0,0.0,1.0,5.0,-76.0,1650821957166843.0
34.0,-3.0,6.0,-5.0,-4.0,-6.0,0.0,16.0,1650821957166843.0
10.0,-6.0,9.0,13.0,3.0,-2.0,-2.0,1.0,1650821957179938.0
-12.0,-5.0,-31.0,-14.0,-10.0,-6.0,-2.0,4.0,1650821957179938.0
9.0,4.0,0.0,5.0,10.0,7.0,0.0,-10.0,1650821957188703.0
-1.0,17.0,10.0,-5.0,5.0,4.0,-2.0,0.0,1650821957188703.0
-13.0,20.0,28.0,10.0,2.0,5.0,9.0,9.0,1650821957203703.0
-8.0,-15.0,-19.0,-13.0,-11.0,-10.0,-22.0,-69.0,1650821957203703.0
31.0,20.0,-1.0,-4.0,-10.0,-6.0,3.0,74.0,1650821957203907.0
-66.0,-11.0,36.0,13.0,6.0,0.0,-3.0,-26.0,1650821957203907.0
44.0,-6.0,-24.0,-14.0,-9.0,-6.0,-11.0,-47.0,1650821957225950.0
-19.0,7.0,32.0,17.0,8.0,5.0,4.0,-6.0,1650821957225950.0
10.0,6.0,0.0,-11.0,-14.0,-9.0,-7.0,-19.0,1650821957226881.0
-11.0,-21.0,-22.0,17.0,22.0,12.0,9.0,71.0,1650821957226881.0
-5.0,-2.0,-16.0,-10.0,-15.0,-13.0,-15.0,-13.0,1650821957239912.0
8.0,-11.0,-7.0,6.0,-2.0,2.0,16.0,22.0,1650821957239912.0
11.0,14.0,-10.0,-9.0,10.0,9.0,-4.0,-17.0,1650821957247891.0
8.0,13.0,27.0,12.0,-1.0,0.0,5.0,23.0,1650821957247891.0
-15.0,-9.0,-11.0,0.0,-7.0,-6.0,0.0,-12.0,1650821957263739.0
11.0,5.0,-32.0,-26.0,-13.0,-8.0,-3.0,6.0,1650821957263739.0
3.0,-36.0,39.0,19.0,12.0,5.0,0.0,9.0,1650821957263739.0
17.0,-2.0,-5.0,-3.0,7.0,9.0,9.0,-18.0,1650821957263739.0
5.0,7.0,15.0,1.0,-2.0,4.0,3.0,34.0,1650821957286237.0
-26.0,1.0,-22.0,-13.0,-10.0,-12.0,-15.0,-13.0,1650821957286237.0
36.0,2.0,-3.0,7.0,9.0,1.0,-3.0,-59.0,1650821957286237.0
3.0,3.0,8.0,-5.0,-16.0,-7.0,-7.0,4.0,1650821957286237.0
-5.0,-3.0,1.0,-5.0,-4.0,-2.0,1.0,0.0,1650821957300366.0
17.0,27.0,35.0,32.0,36.0,26.0,29.0,28.0,1650821957300366.0
-29.0,-20.0,-13.0,-15.0,-16.0,-7.0,-5.0,36.0,1650821957308344.0
21.0,10.0,-1.0,-3.0,-13.0,-9.0,-9.0,-38.0,1650821957308344.0
6.0,27.0,31.0,7.0,14.0,5.0,-5.0,15.0,1650821957323739.0
-20.0,-42.0,-26.0,-21.0,-28.0,-17.0,-17.0,-30.0,1650821957323739.0
-14.0,20.0,19.0,17.0,9.0,11.0,21.0,21.0,1650821957323739.0
20.0,-9.0,-15.0,5.0,11.0,5.0,-9.0,-3.0,1650821957323739.0
17.0,8.0,6.0,-1.0,0.0,3.0,15.0,4.0,1650821957346234.0
15.0,9.0,27.0,13.0,-2.0,-4.0,-9.0,-1.0,1650821957346234.0
-10.0,1.0,-1.0,-6.0,-10.0,-7.0,-7.0,-18.0,1650821957346234.0
-5.0,-29.0,-9.0,0.0,9.0,4.0,17.0,29.0,1650821957346234.0
-11.0,-24.0,-48.0,-6.0,-3.0,-4.0,3.0,6.0,1650821957376828.0
30.0,44.0,27.0,-13.0,11.0,6.0,-14.0,8.0,1650821957376828.0
2.0,28.0,5.0,12.0,1.0,5.0,18.0,29.0,1650821957376828.0
-21.0,-21.0,2.0,9.0,-6.0,-8.0,-9.0,0.0,1650821957376828.0
10.0,-38.0,-18.0,6.0,7.0,2.0,-11.0,-15.0,1650821957382814.0
-39.0,-10.0,0.0,-6.0,-9.0,-5.0,6.0,37.0,1650821957382814.0
44.0,24.0,28.0,15.0,5.0,1.0,-8.0,-46.0,1650821957383816.0
12.0,20.0,-7.0,-23.0,-5.0,0.0,-9.0,-16.0,1650821957383816.0
29.0,20.0,0.0,-2.0,-3.0,1.0,17.0,71.0,1650821957406204.0
7.0,-20.0,-1.0,4.0,1.0,-1.0,-1.0,-28.0,1650821957406204.0
-50.0,0.0,-10.0,-13.0,-1.0,0.0,-4.0,28.0,1650821957406861.0
26.0,6.0,0.0,-6.0,-8.0,-1.0,9.0,9.0,1650821957406861.0
-40.0,8.0,7.0,13.0,5.0,-3.0,-15.0,-74.0,1650821957428883.0
28.0,17.0,24.0,-10.0,-26.0,-2.0,19.0,35.0,1650821957428883.0
-11.0,-11.0,-22.0,10.0,46.0,15.0,-12.0,-17.0,1650821957429882.0
4.0,-2.0,11.0,4.0,-4.0,-7.0,-4.0,-4.0,1650821957429882.0
-21.0,-8.0,-55.0,-6.0,-2.0,0.0,1.0,20.0,1650821957443742.0
-12.0,-15.0,-6.0,3.0,14.0,12.0,9.0,14.0,1650821957443742.0
11.0,-11.0,-19.0,-22.0,-23.0,-18.0,-10.0,-38.0,1650821957443742.0
-6.0,22.0,18.0,4.0,-8.0,-3.0,-7.0,-9.0,1650821957443742.0
13.0,-1.0,24.0,12.0,13.0,11.0,22.0,61.0,1650821957465916.0
-18.0,0.0,22.0,0.0,-6.0,-11.0,-14.0,-47.0,1650821957465916.0
-12.0,-27.0,-41.0,-6.0,-13.0,-2.0,-13.0,-3.0,1650821957466866.0
1.0,16.0,-2.0,-8.0,8.0,2.0,1.0,4.0,1650821957466866.0
0.0,-4.0,1.0,-2.0,-11.0,-5.0,-5.0,-14.0,1650821957489114.0
-8.0,-11.0,1.0,3.0,7.0,3.0,1.0,21.0,1650821957489114.0
-26.0,-20.0,1.0,-2.0,-17.0,-10.0,-3.0,-33.0,1650821957490066.0
47.0,5.0,7.0,0.0,2.0,6.0,0.0,-4.0,1650821957490066.0
-28.0,7.0,13.0,5.0,-4.0,-5.0,-3.0,-4.0,1650821957503717.0
19.0,11.0,-3.0,-9.0,5.0,1.0,-7.0,-24.0,1650821957503717.0
-17.0,12.0,24.0,13.0,-4.0,-5.0,4.0,30.0,1650821957503717.0
-12.0,-22.0,-23.0,-6.0,-5.0,0.0,4.0,0.0,1650821957503717.0
16.0,-11.0,2.0,-8.0,12.0,11.0,-2.0,30.0,1650821957526685.0
0.0,1.0,-7.0,0.0,-3.0,-4.0,-5.0,-47.0,1650821957526685.0
12.0,0.0,-4.0,-3.0,-1.0,-1.0,3.0,9.0,1650821957526685.0
-19.0,4.0,10.0,6.0,-2.0,1.0,2.0,6.0,1650821957526685.0
-1.0,6.0,10.0,-3.0,-3.0,-4.0,-6.0,-7.0,1650821957548810.0
-10.0,2.0,-4.0,3.0,-3.0,-1.0,0.0,13.0,1650821957548810.0
14.0,-16.0,-13.0,-7.0,-2.0,-2.0,1.0,3.0,1650821957549740.0
-17.0,-8.0,-14.0,-3.0,3.0,-3.0,-4.0,-16.0,1650821957549740.0
-2.0,1.0,8.0,1.0,-1.0,-3.0,-7.0,-17.0,1650821957563707.0
12.0,14.0,8.0,14.0,5.0,5.0,3.0,7.0,1650821957563707.0
-1.0,-3.0,-10.0,-19.0,-6.0,-3.0,1.0,7.0,1650821957563707.0
-5.0,-5.0,-13.0,-3.0,-8.0,-9.0,-2.0,13.0,1650821957563707.0
-5.0,-2.0,-8.0,-6.0,-4.0,-2.0,0.0,-18.0,1650821957585940.0
0.0,-6.0,-2.0,7.0,8.0,5.0,1.0,10.0,1650821957585940.0
13.0,10.0,13.0,1.0,-2.0,2.0,2.0,16.0,1650821957586966.0
-10.0,-1.0,-5.0,-5.0,-6.0,-5.0,0.0,-6.0,1650821957586966.0
0.0,0.0,-11.0,-5.0,-6.0,-5.0,-5.0,-19.0,1650821957609057.0
-4.0,-2.0,-2.0,1.0,2.0,-2.0,3.0,8.0,1650821957609057.0
5.0,3.0,2.0,4.0,9.0,8.0,0.0,6.0,1650821957610054.0
-1.0,3.0,3.0,5.0,7.0,5.0,0.0,-3.0,1650821957610054.0
-10.0,1.0,1.0,-3.0,-5.0,-3.0,1.0,-9.0,1650821957623062.0
-6.0,-9.0,-3.0,4.0,-1.0,-3.0,-1.0,-1.0,1650821957623062.0
18.0,-3.0,-1.0,6.0,-2.0,-2.0,0.0,1.0,1650821957623994.0
-3.0,-2.0,-3.0,-8.0,0.0,2.0,2.0,8.0,1650821957623994.0
5.0,7.0,0.0,-4.0,-2.0,2.0,-4.0,-9.0,1650821957646054.0
-8.0,1.0,7.0,7.0,2.0,-2.0,3.0,10.0,1650821957646054.0
1.0,2.0,5.0,19.0,2.0,0.0,0.0,-2.0,1650821957646054.0
-4.0,-10.0,-29.0,-39.0,-6.0,-3.0,-2.0,-4.0,1650821957646054.0
0.0,5.0,11.0,0.0,-3.0,-1.0,-2.0,-1.0,1650821957669154.0
2.0,-2.0,-14.0,-20.0,-7.0,-2.0,-1.0,5.0,1650821957669154.0
0.0,2.0,10.0,11.0,2.0,0.0,0.0,2.0,1650821957670113.0
1.0,4.0,4.0,17.0,6.0,1.0,2.0,6.0,1650821957670113.0
-4.0,0.0,0.0,1.0,-2.0,-5.0,-3.0,-6.0,1650821957684114.0
1.0,-3.0,3.0,8.0,2.0,4.0,0.0,3.0,1650821957684114.0
-4.0,-2.0,7.0,6.0,1.0,1.0,-1.0,1.0,1650821957684114.0
-11.0,-1.0,11.0,13.0,3.0,3.0,-1.0,-3.0,1650821957684114.0
-4.0,-4.0,-18.0,-13.0,-4.0,-4.0,0.0,15.0,1650821957705997.0
49.0,2.0,2.0,2.0,-6.0,-4.0,-3.0,-41.0,1650821957705997.0
-41.0,-7.0,-21.0,-22.0,-5.0,-4.0,0.0,3.0,1650821957706998.0
3.0,1.0,11.0,11.0,6.0,5.0,2.0,20.0,1650821957706998.0
-15.0,0.0,13.0,-3.0,1.0,-1.0,-2.0,-30.0,1650821957729268.0
-13.0,2.0,-7.0,-17.0,-5.0,-3.0,-1.0,18.0,1650821957729268.0
22.0,-2.0,-8.0,15.0,-1.0,-2.0,-3.0,-9.0,1650821957730200.0
0.0,0.0,17.0,-1.0,-1.0,-2.0,-2.0,-3.0,1650821957730200.0
-1.0,-1.0,-7.0,4.0,3.0,2.0,1.0,3.0,1650821957743311.0
-20.0,-4.0,-4.0,0.0,2.0,1.0,1.0,6.0,1650821957743311.0
5.0,2.0,-5.0,-8.0,-5.0,-1.0,-1.0,3.0,1650821957744312.0
-3.0,-2.0,-1.0,8.0,-5.0,-3.0,-4.0,-6.0,1650821957744312.0
9.0,-2.0,0.0,-9.0,0.0,-2.0,1.0,2.0,1650821957766180.0
0.0,-3.0,-27.0,-20.0,-3.0,0.0,-3.0,1.0,1650821957766180.0
2.0,4.0,37.0,26.0,6.0,2.0,1.0,4.0,1650821957766398.0
14.0,2.0,-12.0,-14.0,-3.0,-3.0,-3.0,-8.0,1650821957766398.0
-3.0,-6.0,-1.0,13.0,1.0,1.0,-3.0,-6.0,1650821957788602.0
-5.0,-1.0,5.0,16.0,3.0,3.0,2.0,8.0,1650821957788602.0
-3.0,5.0,7.0,-2.0,1.0,-1.0,-1.0,-3.0,1650821957789546.0
4.0,-10.0,-43.0,-50.0,-19.0,-11.0,-5.0,-5.0,1650821957789546.0
-12.0,-5.0,-8.0,-2.0,-4.0,-4.0,-2.0,2.0,1650821957803682.0
-6.0,-5.0,-7.0,7.0,7.0,4.0,2.0,7.0,1650821957803682.0
9.0,6.0,11.0,6.0,8.0,8.0,2.0,1.0,1650821957804615.0
-4.0,4.0,3.0,0.0,3.0,3.0,1.0,-4.0,1650821957804615.0
3.0,-2.0,18.0,14.0,-4.0,-4.0,-1.0,0.0,1650821957826262.0
0.0,-4.0,0.0,-1.0,-3.0,-1.0,-2.0,5.0,1650821957826262.0
-3.0,0.0,3.0,-2.0,-6.0,-5.0,-3.0,-2.0,1650821957826262.0
0.0,-7.0,5.0,7.0,5.0,3.0,1.0,0.0,1650821957826262.0
6.0,5.0,-2.0,1.0,1.0,1.0,1.0,-1.0,1650821957848495.0
-4.0,-1.0,9.0,11.0,-2.0,-4.0,-2.0,-1.0,1650821957848495.0
2.0,-7.0,-15.0,-20.0,-2.0,0.0,-1.0,0.0,1650821957849491.0
-5.0,0.0,-5.0,0.0,-3.0,-3.0,0.0,-1.0,1650821957849491.0
6.0,6.0,5.0,2.0,3.0,3.0,0.0,1.0,1650821957863717.0
-6.0,-1.0,-7.0,-7.0,-2.0,2.0,0.0,1.0,1650821957863717.0
8.0,0.0,-3.0,-11.0,-8.0,-5.0,-1.0,-2.0,1650821957863717.0
-2.0,3.0,21.0,26.0,12.0,4.0,1.0,-1.0,1650821957863717.0
5.0,-4.0,-3.0,2.0,-3.0,-1.0,-1.0,-4.0,1650821957885772.0
-3.0,-2.0,-20.0,-20.0,-3.0,-2.0,0.0,0.0,1650821957885772.0
-5.0,-5.0,-2.0,0.0,-2.0,0.0,0.0,0.0,1650821957886740.0
0.0,5.0,14.0,12.0,-2.0,-3.0,-1.0,-3.0,1650821957886740.0
3.0,-3.0,-3.0,5.0,-1.0,-5.0,-2.0,-3.0,1650821957910798.0
-4.0,-8.0,1.0,-7.0,-3.0,-1.0,-3.0,1.0,1650821957910798.0
0.0,0.0,-7.0,-8.0,-1.0,-3.0,0.0,-1.0,1650821957910798.0
-1.0,2.0,5.0,-1.0,3.0,2.0,-1.0,0.0,1650821957910798.0
-4.0,-8.0,-19.0,-12.0,-3.0,0.0,0.0,-1.0,1650821957922877.0
3.0,6.0,10.0,9.0,-4.0,-4.0,-1.0,0.0,1650821957922877.0
-6.0,4.0,-6.0,-11.0,-2.0,-4.0,-4.0,2.0,1650821957930926.0
-7.0,-4.0,5.0,8.0,-1.0,1.0,1.0,-1.0,1650821957930926.0
7.0,8.0,8.0,1.0,2.0,5.0,3.0,1.0,1650821957946009.0
-3.0,-6.0,1.0,5.0,8.0,4.0,2.0,-1.0,1650821957946009.0
5.0,1.0,3.0,0.0,3.0,1.0,0.0,-1.0,1650821957946009.0
-1.0,3.0,-3.0,-1.0,-3.0,0.0,-1.0,1.0,1650821957946009.0
7.0,-2.0,2.0,0.0,-1.0,0.0,1.0,-1.0,1650821957969015.0
-16.0,-2.0,1.0,-2.0,-8.0,-4.0,-1.0,3.0,1650821957969015.0
-2.0,-4.0,3.0,4.0,2.0,0.0,1.0,-4.0,1650821957969947.0
-1.0,2.0,-12.0,-7.0,1.0,2.0,0.0,-3.0,1650821957969947.0
0.0,-3.0,3.0,0.0,1.0,1.0,-2.0,-1.0,1650821957982913.0
5.0,4.0,1.0,-1.0,-3.0,-4.0,-1.0,0.0,1650821957982913.0
-1.0,-1.0,2.0,6.0,1.0,-3.0,-3.0,-2.0,1650821957990930.0
0.0,2.0,1.0,-3.0,2.0,4.0,0.0,0.0,1650821957990930.0
-4.0,-5.0,-20.0,-17.0,0.0,5.0,0.0,1.0,1650821958006178.0
2.0,6.0,5.0,7.0,1.0,-2.0,-1.0,-3.0,1650821958006178.0
-2.0,-4.0,0.0,0.0,-7.0,-3.0,-2.0,0.0,1650821958006941.0
0.0,2.0,7.0,6.0,-1.0,1.0,0.0,-1.0,1650821958006941.0
-9.0,5.0,2.0,-3.0,1.0,-1.0,-1.0,1.0,1650821958028871.0
6.0,-11.0,1.0,2.0,3.0,1.0,-1.0,-2.0,1650821958028871.0
0.0,3.0,6.0,4.0,2.0,4.0,0.0,-1.0,1650821958029813.0
6.0,-2.0,1.0,2.0,0.0,-1.0,-1.0,-2.0,1650821958029813.0
-4.0,-5.0,-6.0,-7.0,-5.0,-4.0,-1.0,0.0,1650821958042834.0
1.0,3.0,5.0,6.0,-1.0,-5.0,0.0,2.0,1650821958042834.0
1.0,3.0,-10.0,-10.0,-1.0,2.0,0.0,-1.0,1650821958050813.0
-5.0,-3.0,3.0,5.0,-1.0,0.0,0.0,1.0,1650821958050813.0
0.0,5.0,-2.0,-2.0,4.0,2.0,1.0,0.0,1650821958065815.0
8.0,6.0,2.0,2.0,5.0,2.0,0.0,1.0,1650821958065815.0
-6.0,-10.0,-11.0,-6.0,-4.0,-5.0,0.0,-3.0,1650821958066796.0
-3.0,0.0,-2.0,-2.0,-3.0,-1.0,-1.0,-2.0,1650821958066796.0
4.0,2.0,8.0,6.0,-3.0,-4.0,-1.0,0.0,1650821958088859.0
0.0,0.0,-5.0,-6.0,-6.0,-5.0,-2.0,-3.0,1650821958088859.0
-1.0,-2.0,-1.0,-3.0,3.0,4.0,0.0,0.0,1650821958089858.0
-5.0,-2.0,-9.0,0.0,3.0,1.0,0.0,0.0,1650821958089858.0
4.0,0.0,13.0,10.0,-1.0,-2.0,0.0,1.0,1650821958102933.0
-5.0,-2.0,-6.0,-5.0,-1.0,-2.0,0.0,3.0,1650821958102933.0
3.0,1.0,2.0,-1.0,-1.0,1.0,-1.0,-1.0,1650821958110982.0
0.0,-7.0,3.0,7.0,-2.0,-2.0,-1.0,1.0,1650821958110982.0
-8.0,-5.0,-8.0,-11.0,-2.0,-1.0,-2.0,-1.0,1650821958126103.0
-1.0,2.0,1.0,-2.0,0.0,0.0,1.0,2.0,1650821958126103.0
20.0,0.0,2.0,8.0,3.0,0.0,-2.0,-2.0,1650821958126103.0
-20.0,-3.0,-4.0,-4.0,-3.0,-4.0,1.0,1.0,1650821958126103.0
-1.0,0.0,6.0,8.0,0.0,0.0,0.0,-2.0,1650821958149262.0
-5.0,-3.0,-13.0,-13.0,-1.0,3.0,1.0,-2.0,1650821958149262.0
3.0,0.0,2.0,4.0,2.0,2.0,2.0,0.0,1650821958150238.0
8.0,-1.0,-7.0,-7.0,-3.0,-3.0,-1.0,-1.0,1650821958150238.0
-7.0,-3.0,-1.0,0.0,-3.0,1.0,0.0,-2.0,1650821958162266.0
3.0,-2.0,5.0,5.0,-1.0,-1.0,-1.0,-1.0,1650821958162266.0
-11.0,-4.0,1.0,2.0,3.0,0.0,0.0,3.0,1650821958171259.0
10.0,4.0,-6.0,-7.0,-3.0,-1.0,0.0,-2.0,1650821958171259.0
-3.0,-1.0,1.0,2.0,0.0,0.0,-1.0,0.0,1650821958186265.0
3.0,0.0,0.0,1.0,0.0,1.0,-1.0,0.0,1650821958186265.0
-8.0,-2.0,-10.0,-8.0,-6.0,-6.0,-2.0,-1.0,1650821958186265.0
-1.0,-1.0,5.0,3.0,-2.0,-5.0,-2.0,-1.0,1650821958186265.0
7.0,1.0,-1.0,-1.0,3.0,-3.0,-1.0,-2.0,1650821958209451.0
-1.0,0.0,9.0,8.0,4.0,7.0,3.0,0.0,1650821958209451.0
-4.0,1.0,3.0,2.0,3.0,3.0,2.0,1.0,1650821958209451.0
8.0,0.0,-4.0,-4.0,-2.0,-2.0,-1.0,-3.0,1650821958209451.0
-1.0,-2.0,-7.0,-5.0,-3.0,-3.0,-1.0,0.0,1650821958222519.0
2.0,-1.0,5.0,8.0,-2.0,-5.0,-3.0,0.0,1650821958222519.0
-17.0,-4.0,-2.0,-4.0,-5.0,-4.0,-3.0,-1.0,1650821958230922.0
1.0,-7.0,2.0,1.0,2.0,3.0,1.0,1.0,1650821958230922.0
-1.0,4.0,8.0,7.0,8.0,2.0,3.0,0.0,1650821958246236.0
-2.0,-3.0,-15.0,-13.0,-2.0,0.0,-1.0,-4.0,1650821958246236.0
5.0,1.0,3.0,2.0,-3.0,0.0,-2.0,-1.0,1650821958246236.0
0.0,0.0,-2.0,-4.0,-1.0,0.0,-1.0,1.0,1650821958246236.0
-4.0,-3.0,-2.0,-3.0,-5.0,-3.0,-1.0,0.0,1650821958269356.0
0.0,1.0,2.0,3.0,0.0,-3.0,1.0,0.0,1650821958269356.0
1.0,-2.0,0.0,-3.0,-5.0,-9.0,-1.0,0.0,1650821958269356.0
-2.0,1.0,2.0,-1.0,4.0,5.0,1.0,1.0,1650821958269356.0
1.0,0.0,9.0,8.0,11.0,10.0,2.0,3.0,1650821958282321.0
1.0,1.0,-2.0,-5.0,-1.0,0.0,-1.0,-2.0,1650821958282321.0
-3.0,2.0,-2.0,-2.0,-5.0,-1.0,0.0,-1.0,1650821958298405.0
-1.0,0.0,-2.0,1.0,-5.0,-8.0,-3.0,-2.0,1650821958298405.0
0.0,2.0,-7.0,-11.0,-7.0,-7.0,-4.0,-3.0,1650821958305322.0
-1.0,-3.0,6.0,10.0,2.0,0.0,-1.0,-2.0,1650821958305322.0
-1.0,2.0,-2.0,-2.0,2.0,3.0,1.0,2.0,1650821958306329.0
0.0,3.0,-1.0,0.0,1.0,1.0,0.0,-2.0,1650821958306329.0
-2.0,-5.0,2.0,3.0,1.0,1.0,0.0,0.0,1650821958328597.0
-4.0,1.0,-2.0,-2.0,-2.0,-3.0,-3.0,0.0,1650821958328597.0
0.0,-4.0,-8.0,-5.0,-2.0,1.0,-1.0,1.0,1650821958329528.0
3.0,1.0,-2.0,2.0,3.0,3.0,0.0,0.0,1650821958329528.0
2.0,2.0,-4.0,-3.0,-2.0,-2.0,-1.0,-1.0,1650821958358875.0
-11.0,-1.0,0.0,-4.0,-3.0,-3.0,1.0,2.0,1650821958358875.0
17.0,0.0,2.0,-2.0,-1.0,-2.0,-1.0,-5.0,1650821958359875.0
1.0,-1.0,-3.0,-1.0,0.0,2.0,0.0,1.0,1650821958359875.0
-1.0,-1.0,2.0,2.0,5.0,4.0,2.0,2.0,1650821958365886.0
2.0,0.0,0.0,-1.0,1.0,2.0,1.0,1.0,1650821958365886.0
-1.0,1.0,-2.0,-3.0,-3.0,-5.0,0.0,0.0,1650821958366885.0
-4.0,-4.0,0.0,-1.0,-5.0,-7.0,-3.0,-3.0,1650821958366885.0
0.0,-1.0,0.0,1.0,-6.0,-3.0,-2.0,-2.0,1650821958388857.0
1.0,1.0,-1.0,-2.0,4.0,5.0,2.0,-1.0,1650821958388857.0
-4.0,-1.0,-1.0,2.0,12.0,8.0,2.0,0.0,1650821958389857.0
1.0,0.0,3.0,3.0,0.0,0.0,0.0,-1.0,1650821958389857.0
-3.0,-3.0,-5.0,-9.0,-7.0,-6.0,-1.0,-1.0,1650821958411952.0
1.0,-2.0,-1.0,0.0,-3.0,-1.0,-1.0,-3.0,1650821958411952.0
-7.0,-3.0,13.0,13.0,-6.0,-5.0,-3.0,-2.0,1650821958411952.0
-1.0,2.0,3.0,0.0,2.0,3.0,0.0,1.0,1650821958411952.0
0.0,-1.0,-3.0,-3.0,3.0,0.0,0.0,1.0,1650821958426238.0
-1.0,3.0,-4.0,-5.0,0.0,-2.0,0.0,0.0,1650821958426238.0
-1.0,-7.0,-9.0,-6.0,-5.0,-2.0,-1.0,0.0,1650821958426238.0
-3.0,1.0,3.0,1.0,1.0,2.0,0.0,0.0,1650821958426238.0
1.0,0.0,-6.0,-7.0,-4.0,0.0,0.0,0.0,1650821958449362.0
1.0,1.0,2.0,2.0,1.0,2.0,-1.0,0.0,1650821958449362.0
-2.0,1.0,-3.0,-3.0,4.0,0.0,1.0,1.0,1650821958449362.0
3.0,-1.0,2.0,-1.0,-5.0,-4.0,-2.0,-1.0,1650821958449362.0
-3.0,-5.0,-1.0,1.0,3.0,-1.0,-2.0,-2.0,1650821958471479.0
5.0,-1.0,2.0,3.0,-2.0,1.0,0.0,-1.0,1650821958471479.0
0.0,2.0,0.0,0.0,2.0,4.0,0.0,0.0,1650821958472411.0
1.0,-1.0,-4.0,-1.0,-1.0,-1.0,0.0,1.0,1650821958472411.0
-1.0,1.0,5.0,2.0,-4.0,1.0,-1.0,-2.0,1650821958485376.0
-2.0,-2.0,-3.0,-3.0,0.0,-4.0,1.0,0.0,1650821958485376.0
1.0,2.0,-2.0,-2.0,0.0,4.0,-1.0,-2.0,1650821958486372.0
0.0,0.0,5.0,7.0,5.0,2.0,1.0,-1.0,1650821958486372.0
-9.0,-2.0,-9.0,-6.0,-6.0,-6.0,-2.0,-2.0,1650821958508909.0
3.0,-3.0,-1.0,-1.0,-4.0,-2.0,-2.0,-2.0,1650821958508909.0
-1.0,1.0,0.0,0.0,-1.0,-1.0,1.0,1.0,1650821958509850.0
-1.0,-3.0,-7.0,-11.0,3.0,2.0,1.0,1.0,1650821958509850.0
0.0,0.0,10.0,12.0,3.0,4.0,0.0,0.0,1650821958531856.0
0.0,-1.0,2.0,-2.0,-1.0,-2.0,-2.0,-2.0,1650821958531856.0
-1.0,-3.0,-1.0,-1.0,-1.0,-4.0,-2.0,-2.0,1650821958531856.0
-3.0,-1.0,-2.0,0.0,-3.0,-4.0,-2.0,-2.0,1650821958531856.0
4.0,1.0,-1.0,-2.0,-1.0,-1.0,-1.0,0.0,1650821958546261.0
0.0,-4.0,-3.0,-1.0,-2.0,-1.0,-2.0,0.0,1650821958546261.0
4.0,0.0,4.0,4.0,2.0,3.0,1.0,1.0,1650821958546261.0
-2.0,0.0,-4.0,-1.0,3.0,1.0,0.0,-1.0,1650821958546261.0
1.0,0.0,-2.0,-4.0,-3.0,-1.0,-1.0,-1.0,1650821958568469.0
-3.0,1.0,-1.0,3.0,3.0,-1.0,1.0,1.0,1650821958568469.0
0.0,-1.0,3.0,5.0,-2.0,0.0,0.0,0.0,1650821958569469.0
-2.0,0.0,-3.0,-2.0,-1.0,2.0,-1.0,0.0,1650821958569469.0
2.0,2.0,2.0,3.0,0.0,-2.0,1.0,4.0,1650821958591619.0
3.0,-1.0,-2.0,-4.0,-3.0,-2.0,-1.0,-1.0,1650821958591619.0
-1.0,0.0,-5.0,-4.0,-2.0,-4.0,-2.0,-1.0,1650821958592550.0
-2.0,-3.0,-2.0,-4.0,-4.0,-2.0,-1.0,1.0,1650821958592550.0
-4.0,1.0,-2.0,-3.0,-1.0,-1.0,1.0,-2.0,1650821958605581.0
5.0,-6.0,3.0,5.0,-1.0,0.0,0.0,1.0,1650821958605581.0
-1.0,-1.0,1.0,0.0,1.0,0.0,-1.0,-1.0,1650821958606514.0
-2.0,-1.0,-1.0,1.0,-1.0,-1.0,0.0,-1.0,1650821958606514.0
-1.0,0.0,-4.0,-1.0,2.0,2.0,1.0,0.0,1650821958636006.0
-2.0,2.0,-1.0,0.0,6.0,1.0,1.0,1.0,1650821958636006.0
-2.0,3.0,2.0,-1.0,-4.0,-1.0,-1.0,-1.0,1650821958636969.0
2.0,-5.0,-3.0,-2.0,-1.0,0.0,-1.0,-1.0,1650821958636969.0
0.0,0.0,1.0,2.0,-3.0,0.0,0.0,0.0,1650821958651087.0
-7.0,-3.0,-5.0,-3.0,-3.0,-3.0,-3.0,-2.0,1650821958651087.0
1.0,2.0,1.0,0.0,-1.0,-3.0,-3.0,-2.0,1650821958652029.0
0.0,1.0,1.0,2.0,0.0,1.0,-1.0,-2.0,1650821958652029.0
3.0,-1.0,-4.0,-7.0,6.0,6.0,3.0,3.0,1650821958666092.0
-1.0,1.0,8.0,11.0,-2.0,-1.0,0.0,1.0,1650821958666092.0
-1.0,0.0,-4.0,-4.0,-6.0,-2.0,-1.0,-1.0,1650821958666092.0
0.0,1.0,-2.0,0.0,-2.0,-1.0,0.0,-1.0,1650821958666092.0
4.0,-2.0,3.0,1.0,0.0,1.0,-2.0,-1.0,1650821958688857.0
0.0,0.0,-1.0,-1.0,-3.0,-2.0,0.0,2.0,1650821958688857.0
-2.0,-1.0,-4.0,-5.0,-3.0,-4.0,-1.0,-3.0,1650821958689865.0
1.0,0.0,2.0,1.0,-2.0,-2.0,0.0,1.0,1650821958689865.0
-1.0,0.0,2.0,1.0,3.0,3.0,1.0,0.0,1650821958711808.0
-1.0,-1.0,-3.0,-4.0,0.0,5.0,1.0,0.0,1650821958711808.0
-6.0,-1.0,3.0,6.0,7.0,2.0,0.0,-2.0,1650821958711808.0
1.0,-5.0,-4.0,-3.0,0.0,1.0,-2.0,-1.0,1650821958711808.0
1.0,-2.0,-1.0,-1.0,-3.0,-2.0,-1.0,-1.0,1650821958725830.0
-1.0,0.0,-1.0,-3.0,-3.0,-2.0,1.0,-2.0,1650821958725830.0
-3.0,0.0,0.0,-2.0,-1.0,-1.0,1.0,1.0,1650821958726820.0
-4.0,0.0,-2.0,-4.0,-4.0,-6.0,-1.0,0.0,1650821958726820.0
8.0,1.0,2.0,4.0,1.0,0.0,-4.0,-2.0,1650821958748741.0
-3.0,2.0,2.0,3.0,1.0,0.0,-3.0,-1.0,1650821958748741.0
2.0,-2.0,-4.0,-3.0,-3.0,-2.0,1.0,1.0,1650821958749739.0
-3.0,-1.0,-1.0,-3.0,2.0,1.0,-2.0,-2.0,1650821958749739.0
-2.0,0.0,0.0,2.0,0.0,4.0,1.0,1.0,1650821958771753.0
-3.0,-3.0,-7.0,-2.0,0.0,1.0,3.0,0.0,1650821958771753.0
4.0,2.0,-3.0,-6.0,-1.0,-3.0,-2.0,-1.0,1650821958771753.0
-2.0,1.0,7.0,10.0,2.0,-1.0,1.0,-1.0,1650821958771753.0
-3.0,-1.0,1.0,2.0,0.0,0.0,-1.0,-2.0,1650821958786203.0
0.0,-4.0,-3.0,-4.0,-1.0,0.0,-3.0,-2.0,1650821958786203.0
-2.0,-3.0,1.0,2.0,2.0,1.0,-2.0,0.0,1650821958786784.0
-1.0,-1.0,-5.0,-4.0,-3.0,2.0,0.0,1.0,1650821958786784.0
-7.0,-3.0,-1.0,-4.0,0.0,-2.0,1.0,0.0,1650821958809135.0
8.0,2.0,2.0,2.0,6.0,4.0,0.0,-1.0,1650821958809135.0
-1.0,2.0,6.0,6.0,-1.0,-1.0,0.0,-1.0,1650821958810092.0
6.0,4.0,1.0,0.0,-1.0,-1.0,-2.0,-2.0,1650821958810092.0
-8.0,-1.0,-1.0,-4.0,-7.0,-6.0,-3.0,-2.0,1650821958831865.0
-2.0,2.0,-2.0,-5.0,-3.0,-3.0,0.0,0.0,1650821958831865.0
4.0,0.0,-4.0,-5.0,0.0,2.0,2.0,1.0,1650821958831865.0
4.0,-1.0,1.0,-1.0,0.0,1.0,1.0,1.0,1650821958831865.0
0.0,0.0,-2.0,1.0,-2.0,-6.0,0.0,0.0,1650821958846204.0
-4.0,-3.0,-7.0,-5.0,-1.0,1.0,-1.0,-2.0,1650821958846204.0
5.0,3.0,11.0,11.0,4.0,7.0,0.0,-2.0,1650821958846844.0
-5.0,-1.0,2.0,1.0,0.0,0.0,2.0,1.0,1650821958846844.0
-1.0,-2.0,-2.0,0.0,-1.0,1.0,1.0,-1.0,1650821958868867.0
-2.0,5.0,2.0,1.0,-3.0,-6.0,-2.0,-3.0,1650821958868867.0
-2.0,-2.0,-4.0,-4.0,-2.0,-1.0,-3.0,-1.0,1650821958869867.0
0.0,3.0,0.0,0.0,1.0,2.0,0.0,0.0,1650821958869867.0
-1.0,-3.0,-2.0,-1.0,-3.0,-1.0,0.0,0.0,1650821958891947.0
0.0,0.0,0.0,2.0,2.0,1.0,0.0,0.0,1650821958891947.0
-2.0,-8.0,0.0,1.0,-3.0,0.0,-1.0,-1.0,1650821958891947.0
-3.0,1.0,-1.0,-4.0,0.0,0.0,-1.0,1.0,1650821958891947.0
2.0,-1.0,-3.0,-3.0,2.0,-1.0,-1.0,-1.0,1650821958904888.0
-1.0,1.0,2.0,1.0,-3.0,-1.0,0.0,3.0,1650821958904888.0
-3.0,-1.0,-2.0,-2.0,0.0,-2.0,-1.0,-1.0,1650821958913793.0
1.0,0.0,0.0,1.0,-2.0,-1.0,1.0,-3.0,1650821958913793.0
-2.0,-4.0,2.0,4.0,1.0,0.0,-1.0,-4.0,1650821958928838.0
2.0,1.0,-2.0,-3.0,2.0,6.0,4.0,3.0,1650821958928838.0
1.0,-3.0,-8.0,-6.0,-3.0,-1.0,-1.0,0.0,1650821958929838.0
-11.0,0.0,-2.0,-2.0,-1.0,-2.0,-1.0,-2.0,1650821958929838.0
1.0,6.0,7.0,3.0,-2.0,-2.0,-1.0,0.0,1650821958951932.0
0.0,-3.0,0.0,2.0,-2.0,-5.0,-3.0,-1.0,1650821958951932.0
1.0,0.0,1.0,2.0,7.0,7.0,4.0,0.0,1650821958951932.0
4.0,-4.0,-5.0,-2.0,-3.0,-3.0,-8.0,-4.0,1650821958951932.0
-2.0,2.0,-1.0,-1.0,-3.0,1.0,1.0,0.0,1650821958964956.0
-4.0,-2.0,2.0,0.0,0.0,1.0,2.0,7.0,1650821958964956.0
-6.0,0.0,-2.0,-3.0,0.0,-3.0,0.0,-8.0,1650821958973787.0
3.0,0.0,1.0,2.0,-2.0,-4.0,1.0,3.0,1650821958973787.0
9.0,3.0,1.0,-2.0,1.0,-1.0,1.0,2.0,1650821958988815.0
2.0,2.0,3.0,1.0,-6.0,-1.0,1.0,-1.0,1650821958988815.0
0.0,1.0,1.0,2.0,4.0,1.0,-3.0,-1.0,1650821958989747.0
0.0,1.0,0.0,3.0,6.0,3.0,0.0,0.0,1650821958989747.0
-3.0,-7.0,-2.0,0.0,-1.0,-2.0,-2.0,-2.0,1650821959012357.0
-3.0,7.0,-3.0,-5.0,-2.0,-1.0,-10.0,-21.0,1650821959012357.0
-3.0,-6.0,-1.0,-3.0,-4.0,-4.0,7.0,16.0,1650821959012357.0
1.0,-11.0,-3.0,-5.0,-2.0,2.0,18.0,27.0,1650821959012357.0
7.0,-1.0,-3.0,-3.0,3.0,6.0,4.0,1.0,1650821959025455.0
-1.0,0.0,10.0,14.0,7.0,4.0,-1.0,-1.0,1650821959025455.0
-2.0,-3.0,-2.0,-3.0,-9.0,-6.0,-14.0,-15.0,1650821959033162.0
-1.0,1.0,0.0,0.0,-5.0,-7.0,-6.0,-4.0,1650821959033162.0
-9.0,-2.0,-3.0,-2.0,0.0,1.0,3.0,-14.0,1650821959049342.0
5.0,-3.0,-4.0,-5.0,2.0,4.0,13.0,16.0,1650821959049342.0
0.0,4.0,2.0,-1.0,0.0,-2.0,-38.0,-38.0,1650821959050272.0
0.0,8.0,4.0,2.0,0.0,-2.0,-49.0,-53.0,1650821959050272.0
2.0,3.0,-1.0,-1.0,-2.0,-1.0,46.0,44.0,1650821959071283.0
-4.0,-8.0,-7.0,-5.0,-7.0,0.0,63.0,81.0,1650821959071283.0
4.0,-1.0,3.0,-1.0,-3.0,4.0,15.0,28.0,1650821959072212.0
-5.0,-1.0,-5.0,-4.0,3.0,1.0,-28.0,-34.0,1650821959072212.0
7.0,11.0,6.0,3.0,2.0,-6.0,-62.0,-76.0,1650821959085180.0
5.0,3.0,-1.0,1.0,1.0,0.0,8.0,21.0,1650821959085180.0
-4.0,9.0,-1.0,-2.0,-2.0,-1.0,42.0,43.0,1650821959093223.0
-4.0,-14.0,-5.0,-2.0,0.0,2.0,7.0,5.0,1650821959093223.0
-17.0,-31.0,-5.0,-2.0,-4.0,-7.0,-44.0,-68.0,1650821959108862.0
-5.0,-12.0,-4.0,-2.0,-2.0,-3.0,-12.0,-4.0,1650821959108862.0
15.0,-1.0,-3.0,0.0,1.0,2.0,8.0,48.0,1650821959109862.0
-8.0,7.0,1.0,-1.0,-4.0,-3.0,18.0,-50.0,1650821959109862.0
27.0,42.0,6.0,3.0,-1.0,4.0,15.0,40.0,1650821959131959.0
-19.0,4.0,-1.0,-3.0,2.0,0.0,-23.0,-35.0,1650821959131959.0
-5.0,-23.0,-5.0,-5.0,-4.0,-3.0,-12.0,-13.0,1650821959131959.0
-16.0,-24.0,-3.0,-2.0,-2.0,-1.0,9.0,20.0,1650821959131959.0
-1.0,-20.0,-4.0,2.0,4.0,3.0,12.0,20.0,1650821959144804.0
10.0,22.0,6.0,5.0,7.0,3.0,-9.0,0.0,1650821959144804.0
2.0,11.0,-1.0,1.0,-1.0,2.0,-4.0,8.0,1650821959153768.0
25.0,15.0,4.0,1.0,-5.0,0.0,9.0,-28.0,1650821959153768.0
-7.0,-4.0,-4.0,-3.0,-6.0,-2.0,4.0,6.0,1650821959168795.0
6.0,-3.0,-1.0,-3.0,0.0,0.0,-10.0,-4.0,1650821959168795.0
17.0,-2.0,0.0,1.0,2.0,-1.0,0.0,2.0,1650821959169727.0
-29.0,-4.0,1.0,2.0,1.0,-1.0,11.0,37.0,1650821959169727.0
-1.0,-5.0,-10.0,-3.0,0.0,3.0,2.0,-1.0,1650821959191966.0
-3.0,-9.0,-2.0,-4.0,-5.0,-6.0,-8.0,-18.0,1650821959191966.0
3.0,8.0,6.0,-1.0,-6.0,-5.0,-3.0,-13.0,1650821959192898.0
3.0,11.0,-2.0,0.0,3.0,3.0,2.0,5.0,1650821959192898.0
-4.0,0.0,2.0,0.0,0.0,1.0,3.0,9.0,1650821959204931.0
-5.0,-23.0,-6.0,-1.0,3.0,5.0,-1.0,4.0,1650821959204931.0
-6.0,12.0,-4.0,-4.0,0.0,-3.0,-11.0,-48.0,1650821959213789.0
7.0,-16.0,-1.0,-2.0,-3.0,-3.0,10.0,67.0,1650821959213789.0
-8.0,17.0,8.0,1.0,0.0,3.0,5.0,-7.0,1650821959228869.0
7.0,5.0,-6.0,-2.0,-2.0,-1.0,-5.0,8.0,1650821959228869.0
5.0,4.0,5.0,1.0,2.0,1.0,-3.0,-46.0,1650821959229802.0
0.0,-7.0,-4.0,-5.0,-3.0,-3.0,-2.0,12.0,1650821959229802.0
-4.0,-14.0,-1.0,2.0,0.0,-2.0,5.0,25.0,1650821959250896.0
-23.0,-8.0,-1.0,0.0,0.0,0.0,-9.0,-54.0,1650821959250896.0
22.0,1.0,-3.0,-1.0,-3.0,1.0,2.0,25.0,1650821959251895.0
-28.0,5.0,2.0,1.0,-1.0,-2.0,1.0,-6.0,1650821959251895.0
4.0,-1.0,-1.0,-4.0,-9.0,-7.0,-1.0,-2.0,1650821959274052.0
38.0,25.0,2.0,-2.0,2.0,-1.0,1.0,38.0,1650821959274052.0
-56.0,-7.0,4.0,10.0,10.0,7.0,1.0,-35.0,1650821959275022.0
-6.0,-8.0,-5.0,-1.0,-1.0,-2.0,-4.0,-20.0,1650821959275022.0
24.0,-7.0,2.0,2.0,1.0,3.0,2.0,13.0,1650821959289048.0
-10.0,-10.0,-6.0,-4.0,-8.0,-3.0,3.0,9.0,1650821959289048.0
12.0,6.0,-14.0,-5.0,-3.0,-6.0,-1.0,0.0,1650821959289983.0
11.0,16.0,2.0,2.0,2.0,4.0,1.0,4.0,1650821959289983.0
-40.0,-27.0,-5.0,-2.0,-4.0,-8.0,-9.0,-26.0,1650821959311264.0
1.0,-5.0,5.0,-1.0,0.0,2.0,-1.0,-2.0,1650821959311264.0
1.0,-4.0,-2.0,1.0,4.0,10.0,4.0,8.0,1650821959313193.0
14.0,9.0,0.0,-2.0,-2.0,-2.0,1.0,8.0,1650821959313193.0
9.0,17.0,2.0,4.0,3.0,-3.0,1.0,34.0,1650821959333914.0
3.0,-4.0,5.0,-1.0,-5.0,-4.0,-4.0,-32.0,1650821959333914.0
-7.0,-17.0,-6.0,1.0,2.0,-2.0,-1.0,2.0,1650821959335871.0
6.0,6.0,1.0,-8.0,-7.0,-2.0,-3.0,14.0,1650821959335871.0
4.0,4.0,-4.0,-2.0,-1.0,2.0,0.0,10.0,1650821959347880.0
-1.0,2.0,3.0,-1.0,-5.0,-6.0,-2.0,-5.0,1650821959347880.0
-11.0,11.0,5.0,0.0,-2.0,2.0,4.0,29.0,1650821959356788.0
17.0,-11.0,1.0,3.0,2.0,2.0,-6.0,-41.0,1650821959356788.0
2.0,-3.0,-9.0,-2.0,4.0,7.0,8.0,4.0,1650821959371893.0
-15.0,10.0,3.0,-1.0,-2.0,-7.0,-4.0,-2.0,1650821959371893.0
-20.0,-11.0,-5.0,-1.0,-4.0,-8.0,-5.0,-30.0,1650821959372868.0
21.0,11.0,4.0,4.0,3.0,3.0,1.0,24.0,1650821959372868.0
-19.0,9.0,7.0,5.0,4.0,10.0,5.0,0.0,1650821959394222.0
13.0,-7.0,-10.0,-3.0,0.0,0.0,-2.0,-28.0,1650821959394222.0
12.0,7.0,4.0,-1.0,-3.0,-1.0,-1.0,5.0,1650821959395223.0
-11.0,13.0,5.0,1.0,-3.0,0.0,4.0,18.0,1650821959395223.0
7.0,-8.0,1.0,-2.0,-5.0,-11.0,-8.0,-28.0,1650821959407302.0
-15.0,-17.0,-11.0,0.0,4.0,7.0,3.0,29.0,1650821959407302.0
7.0,-2.0,6.0,-2.0,-3.0,1.0,-1.0,-1.0,1650821959416330.0
7.0,10.0,8.0,7.0,-2.0,-7.0,-6.0,-13.0,1650821959416330.0
-4.0,6.0,-2.0,-8.0,-4.0,0.0,1.0,1.0,1650821959431415.0
-2.0,-2.0,-10.0,-10.0,0.0,3.0,1.0,12.0,1650821959431415.0
3.0,-10.0,-3.0,-4.0,-2.0,1.0,2.0,13.0,1650821959433344.0
0.0,-6.0,-11.0,-3.0,-1.0,-3.0,-1.0,-3.0,1650821959433344.0
-4.0,5.0,17.0,10.0,6.0,1.0,-2.0,8.0,1650821959453949.0
3.0,-9.0,-12.0,-1.0,-5.0,-5.0,-3.0,-15.0,1650821959453949.0
2.0,18.0,20.0,4.0,0.0,0.0,-3.0,4.0,1650821959455947.0
-7.0,-18.0,-12.0,0.0,1.0,3.0,2.0,6.0,1650821959455947.0
0.0,-5.0,-3.0,-1.0,1.0,-2.0,-7.0,-21.0,1650821959467807.0
6.0,7.0,0.0,0.0,-1.0,1.0,3.0,1.0,1650821959467807.0
-5.0,2.0,3.0,1.0,-1.0,-4.0,-1.0,1.0,1650821959476313.0
-5.0,-2.0,0.0,-5.0,-5.0,-1.0,0.0,-6.0,1650821959476313.0
2.0,2.0,-1.0,0.0,4.0,5.0,4.0,6.0,1650821959491433.0
-3.0,-7.0,0.0,1.0,0.0,-2.0,2.0,69.0,1650821959491433.0
11.0,-2.0,-13.0,0.0,0.0,4.0,-2.0,-53.0,1650821959493427.0
-1.0,-8.0,-1.0,-2.0,-3.0,-6.0,-2.0,13.0,1650821959493427.0
3.0,0.0,0.0,2.0,5.0,2.0,1.0,0.0,1650821959514355.0
13.0,4.0,-2.0,-2.0,1.0,4.0,-1.0,-1.0,1650821959514355.0
-27.0,-4.0,-1.0,0.0,-3.0,2.0,5.0,33.0,1650821959515804.0
13.0,-11.0,-17.0,-6.0,-2.0,-1.0,-4.0,-26.0,1650821959515804.0
-9.0,8.0,14.0,1.0,-13.0,-15.0,-4.0,8.0,1650821959528028.0
-2.0,4.0,12.0,4.0,0.0,1.0,-3.0,-18.0,1650821959528028.0
6.0,-6.0,-6.0,-6.0,1.0,7.0,0.0,9.0,1650821959536314.0
-2.0,1.0,-3.0,0.0,4.0,0.0,-3.0,-15.0,1650821959536314.0
2.0,-9.0,-9.0,-2.0,-6.0,-3.0,1.0,24.0,1650821959551341.0
-3.0,21.0,10.0,8.0,4.0,0.0,1.0,16.0,1650821959551341.0
-20.0,-7.0,-3.0,2.0,2.0,-9.0,0.0,-23.0,1650821959553271.0
42.0,2.0,0.0,-2.0,1.0,6.0,5.0,21.0,1650821959553271.0
4.0,7.0,-3.0,-3.0,-1.0,8.0,-1.0,-16.0,1650821959574383.0
-6.0,4.0,4.0,2.0,3.0,3.0,7.0,23.0,1650821959574383.0
8.0,-2.0,-11.0,-5.0,-5.0,-8.0,-8.0,-19.0,1650821959575383.0
-26.0,-15.0,6.0,3.0,4.0,-2.0,3.0,21.0,1650821959575383.0
10.0,-13.0,-5.0,1.0,-3.0,-2.0,2.0,-6.0,1650821959588513.0
18.0,23.0,13.0,2.0,-3.0,1.0,-1.0,-29.0,1650821959588513.0
12.0,19.0,1.0,0.0,5.0,6.0,1.0,25.0,1650821959595583.0
-24.0,-7.0,-3.0,0.0,4.0,3.0,5.0,-15.0,1650821959595583.0
14.0,-41.0,-14.0,-12.0,-10.0,-6.0,-8.0,5.0,1650821959611795.0
-42.0,-6.0,-3.0,-1.0,-1.0,-3.0,-1.0,-10.0,1650821959611795.0
4.0,-13.0,-1.0,4.0,6.0,4.0,0.0,-3.0,1650821959612748.0
7.0,25.0,4.0,-1.0,2.0,6.0,4.0,25.0,1650821959612748.0
-16.0,9.0,-1.0,0.0,2.0,2.0,-1.0,-19.0,1650821959633936.0
22.0,-16.0,-8.0,-3.0,-5.0,-5.0,0.0,-9.0,1650821959633936.0
9.0,19.0,7.0,-3.0,-6.0,-6.0,-4.0,-5.0,1650821959635892.0
-7.0,-5.0,-15.0,-1.0,2.0,2.0,-1.0,-20.0,1650821959635892.0
5.0,12.0,8.0,3.0,0.0,-1.0,3.0,29.0,1650821959648011.0
-27.0,-33.0,-4.0,-2.0,-7.0,-9.0,-11.0,-52.0,1650821959648011.0
-13.0,-15.0,-5.0,-1.0,-1.0,2.0,2.0,16.0,1650821959656977.0
-1.0,3.0,3.0,1.0,-2.0,-4.0,-9.0,-7.0,1650821959656977.0
3.0,23.0,-3.0,-5.0,-2.0,-3.0,3.0,-14.0,1650821959671152.0
11.0,5.0,-2.0,-6.0,-3.0,-2.0,-3.0,43.0,1650821959671152.0
-11.0,-6.0,-3.0,-2.0,2.0,4.0,3.0,-14.0,1650821959673080.0
-4.0,-22.0,4.0,5.0,4.0,2.0,0.0,-7.0,1650821959673080.0
8.0,10.0,4.0,0.0,-2.0,-2.0,-1.0,4.0,1650821959694379.0
-7.0,8.0,2.0,-2.0,-3.0,-2.0,0.0,-2.0,1650821959694379.0
-14.0,-18.0,-10.0,-1.0,2.0,0.0,4.0,41.0,1650821959695830.0
42.0,21.0,2.0,-2.0,-5.0,-2.0,-3.0,-23.0,1650821959695830.0
-55.0,-14.0,-11.0,-1.0,6.0,0.0,3.0,9.0,1650821959707928.0
1.0,-1.0,1.0,4.0,2.0,9.0,-2.0,-14.0,1650821959707928.0
14.0,7.0,15.0,0.0,-4.0,0.0,0.0,4.0,1650821959717012.0
-16.0,-9.0,-9.0,-5.0,-2.0,-3.0,0.0,7.0,1650821959717012.0
10.0,-4.0,-3.0,-3.0,-2.0,-4.0,-5.0,-2.0,1650821959731203.0
3.0,17.0,-6.0,0.0,-1.0,-8.0,-2.0,-7.0,1650821959731203.0
1.0,-11.0,-6.0,-6.0,-7.0,-2.0,0.0,26.0,1650821959733155.0
-10.0,-6.0,2.0,2.0,-1.0,1.0,0.0,-15.0,1650821959733155.0
9.0,1.0,-3.0,0.0,0.0,2.0,1.0,33.0,1650821959754403.0
6.0,6.0,5.0,1.0,4.0,3.0,-3.0,-46.0,1650821959754403.0
-8.0,3.0,-2.0,-2.0,0.0,1.0,2.0,7.0,1650821959755802.0
3.0,-6.0,6.0,2.0,0.0,0.0,2.0,7.0,1650821959755802.0
16.0,12.0,8.0,-4.0,-10.0,-9.0,-4.0,-7.0,1650821959767938.0
0.0,-4.0,-3.0,1.0,1.0,-2.0,2.0,10.0,1650821959767938.0
10.0,-4.0,4.0,6.0,2.0,1.0,0.0,-15.0,1650821959776870.0
-17.0,-5.0,-1.0,-3.0,-6.0,-1.0,0.0,4.0,1650821959776870.0
-8.0,4.0,0.0,5.0,4.0,1.0,-3.0,-15.0,1650821959791314.0
13.0,-3.0,-4.0,-4.0,-1.0,2.0,4.0,27.0,1650821959791314.0
7.0,2.0,-1.0,-1.0,-3.0,0.0,-6.0,-19.0,1650821959793245.0
-11.0,5.0,4.0,0.0,-1.0,0.0,2.0,12.0,1650821959793245.0
-4.0,-10.0,2.0,6.0,3.0,3.0,1.0,-9.0,1650821959814393.0
9.0,2.0,-12.0,-12.0,-8.0,-5.0,-2.0,5.0,1650821959814393.0
-2.0,2.0,-6.0,-1.0,2.0,-4.0,0.0,1.0,1650821959815366.0
-3.0,1.0,3.0,2.0,1.0,2.0,2.0,-3.0,1650821959815366.0
3.0,12.0,14.0,4.0,-1.0,-1.0,1.0,23.0,1650821959828027.0
-3.0,-17.0,-6.0,4.0,7.0,8.0,1.0,-22.0,1650821959828027.0
-2.0,0.0,-4.0,-3.0,-3.0,-9.0,0.0,12.0,1650821959837115.0
4.0,15.0,8.0,-6.0,-7.0,-6.0,-11.0,-29.0,1650821959837115.0
14.0,-8.0,-5.0,1.0,6.0,9.0,3.0,-4.0,1650821959851397.0
-39.0,-1.0,-2.0,-1.0,-5.0,-4.0,-3.0,-9.0,1650821959851397.0
49.0,12.0,1.0,-1.0,-1.0,-2.0,0.0,-25.0,1650821959853326.0
-21.0,-20.0,-11.0,-3.0,-2.0,-7.0,-2.0,25.0,1650821959853326.0
-1.0,-1.0,-1.0,-3.0,-2.0,-5.0,-2.0,-14.0,1650821959873993.0
2.0,0.0,2.0,4.0,3.0,2.0,-1.0,1.0,1650821959873993.0
-12.0,4.0,7.0,1.0,-1.0,10.0,1.0,-1.0,1650821959875921.0
4.0,18.0,3.0,-6.0,0.0,2.0,2.0,16.0,1650821959875921.0
11.0,-4.0,-10.0,-6.0,-6.0,-2.0,-2.0,-18.0,1650821959888061.0
4.0,9.0,6.0,3.0,-3.0,-12.0,-2.0,15.0,1650821959888061.0
-13.0,0.0,-2.0,-6.0,-7.0,-8.0,-2.0,7.0,1650821959897046.0
6.0,-7.0,-1.0,-1.0,-1.0,0.0,0.0,-3.0,1650821959897046.0
-14.0,-1.0,-2.0,4.0,-3.0,-1.0,1.0,0.0,1650821959912004.0
1.0,-2.0,11.0,7.0,10.0,5.0,5.0,2.0,1650821959912004.0
9.0,8.0,2.0,1.0,5.0,7.0,-1.0,1.0,1650821959913008.0
-7.0,8.0,3.0,-3.0,-2.0,-1.0,-2.0,-15.0,1650821959913008.0
5.0,-12.0,-8.0,-3.0,-2.0,-2.0,-2.0,3.0,1650821959934378.0
-11.0,-14.0,-5.0,-1.0,-3.0,-4.0,0.0,1.0,1650821959934378.0
-26.0,-10.0,7.0,0.0,-4.0,-5.0,-8.0,-21.0,1650821959935810.0
15.0,7.0,13.0,9.0,9.0,6.0,2.0,26.0,1650821959935810.0
-2.0,18.0,8.0,3.0,1.0,0.0,4.0,13.0,1650821959947994.0
19.0,-5.0,-2.0,-4.0,-5.0,2.0,-4.0,-26.0,1650821959947994.0
-14.0,5.0,-8.0,-6.0,-3.0,-2.0,-1.0,-8.0,1650821959956200.0
2.0,-9.0,-10.0,0.0,5.0,1.0,0.0,11.0,1650821959956200.0
17.0,4.0,9.0,3.0,2.0,0.0,-5.0,-5.0,1650821959971891.0
-1.0,-17.0,-15.0,1.0,4.0,7.0,4.0,-1.0,1650821959971891.0
1.0,0.0,-5.0,-8.0,-8.0,-5.0,0.0,27.0,1650821959972890.0
-12.0,13.0,-1.0,0.0,-5.0,-6.0,-7.0,-74.0,1650821959972890.0
-11.0,-23.0,-4.0,0.0,2.0,3.0,3.0,15.0,1650821960001881.0
12.0,8.0,-1.0,-4.0,-1.0,-5.0,-3.0,2.0,1650821960001881.0
-1.0,-7.0,0.0,5.0,4.0,8.0,0.0,-7.0,1650821960002878.0
2.0,-4.0,-2.0,1.0,5.0,9.0,4.0,30.0,1650821960002878.0
-3.0,10.0,0.0,-6.0,0.0,4.0,-1.0,-1.0,1650821960007891.0
-12.0,-5.0,0.0,5.0,1.0,-4.0,4.0,3.0,1650821960007891.0
-8.0,-2.0,0.0,-2.0,-11.0,-13.0,-6.0,-44.0,1650821960023975.0
21.0,-10.0,0.0,-1.0,-2.0,-3.0,-3.0,0.0,1650821960023975.0
-1.0,2.0,-5.0,0.0,4.0,3.0,-1.0,-15.0,1650821960031957.0
-3.0,-1.0,5.0,-6.0,-5.0,-4.0,-2.0,15.0,1650821960031957.0
11.0,23.0,3.0,3.0,4.0,0.0,4.0,26.0,1650821960032954.0
-18.0,-28.0,-10.0,-1.0,-6.0,-3.0,-1.0,-42.0,1650821960032954.0
-9.0,-11.0,-8.0,2.0,2.0,0.0,0.0,-10.0,1650821960053934.0
7.0,17.0,13.0,6.0,2.0,-1.0,-1.0,21.0,1650821960053934.0
-2.0,-34.0,-14.0,-7.0,2.0,6.0,2.0,-6.0,1650821960055931.0
8.0,0.0,10.0,-1.0,-6.0,-5.0,1.0,8.0,1650821960055931.0
-3.0,1.0,-3.0,-4.0,-6.0,-11.0,-3.0,13.0,1650821960068006.0
-5.0,2.0,-3.0,-1.0,-1.0,4.0,1.0,-12.0,1650821960068006.0
21.0,-10.0,-5.0,3.0,7.0,14.0,7.0,32.0,1650821960077110.0
-4.0,17.0,11.0,4.0,1.0,-1.0,0.0,20.0,1650821960077110.0
-6.0,-11.0,-11.0,-5.0,-3.0,-4.0,-2.0,-9.0,1650821960091285.0
3.0,11.0,9.0,-2.0,-9.0,-9.0,-4.0,23.0,1650821960091285.0
-4.0,-8.0,-6.0,0.0,1.0,-3.0,-2.0,-17.0,1650821960093309.0
0.0,-1.0,0.0,-1.0,3.0,1.0,1.0,25.0,1650821960093309.0
14.0,8.0,2.0,2.0,0.0,5.0,5.0,2.0,1650821960114353.0
-6.0,8.0,2.0,2.0,2.0,3.0,-2.0,-13.0,1650821960114353.0
-9.0,-21.0,-14.0,-1.0,-3.0,-5.0,-2.0,13.0,1650821960115802.0
4.0,13.0,11.0,0.0,-2.0,-3.0,-2.0,-13.0,1650821960115802.0
-31.0,-15.0,-15.0,-4.0,-3.0,-2.0,-5.0,-25.0,1650821960127834.0
24.0,-6.0,-2.0,-1.0,3.0,4.0,1.0,-3.0,1650821960127834.0
2.0,-1.0,0.0,-3.0,-8.0,-5.0,-2.0,-1.0,1650821960136915.0
-16.0,9.0,0.0,-4.0,-1.0,-2.0,2.0,-5.0,1650821960136915.0
2.0,-7.0,3.0,-1.0,1.0,3.0,2.0,7.0,1650821960151094.0
4.0,-5.0,-2.0,-3.0,-2.0,-1.0,3.0,18.0,1650821960151094.0
-23.0,9.0,5.0,-4.0,-3.0,-7.0,-9.0,-47.0,1650821960153036.0
5.0,-6.0,-8.0,-2.0,-1.0,0.0,2.0,15.0,1650821960153036.0
8.0,6.0,-1.0,0.0,-1.0,5.0,4.0,12.0,1650821960174303.0
-6.0,0.0,5.0,4.0,4.0,-2.0,-3.0,-18.0,1650821960174303.0
-7.0,-1.0,6.0,6.0,9.0,9.0,1.0,-7.0,1650821960175242.0
3.0,-2.0,-2.0,-3.0,-3.0,2.0,1.0,5.0,1650821960175242.0
-11.0,-4.0,-11.0,-1.0,2.0,-1.0,2.0,3.0,1650821960187271.0
23.0,14.0,4.0,-5.0,-12.0,-11.0,-7.0,-26.0,1650821960187271.0
18.0,2.0,3.0,4.0,2.0,-6.0,1.0,18.0,1650821960197130.0
-13.0,-14.0,-10.0,-8.0,-1.0,3.0,-1.0,-15.0,1650821960197130.0
8.0,2.0,10.0,8.0,0.0,2.0,0.0,35.0,1650821960211287.0
-18.0,4.0,-8.0,6.0,10.0,9.0,5.0,-11.0,1650821960211287.0
-2.0,5.0,9.0,-8.0,-7.0,-6.0,-2.0,16.0,1650821960213240.0
14.0,0.0,-8.0,-4.0,-1.0,0.0,2.0,9.0,1650821960213240.0
-6.0,-5.0,-9.0,-5.0,-3.0,-6.0,-4.0,3.0,1650821960234010.0
-8.0,8.0,5.0,0.0,-1.0,2.0,8.0,21.0,1650821960234010.0
-8.0,1.0,4.0,7.0,-2.0,0.0,-5.0,-31.0,1650821960235965.0
36.0,0.0,8.0,8.0,1.0,-2.0,0.0,1.0,1650821960235965.0
-35.0,11.0,4.0,-4.0,1.0,1.0,-3.0,-22.0,1650821960256911.0
-7.0,-14.0,-6.0,-8.0,-7.0,-9.0,-5.0,-2.0,1650821960256911.0
0.0,2.0,-11.0,3.0,6.0,11.0,3.0,14.0,1650821960257911.0
-14.0,5.0,9.0,2.0,-1.0,0.0,-2.0,3.0,1650821960257911.0
18.0,10.0,5.0,8.0,5.0,3.0,3.0,3.0,1650821960270937.0
-22.0,-11.0,-4.0,-7.0,0.0,-1.0,-4.0,-59.0,1650821960270937.0
25.0,12.0,6.0,1.0,-5.0,-9.0,1.0,28.0,1650821960278029.0
-14.0,-18.0,-13.0,7.0,2.0,4.0,-3.0,-7.0,1650821960278029.0
11.0,30.0,28.0,-12.0,-7.0,-5.0,-2.0,-13.0,1650821960292931.0
-14.0,-8.0,-7.0,-3.0,1.0,2.0,0.0,21.0,1650821960292931.0
7.0,-6.0,-3.0,-5.0,-1.0,-1.0,1.0,35.0,1650821960308812.0
3.0,4.0,7.0,6.0,1.0,0.0,-5.0,-53.0,1650821960308812.0
4.0,-20.0,-1.0,13.0,5.0,4.0,5.0,12.0,1650821960316880.0
4.0,-11.0,-7.0,-12.0,-5.0,-3.0,-4.0,2.0,1650821960316880.0
-17.0,3.0,-8.0,-7.0,-9.0,-8.0,-5.0,-10.0,1650821960317833.0
-8.0,-5.0,-7.0,-2.0,-1.0,0.0,3.0,26.0,1650821960317833.0
11.0,12.0,0.0,-5.0,-2.0,-4.0,-3.0,-8.0,1650821960331881.0
2.0,-20.0,-16.0,8.0,7.0,10.0,4.0,3.0,1650821960331881.0
10.0,-6.0,-7.0,-5.0,-1.0,-3.0,0.0,-20.0,1650821960332826.0
-24.0,5.0,2.0,-4.0,-1.0,-1.0,5.0,20.0,1650821960332826.0
0.0,-4.0,6.0,5.0,4.0,0.0,-1.0,-11.0,1650821960353858.0
12.0,1.0,4.0,-5.0,-1.0,-2.0,-1.0,-2.0,1650821960353858.0
7.0,7.0,6.0,2.0,0.0,6.0,0.0,14.0,1650821960355812.0
4.0,1.0,-2.0,-3.0,-1.0,-1.0,1.0,5.0,1650821960355812.0
-8.0,-4.0,-14.0,-6.0,-3.0,-3.0,-1.0,-10.0,1650821960376925.0
12.0,-2.0,-10.0,4.0,-5.0,-4.0,-1.0,17.0,1650821960376925.0
-7.0,-11.0,18.0,0.0,3.0,1.0,4.0,-1.0,1650821960377899.0
-5.0,10.0,7.0,2.0,1.0,1.0,-3.0,-15.0,1650821960377899.0
-1.0,-11.0,-27.0,-15.0,-6.0,-6.0,-3.0,4.0,1650821960390943.0
-5.0,5.0,3.0,2.0,-5.0,-5.0,-4.0,-11.0,1650821960390943.0
0.0,5.0,14.0,6.0,1.0,0.0,1.0,-11.0,1650821960397925.0
-7.0,-14.0,-14.0,1.0,0.0,-1.0,-3.0,2.0,1650821960397925.0
3.0,0.0,3.0,1.0,-1.0,-3.0,1.0,3.0,1650821960414086.0
-1.0,6.0,5.0,2.0,-1.0,2.0,0.0,-1.0,1650821960414086.0
-4.0,2.0,6.0,15.0,3.0,-1.0,0.0,-1.0,1650821960415114.0
1.0,6.0,-8.0,-19.0,-6.0,-5.0,-1.0,6.0,1650821960415114.0
-1.0,-2.0,3.0,2.0,6.0,6.0,3.0,-6.0,1650821960436193.0
-2.0,2.0,1.0,-5.0,1.0,5.0,0.0,-2.0,1650821960436193.0
-5.0,-2.0,-1.0,-1.0,-3.0,-3.0,-1.0,-6.0,1650821960438122.0
4.0,3.0,3.0,15.0,0.0,-6.0,0.0,4.0,1650821960438122.0
-1.0,-3.0,0.0,6.0,6.0,3.0,2.0,-4.0,1650821960451153.0
1.0,3.0,14.0,-6.0,7.0,12.0,3.0,2.0,1650821960451153.0
-1.0,7.0,-4.0,-1.0,2.0,-5.0,-2.0,-1.0,1650821960458002.0
-2.0,-12.0,-19.0,-16.0,-15.0,-10.0,-4.0,-3.0,1650821960458002.0
0.0,-5.0,5.0,6.0,0.0,2.0,0.0,-2.0,1650821960474353.0
-2.0,5.0,4.0,6.0,3.0,-2.0,0.0,2.0,1650821960474353.0
-1.0,0.0,-9.0,-5.0,0.0,0.0,0.0,-2.0,1650821960475806.0
1.0,4.0,6.0,3.0,-1.0,-2.0,1.0,3.0,1650821960475806.0
-1.0,2.0,9.0,7.0,-6.0,-2.0,-1.0,-3.0,1650821960496963.0
0.0,0.0,-8.0,-6.0,0.0,-6.0,0.0,-1.0,1650821960496963.0
-3.0,-4.0,-12.0,-9.0,-1.0,9.0,3.0,-3.0,1650821960497962.0
5.0,3.0,8.0,10.0,11.0,13.0,3.0,4.0,1650821960497962.0
-4.0,-4.0,-3.0,-17.0,-5.0,-6.0,-5.0,-5.0,1650821960509997.0
-2.0,0.0,4.0,4.0,-8.0,-7.0,-2.0,1.0,1650821960509997.0
-2.0,2.0,3.0,3.0,1.0,-2.0,2.0,0.0,1650821960518917.0
2.0,1.0,2.0,5.0,7.0,3.0,0.0,1.0,1650821960518917.0
-1.0,7.0,5.0,1.0,-3.0,2.0,1.0,-2.0,1650821960533933.0
-7.0,-10.0,-29.0,-23.0,-16.0,-13.0,-5.0,-4.0,1650821960533933.0
-2.0,-1.0,1.0,2.0,-2.0,-3.0,0.0,0.0,1650821960535890.0
0.0,0.0,-6.0,1.0,5.0,3.0,-1.0,1.0,1650821960535890.0
-1.0,-6.0,10.0,-5.0,1.0,0.0,-3.0,-2.0,1650821960556913.0
3.0,-1.0,2.0,4.0,1.0,-1.0,2.0,2.0,1650821960556913.0
0.0,-4.0,-11.0,-5.0,1.0,0.0,1.0,2.0,1650821960557913.0
-6.0,-5.0,-7.0,-13.0,-16.0,-22.0,-7.0,-4.0,1650821960557913.0
1.0,-1.0,-6.0,-6.0,4.0,7.0,0.0,-2.0,1650821960578869.0
0.0,2.0,13.0,11.0,8.0,16.0,3.0,1.0,1650821960578869.0
0.0,0.0,11.0,7.0,-2.0,0.0,1.0,0.0,1650821960580893.0
2.0,0.0,4.0,1.0,3.0,0.0,2.0,1.0,1650821960580893.0
-2.0,-3.0,-1.0,1.0,-2.0,-6.0,-3.0,-3.0,1650821960594378.0
0.0,2.0,2.0,0.0,0.0,0.0,0.0,0.0,1650821960594378.0
-1.0,1.0,-3.0,0.0,-1.0,1.0,-3.0,-1.0,1650821960595844.0
2.0,1.0,-1.0,-4.0,-3.0,0.0,0.0,0.0,1650821960595844.0
-7.0,-1.0,1.0,5.0,-2.0,-3.0,0.0,0.0,1650821960616029.0
9.0,2.0,1.0,-2.0,-1.0,0.0,-1.0,0.0,1650821960616029.0
-4.0,0.0,5.0,5.0,-3.0,-6.0,-2.0,-1.0,1650821960618040.0
-1.0,-2.0,-7.0,-6.0,-1.0,1.0,-2.0,-1.0,1650821960618040.0
-1.0,-1.0,-10.0,0.0,-3.0,-2.0,-1.0,-4.0,1650821960631059.0
-5.0,4.0,7.0,2.0,1.0,1.0,1.0,2.0,1650821960631059.0
10.0,2.0,-2.0,1.0,2.0,-4.0,0.0,-2.0,1650821960638057.0
0.0,0.0,2.0,-3.0,3.0,3.0,-1.0,2.0,1650821960638057.0
1.0,-2.0,0.0,1.0,-1.0,4.0,1.0,-2.0,1650821960654079.0
-1.0,-2.0,-2.0,-5.0,-6.0,-9.0,-2.0,-3.0,1650821960654079.0
-5.0,-1.0,-1.0,-5.0,-7.0,-5.0,-2.0,-2.0,1650821960655080.0
2.0,2.0,7.0,8.0,1.0,-2.0,2.0,1.0,1650821960655080.0
3.0,1.0,2.0,5.0,11.0,15.0,3.0,2.0,1650821960676853.0
-5.0,-7.0,-3.0,0.0,4.0,8.0,2.0,4.0,1650821960676853.0
-5.0,-3.0,-5.0,-4.0,-3.0,-2.0,-2.0,-1.0,1650821960678099.0
-1.0,-3.0,1.0,-4.0,-5.0,-6.0,-4.0,-3.0,1650821960678099.0
-2.0,-3.0,-7.0,-7.0,-7.0,-11.0,-1.0,-1.0,1650821960690258.0
-3.0,-2.0,-9.0,-4.0,-5.0,-6.0,-2.0,-5.0,1650821960690258.0
-2.0,0.0,-4.0,-5.0,2.0,4.0,0.0,-1.0,1650821960698855.0
2.0,0.0,1.0,3.0,4.0,9.0,2.0,2.0,1650821960698855.0
2.0,3.0,3.0,-1.0,3.0,5.0,2.0,2.0,1650821960713965.0
2.0,2.0,0.0,3.0,1.0,-3.0,0.0,1.0,1650821960713965.0
-3.0,-7.0,-9.0,-7.0,-3.0,-3.0,-1.0,-1.0,1650821960715989.0
-2.0,1.0,7.0,0.0,-3.0,-1.0,0.0,0.0,1650821960715989.0
1.0,-1.0,-2.0,2.0,-3.0,-5.0,-3.0,-1.0,1650821960736853.0
-6.0,3.0,5.0,3.0,-1.0,-2.0,-1.0,-2.0,1650821960736853.0
9.0,2.0,0.0,-1.0,2.0,4.0,0.0,0.0,1650821960737986.0
-2.0,-1.0,11.0,10.0,1.0,2.0,1.0,-2.0,1650821960737986.0
2.0,-2.0,-14.0,-11.0,1.0,-2.0,0.0,0.0,1650821960749872.0
-5.0,-2.0,-8.0,-5.0,-4.0,-3.0,-3.0,-3.0,1650821960749872.0
-5.0,1.0,6.0,3.0,-6.0,-11.0,-3.0,-2.0,1650821960758887.0
-2.0,-7.0,-7.0,-3.0,-1.0,5.0,0.0,-1.0,1650821960758887.0
1.0,1.0,4.0,2.0,-5.0,1.0,0.0,0.0,1650821960774127.0
3.0,-1.0,3.0,4.0,5.0,-1.0,0.0,-1.0,1650821960774127.0
2.0,1.0,2.0,4.0,11.0,5.0,2.0,-1.0,1650821960775135.0
-6.0,2.0,-6.0,-7.0,-2.0,-5.0,-3.0,0.0,1650821960775135.0
-2.0,0.0,1.0,0.0,-7.0,-7.0,-2.0,-2.0,1650821960796935.0
1.0,-2.0,-5.0,-3.0,-3.0,1.0,1.0,3.0,1650821960796935.0
0.0,1.0,3.0,2.0,2.0,3.0,0.0,-1.0,1650821960797948.0
2.0,1.0,-3.0,-2.0,1.0,-3.0,-1.0,0.0,1650821960797948.0
0.0,0.0,-1.0,-7.0,-1.0,-3.0,-2.0,0.0,1650821960810068.0
-1.0,0.0,6.0,6.0,1.0,3.0,0.0,-2.0,1650821960810068.0
-6.0,0.0,6.0,5.0,0.0,1.0,1.0,1.0,1650821960819064.0
5.0,1.0,-8.0,-4.0,0.0,-2.0,-1.0,0.0,1650821960819064.0
-2.0,0.0,1.0,-1.0,2.0,3.0,-2.0,-1.0,1650821960834352.0
2.0,1.0,-4.0,-6.0,0.0,-2.0,0.0,0.0,1650821960834352.0
-4.0,-1.0,5.0,3.0,-3.0,-3.0,-2.0,0.0,1650821960835805.0
-5.0,-5.0,-12.0,-10.0,-6.0,-1.0,0.0,-1.0,1650821960835805.0
2.0,2.0,9.0,11.0,5.0,1.0,0.0,1.0,1650821960856962.0
1.0,-4.0,-5.0,-3.0,-1.0,-1.0,0.0,0.0,1650821960856962.0
-1.0,-2.0,-4.0,-3.0,-2.0,-1.0,-1.0,-1.0,1650821960857961.0
1.0,1.0,-1.0,-1.0,-1.0,-1.0,-1.0,1.0,1650821960857961.0
-2.0,-3.0,3.0,2.0,1.0,2.0,0.0,-1.0,1650821960869948.0
-2.0,1.0,8.0,4.0,-4.0,-10.0,-3.0,-2.0,1650821960869948.0
5.0,1.0,-2.0,-2.0,-2.0,5.0,1.0,1.0,1650821960878858.0
2.0,3.0,-2.0,-1.0,6.0,6.0,2.0,0.0,1650821960878858.0
-3.0,-3.0,0.0,-2.0,1.0,-1.0,0.0,1.0,1650821960894381.0
0.0,1.0,5.0,1.0,5.0,1.0,-2.0,0.0,1650821960894381.0
-1.0,1.0,-1.0,-3.0,-3.0,-5.0,-3.0,-1.0,1650821960895361.0
2.0,0.0,-2.0,-2.0,-8.0,-6.0,-1.0,-2.0,1650821960895361.0
-2.0,-5.0,-8.0,-3.0,-6.0,-7.0,-2.0,-3.0,1650821960923803.0
-1.0,-1.0,3.0,4.0,4.0,9.0,2.0,-1.0,1650821960923803.0
3.0,0.0,-3.0,-2.0,4.0,1.0,2.0,0.0,1650821960925830.0
-3.0,-4.0,1.0,-3.0,-3.0,-1.0,-1.0,-1.0,1650821960925830.0
-1.0,-4.0,0.0,2.0,-2.0,-2.0,-1.0,-1.0,1650821960929817.0
4.0,3.0,5.0,7.0,3.0,2.0,3.0,0.0,1650821960929817.0
-4.0,-1.0,2.0,3.0,4.0,5.0,1.0,-1.0,1650821960938798.0
-1.0,-2.0,-6.0,-2.0,0.0,2.0,-1.0,-1.0,1650821960938798.0
-2.0,0.0,0.0,-1.0,-6.0,-6.0,-3.0,-2.0,1650821960954170.0
1.0,-1.0,-3.0,-4.0,-3.0,-4.0,1.0,0.0,1650821960954170.0
0.0,2.0,1.0,1.0,1.0,8.0,2.0,0.0,1650821960955833.0
-2.0,1.0,5.0,5.0,6.0,5.0,0.0,0.0,1650821960955833.0
-4.0,1.0,-7.0,-8.0,1.0,-3.0,0.0,-2.0,1650821960976955.0
7.0,-2.0,-3.0,1.0,-7.0,-7.0,-3.0,-2.0,1650821960976955.0
-2.0,1.0,-3.0,-5.0,-4.0,-7.0,-1.0,-1.0,1650821960977955.0
0.0,0.0,2.0,0.0,-4.0,-3.0,-1.0,-1.0,1650821960977955.0
-3.0,2.0,7.0,9.0,4.0,8.0,1.0,3.0,1650821960990524.0
-2.0,-3.0,0.0,0.0,4.0,4.0,4.0,2.0,1650821960990524.0
-1.0,-1.0,-5.0,-4.0,-2.0,-3.0,-3.0,0.0,1650821960999449.0
1.0,-9.0,-7.0,-9.0,-4.0,-5.0,-2.0,-2.0,1650821960999449.0
-2.0,3.0,4.0,7.0,-2.0,0.0,-2.0,1.0,1650821961013544.0
-4.0,-4.0,-2.0,-4.0,-6.0,-3.0,-2.0,-1.0,1650821961013544.0
3.0,-1.0,-1.0,-5.0,0.0,-3.0,-2.0,-2.0,1650821961015546.0
0.0,2.0,7.0,9.0,7.0,5.0,2.0,1.0,1650821961015546.0
4.0,2.0,-2.0,-4.0,-2.0,-4.0,1.0,2.0,1650821961036701.0
-2.0,0.0,-7.0,-8.0,-4.0,0.0,-1.0,-1.0,1650821961036701.0
-2.0,2.0,1.0,4.0,1.0,5.0,-1.0,-1.0,1650821961037659.0
-1.0,-1.0,9.0,10.0,2.0,2.0,-1.0,-1.0,1650821961037659.0
3.0,-1.0,-3.0,-3.0,3.0,2.0,2.0,0.0,1650821961049800.0
-3.0,3.0,4.0,3.0,-4.0,-4.0,-1.0,0.0,1650821961049800.0
-1.0,-3.0,-10.0,-10.0,-8.0,-9.0,-4.0,0.0,1650821961058830.0
0.0,-1.0,1.0,1.0,0.0,2.0,0.0,-2.0,1650821961058830.0
1.0,-3.0,2.0,2.0,0.0,3.0,-1.0,-1.0,1650821961073857.0
0.0,-2.0,-6.0,-6.0,-1.0,1.0,0.0,-1.0,1650821961073857.0
-6.0,1.0,-2.0,0.0,-2.0,-4.0,0.0,-1.0,1650821961075812.0
15.0,1.0,1.0,2.0,-4.0,-5.0,-3.0,-1.0,1650821961075812.0
-13.0,-3.0,-4.0,-4.0,0.0,-1.0,-1.0,-3.0,1650821961096908.0
-3.0,-1.0,-2.0,-3.0,2.0,-1.0,-1.0,-1.0,1650821961096908.0
0.0,-2.0,3.0,2.0,5.0,8.0,2.0,0.0,1650821961097824.0
-4.0,1.0,-3.0,-1.0,2.0,0.0,0.0,0.0,1650821961097824.0
3.0,-2.0,0.0,-3.0,-6.0,-5.0,-2.0,1.0,1650821961109932.0
1.0,2.0,0.0,3.0,3.0,0.0,-1.0,0.0,1650821961109932.0
0.0,-4.0,0.0,-3.0,-4.0,-8.0,-1.0,0.0,1650821961118813.0
-2.0,-1.0,2.0,2.0,-1.0,5.0,1.0,-1.0,1650821961118813.0
4.0,1.0,-5.0,-7.0,0.0,5.0,0.0,-1.0,1650821961134602.0
-2.0,4.0,3.0,2.0,-2.0,0.0,-3.0,-1.0,1650821961134602.0
3.0,-3.0,0.0,-3.0,-1.0,-3.0,-3.0,-1.0,1650821961135560.0
-3.0,1.0,5.0,8.0,-1.0,-7.0,-2.0,-1.0,1650821961135560.0
2.0,-2.0,-1.0,0.0,-1.0,1.0,-1.0,-1.0,1650821961156858.0
6.0,1.0,3.0,4.0,7.0,6.0,3.0,-2.0,1650821961156858.0
1.0,0.0,-6.0,-4.0,3.0,3.0,3.0,-1.0,1650821961157788.0
-2.0,0.0,-1.0,-2.0,-6.0,-7.0,-3.0,0.0,1650821961157788.0
-1.0,0.0,-3.0,-4.0,-4.0,-7.0,-3.0,-2.0,1650821961178974.0
-4.0,-1.0,0.0,-2.0,-4.0,-2.0,-1.0,0.0,1650821961178974.0
7.0,1.0,-3.0,0.0,3.0,4.0,-2.0,0.0,1650821961180929.0
-9.0,-3.0,0.0,0.0,2.0,3.0,3.0,-2.0,1650821961180929.0
0.0,0.0,-2.0,0.0,-2.0,0.0,0.0,0.0,1650821961193934.0
0.0,-4.0,-3.0,0.0,-2.0,-2.0,-1.0,-2.0,1650821961193934.0
-2.0,-1.0,1.0,2.0,-3.0,-4.0,-1.0,-3.0,1650821961195889.0
2.0,0.0,-5.0,-6.0,-4.0,-6.0,-1.0,1.0,1650821961195889.0
2.0,2.0,1.0,2.0,4.0,14.0,1.0,-1.0,1650821961216902.0
-4.0,-5.0,-1.0,-2.0,2.0,5.0,0.0,0.0,1650821961216902.0
-5.0,-2.0,1.0,1.0,-5.0,-3.0,-3.0,-1.0,1650821961217915.0
0.0,-1.0,2.0,1.0,-3.0,-7.0,-1.0,-2.0,1650821961217915.0
-1.0,-3.0,-2.0,-3.0,-2.0,-8.0,-1.0,1.0,1650821961238858.0
2.0,4.0,2.0,1.0,5.0,5.0,0.0,0.0,1650821961238858.0
-1.0,-1.0,2.0,5.0,7.0,8.0,3.0,0.0,1650821961240855.0
0.0,1.0,0.0,-3.0,-1.0,-1.0,-1.0,-2.0,1650821961240855.0
0.0,0.0,-3.0,-2.0,-3.0,-3.0,0.0,-1.0,1650821961253822.0
-1.0,1.0,-1.0,0.0,-3.0,3.0,1.0,1.0,1650821961253822.0
-2.0,-2.0,-3.0,-4.0,0.0,0.0,1.0,0.0,1650821961255842.0
-1.0,1.0,7.0,5.0,0.0,-3.0,-2.0,-1.0,1650821961255842.0
0.0,0.0,-8.0,-5.0,1.0,0.0,0.0,-3.0,1650821961276309.0
-1.0,-3.0,3.0,3.0,-2.0,-8.0,-2.0,-1.0,1650821961276309.0
2.0,0.0,-8.0,-5.0,-6.0,-4.0,-5.0,-2.0,1650821961278237.0
-14.0,-3.0,-6.0,-4.0,-2.0,2.0,0.0,1.0,1650821961278237.0
1.0,0.0,13.0,8.0,1.0,1.0,1.0,0.0,1650821961299151.0
-1.0,-2.0,-9.0,-9.0,2.0,4.0,1.0,-1.0,1650821961299151.0
0.0,0.0,2.0,7.0,2.0,2.0,1.0,0.0,1650821961300108.0
1.0,3.0,-4.0,-5.0,1.0,2.0,0.0,-1.0,1650821961300108.0
-3.0,-4.0,-1.0,-2.0,-4.0,-10.0,-4.0,-1.0,1650821961313114.0
-4.0,3.0,2.0,-1.0,-6.0,3.0,-1.0,-2.0,1650821961313114.0
2.0,0.0,1.0,2.0,5.0,3.0,4.0,0.0,1650821961327161.0
7.0,0.0,4.0,4.0,4.0,7.0,1.0,-2.0,1650821961327161.0
1.0,-2.0,1.0,3.0,1.0,0.0,2.0,0.0,1650821961336153.0
1.0,0.0,-3.0,1.0,-2.0,-7.0,-2.0,1.0,1650821961336153.0
-4.0,-1.0,-1.0,-5.0,-7.0,-10.0,-4.0,-1.0,1650821961338080.0
1.0,-2.0,-2.0,-1.0,-2.0,-2.0,0.0,-2.0,1650821961338080.0
0.0,1.0,3.0,4.0,3.0,2.0,1.0,0.0,1650821961359091.0
-1.0,-1.0,-2.0,0.0,3.0,3.0,1.0,-2.0,1650821961359091.0
-3.0,0.0,-3.0,-1.0,0.0,2.0,0.0,0.0,1650821961361019.0
0.0,1.0,-2.0,-3.0,0.0,-1.0,-1.0,1.0,1650821961361019.0
-1.0,-1.0,-2.0,-5.0,-8.0,-3.0,-2.0,-1.0,1650821961374053.0
0.0,-4.0,-3.0,-1.0,-2.0,-5.0,-1.0,0.0,1650821961374053.0
-1.0,1.0,7.0,3.0,1.0,3.0,2.0,-1.0,1650821961381965.0
2.0,0.0,3.0,5.0,2.0,3.0,1.0,-1.0,1650821961381965.0
-3.0,-2.0,-4.0,-5.0,2.0,-7.0,-9.0,-3.0,1650821961396074.0
-1.0,-2.0,2.0,6.0,-2.0,7.0,6.0,1.0,1650821961396074.0
-1.0,0.0,-4.0,-8.0,-4.0,0.0,3.0,0.0,1650821961398078.0
-1.0,-6.0,-7.0,-6.0,-1.0,0.0,0.0,0.0,1650821961398078.0
1.0,3.0,4.0,3.0,0.0,-3.0,4.0,0.0,1650821961419350.0
-1.0,0.0,-3.0,-3.0,-3.0,-9.0,-6.0,-2.0,1650821961419350.0
-1.0,-4.0,2.0,2.0,0.0,-2.0,-5.0,0.0,1650821961420282.0
0.0,1.0,-2.0,-4.0,0.0,7.0,7.0,2.0,1650821961420282.0
1.0,0.0,-2.0,3.0,1.0,-2.0,-2.0,0.0,1650821961433767.0
1.0,0.0,3.0,-2.0,-5.0,-5.0,-1.0,0.0,1650821961433767.0
0.0,1.0,0.0,0.0,-2.0,1.0,-2.0,0.0,1650821961439821.0
-1.0,2.0,0.0,0.0,-1.0,-4.0,-3.0,-1.0,1650821961439821.0
-1.0,-3.0,-1.0,-1.0,1.0,4.0,2.0,0.0,1650821961456903.0
0.0,1.0,0.0,-3.0,-1.0,1.0,2.0,1.0,1650821961456903.0
-1.0,-1.0,-2.0,-1.0,-4.0,-10.0,-2.0,-3.0,1650821961457915.0
1.0,-1.0,4.0,8.0,1.0,2.0,-2.0,-2.0,1650821961457915.0
0.0,-5.0,-5.0,-3.0,-1.0,4.0,1.0,1.0,1650821961479025.0
0.0,-4.0,0.0,2.0,5.0,5.0,1.0,0.0,1650821961479025.0
0.0,1.0,-3.0,-5.0,-1.0,-2.0,-1.0,1.0,1650821961480980.0
0.0,-1.0,-9.0,-11.0,-4.0,-6.0,-5.0,0.0,1650821961480980.0
0.0,3.0,1.0,0.0,1.0,3.0,3.0,2.0,1650821961492989.0
-3.0,-2.0,-4.0,-5.0,0.0,0.0,-3.0,-3.0,1650821961492989.0
-2.0,-2.0,3.0,5.0,-1.0,-2.0,-1.0,0.0,1650821961499969.0
0.0,1.0,-2.0,-2.0,-5.0,-4.0,-2.0,-1.0,1650821961499969.0
-2.0,3.0,1.0,-2.0,-2.0,2.0,-1.0,-2.0,1650821961516963.0
-1.0,1.0,3.0,4.0,0.0,-4.0,-6.0,-1.0,1650821961516963.0
-1.0,2.0,-5.0,-4.0,-1.0,2.0,1.0,0.0,1650821961517961.0
0.0,-1.0,2.0,4.0,4.0,-2.0,1.0,1.0,1650821961517961.0
0.0,-1.0,-3.0,-2.0,-3.0,4.0,1.0,0.0,1650821961539720.0
0.0,0.0,2.0,2.0,1.0,4.0,1.0,-1.0,1650821961539720.0
0.0,-1.0,1.0,4.0,5.0,3.0,2.0,1.0,1650821961540652.0
0.0,1.0,-3.0,-1.0,2.0,-5.0,0.0,0.0,1650821961540652.0
-1.0,-5.0,0.0,-2.0,-4.0,-6.0,-3.0,-2.0,1650821961553683.0
1.0,-1.0,-9.0,-7.0,-5.0,-1.0,2.0,0.0,1650821961553683.0
-1.0,-1.0,9.0,9.0,1.0,0.0,-3.0,-3.0,1650821961560627.0
-1.0,-1.0,2.0,1.0,2.0,0.0,-2.0,-1.0,1650821961560627.0
1.0,2.0,0.0,0.0,2.0,2.0,1.0,1.0,1650821961576906.0
-1.0,-1.0,-1.0,-1.0,-2.0,1.0,-4.0,-1.0,1650821961576906.0
0.0,-2.0,-8.0,-7.0,-3.0,-3.0,1.0,0.0,1650821961577906.0
-2.0,-1.0,-1.0,-4.0,-4.0,-1.0,-3.0,0.0,1650821961577906.0
0.0,-2.0,1.0,0.0,-3.0,-3.0,0.0,1.0,1650821961599037.0
0.0,-1.0,0.0,-2.0,-2.0,-3.0,0.0,1.0,1650821961599037.0
1.0,-2.0,-2.0,-1.0,-3.0,1.0,-1.0,0.0,1650821961600966.0
-1.0,-2.0,-6.0,-4.0,-1.0,3.0,2.0,1.0,1650821961600966.0
0.0,1.0,4.0,6.0,-2.0,-9.0,-4.0,-4.0,1650821961613000.0
-1.0,2.0,3.0,2.0,1.0,5.0,0.0,0.0,1650821961613000.0
1.0,2.0,2.0,-2.0,2.0,8.0,2.0,1.0,1650821961621923.0
-1.0,-2.0,3.0,3.0,1.0,4.0,-1.0,-2.0,1650821961621923.0
1.0,2.0,-7.0,-6.0,-3.0,-4.0,-2.0,1.0,1650821961636936.0
-2.0,-1.0,1.0,0.0,-3.0,-14.0,-1.0,-3.0,1650821961636936.0
-1.0,0.0,0.0,2.0,-3.0,2.0,1.0,0.0,1650821961637867.0
0.0,-5.0,-2.0,1.0,2.0,3.0,0.0,-1.0,1650821961637867.0
-3.0,-5.0,-3.0,-3.0,8.0,5.0,-5.0,-1.0,1650821961658862.0
3.0,0.0,6.0,8.0,3.0,4.0,8.0,3.0,1650821961658862.0
-2.0,-1.0,-2.0,-5.0,-4.0,-6.0,-2.0,0.0,1650821961660891.0
0.0,1.0,-3.0,-4.0,-6.0,-2.0,-1.0,-2.0,1650821961660891.0
2.0,-2.0,-5.0,-10.0,-4.0,-3.0,-1.0,-2.0,1650821961672997.0
-5.0,-2.0,15.0,19.0,2.0,-1.0,-5.0,-2.0,1650821961672997.0
-1.0,-1.0,-3.0,2.0,4.0,1.0,0.0,0.0,1650821961689112.0
1.0,0.0,3.0,4.0,1.0,0.0,2.0,-1.0,1650821961689112.0
-4.0,0.0,-6.0,-7.0,-8.0,-14.0,-1.0,-3.0,1650821961696159.0
0.0,0.0,-4.0,-7.0,1.0,6.0,-1.0,-2.0,1650821961696159.0
0.0,4.0,6.0,3.0,3.0,8.0,3.0,1.0,1650821961698088.0
0.0,-2.0,-1.0,1.0,2.0,-2.0,0.0,0.0,1650821961698088.0
0.0,0.0,1.0,1.0,3.0,5.0,1.0,0.0,1650821961719186.0
0.0,-2.0,-4.0,-6.0,-9.0,-12.0,-3.0,-2.0,1650821961719186.0
0.0,-3.0,0.0,-1.0,-3.0,-7.0,-3.0,-1.0,1650821961720147.0
0.0,5.0,-2.0,-2.0,3.0,9.0,-1.0,2.0,1650821961720147.0
5.0,-1.0,5.0,5.0,3.0,6.0,10.0,6.0,1650821961733118.0
-10.0,-5.0,-5.0,-6.0,-4.0,-4.0,-5.0,-3.0,1650821961733118.0
-3.0,-2.0,-1.0,-4.0,-3.0,-2.0,-5.0,0.0,1650821961742127.0
1.0,0.0,1.0,-1.0,0.0,2.0,6.0,1.0,1650821961742127.0
-3.0,-1.0,-1.0,0.0,1.0,-1.0,-1.0,-3.0,1650821961756911.0
3.0,5.0,-4.0,-4.0,-4.0,-12.0,-4.0,0.0,1650821961756911.0
1.0,-3.0,0.0,0.0,1.0,3.0,-2.0,-1.0,1650821961757922.0
-5.0,-3.0,-1.0,1.0,1.0,8.0,0.0,-1.0,1650821961757922.0
4.0,3.0,-2.0,1.0,3.0,-1.0,-2.0,-1.0,1650821961779202.0
2.0,-2.0,0.0,-1.0,0.0,-2.0,-1.0,-1.0,1650821961779202.0
-3.0,0.0,2.0,-1.0,-4.0,-7.0,2.0,-3.0,1650821961780131.0
4.0,-1.0,0.0,-3.0,-1.0,-2.0,3.0,2.0,1650821961780131.0
0.0,5.0,1.0,6.0,0.0,11.0,3.0,0.0,1650821961793104.0
0.0,-7.0,-3.0,-1.0,3.0,-1.0,-3.0,-1.0,1650821961793104.0
-1.0,0.0,-4.0,-6.0,-1.0,-5.0,-1.0,2.0,1650821961802071.0
-1.0,1.0,7.0,8.0,-4.0,-3.0,-4.0,-2.0,1650821961802071.0
-1.0,3.0,-1.0,-1.0,-1.0,-2.0,-4.0,0.0,1650821961816937.0
1.0,4.0,-5.0,-4.0,0.0,4.0,-1.0,1.0,1650821961816937.0
1.0,-3.0,-2.0,-4.0,0.0,3.0,2.0,-1.0,1650821961817937.0
-2.0,-3.0,2.0,5.0,1.0,-3.0,-3.0,0.0,1650821961817937.0
-3.0,-3.0,-1.0,1.0,0.0,0.0,-1.0,-1.0,1650821961839142.0
-1.0,-1.0,4.0,2.0,-1.0,-4.0,-2.0,0.0,1650821961839142.0
0.0,-2.0,-6.0,-6.0,-5.0,-11.0,0.0,-1.0,1650821961840073.0
-2.0,-4.0,-10.0,-5.0,-4.0,2.0,1.0,-1.0,1650821961840073.0
-4.0,0.0,1.0,2.0,-2.0,3.0,-6.0,-4.0,1650821961852157.0
4.0,1.0,2.0,3.0,9.0,7.0,5.0,1.0,1650821961852157.0
1.0,4.0,-1.0,-6.0,-2.0,-4.0,-2.0,0.0,1650821961862108.0
0.0,0.0,4.0,2.0,-2.0,-10.0,-1.0,0.0,1650821961862108.0
-5.0,-5.0,-1.0,1.0,-4.0,-1.0,0.0,-3.0,1650821961876881.0
-2.0,-1.0,-4.0,-4.0,-3.0,1.0,0.0,0.0,1650821961876881.0
1.0,-4.0,1.0,4.0,-1.0,3.0,4.0,0.0,1650821961877865.0
-1.0,3.0,2.0,-2.0,-2.0,-4.0,-2.0,-1.0,1650821961877865.0
1.0,-1.0,0.0,-2.0,2.0,2.0,2.0,0.0,1650821961906000.0
0.0,1.0,9.0,11.0,6.0,9.0,4.0,3.0,1650821961906000.0
-1.0,1.0,-9.0,-4.0,0.0,1.0,-3.0,-2.0,1650821961908001.0
1.0,-3.0,-9.0,-12.0,-4.0,-3.0,-2.0,-1.0,1650821961908001.0
2.0,2.0,6.0,5.0,-1.0,-4.0,-1.0,1.0,1650821961912981.0
-3.0,-8.0,-2.0,1.0,-1.0,-1.0,-1.0,-3.0,1650821961912981.0
-1.0,0.0,16.0,12.0,0.0,0.0,-3.0,0.0,1650821961921959.0
-2.0,-8.0,-20.0,-14.0,-2.0,1.0,-1.0,1.0,1650821961921959.0
-1.0,-8.0,-5.0,-7.0,-1.0,-2.0,-1.0,-1.0,1650821961936961.0
-1.0,3.0,-4.0,-4.0,-4.0,-4.0,-1.0,-2.0,1650821961936961.0
-1.0,2.0,3.0,5.0,-7.0,-11.0,-4.0,-2.0,1650821961937961.0
-3.0,6.0,3.0,1.0,12.0,9.0,0.0,-1.0,1650821961937961.0
6.0,-7.0,3.0,6.0,5.0,8.0,2.0,0.0,1650821961966078.0
0.0,-5.0,0.0,0.0,-7.0,-2.0,2.0,1.0,1650821961966078.0
0.0,3.0,2.0,3.0,10.0,3.0,2.0,1.0,1650821961968086.0
0.0,9.0,6.0,1.0,-1.0,-3.0,-2.0,-1.0,1650821961968086.0
-3.0,-3.0,-3.0,-1.0,-5.0,-5.0,-1.0,-1.0,1650821961973063.0
1.0,3.0,-9.0,-11.0,-2.0,3.0,1.0,0.0,1650821961973063.0
0.0,-3.0,-10.0,3.0,0.0,-2.0,-5.0,-4.0,1650821961982068.0
1.0,6.0,16.0,-3.0,-8.0,-8.0,-3.0,0.0,1650821961982068.0
1.0,6.0,14.0,7.0,1.0,0.0,1.0,0.0,1650821961996223.0
-4.0,2.0,-10.0,-2.0,-2.0,-1.0,-1.0,1.0,1650821961996223.0
4.0,2.0,-3.0,-7.0,-1.0,3.0,2.0,0.0,1650821961998194.0
-3.0,-10.0,-2.0,1.0,-1.0,1.0,-1.0,-1.0,1650821961998194.0
10.0,3.0,-9.0,-6.0,-3.0,-1.0,2.0,30.0,1650821962019355.0
-12.0,3.0,-4.0,-5.0,-8.0,-16.0,-9.0,-50.0,1650821962019355.0
2.0,-2.0,1.0,-1.0,-7.0,4.0,2.0,0.0,1650821962020287.0
-1.0,-16.0,3.0,5.0,17.0,17.0,3.0,7.0,1650821962020287.0
-4.0,2.0,16.0,-1.0,-9.0,-13.0,-6.0,-26.0,1650821962032320.0
5.0,3.0,-11.0,-2.0,6.0,6.0,5.0,16.0,1650821962032320.0
0.0,1.0,-17.0,-6.0,-3.0,1.0,1.0,4.0,1650821962041270.0
-2.0,8.0,5.0,0.0,-14.0,-12.0,-7.0,-8.0,1650821962041270.0
-6.0,3.0,6.0,5.0,-3.0,1.0,3.0,4.0,1650821962056338.0
9.0,-3.0,21.0,18.0,5.0,4.0,0.0,16.0,1650821962056338.0
-3.0,-7.0,-19.0,-20.0,4.0,4.0,2.0,-22.0,1650821962058362.0
18.0,18.0,4.0,1.0,-5.0,-5.0,2.0,41.0,1650821962058362.0
-10.0,-11.0,-3.0,-3.0,-3.0,-5.0,-4.0,25.0,1650821962079338.0
-7.0,5.0,5.0,-5.0,-8.0,-4.0,-7.0,-65.0,1650821962079338.0
-5.0,-13.0,-10.0,-4.0,-9.0,-1.0,1.0,4.0,1650821962080286.0
2.0,-2.0,28.0,31.0,23.0,5.0,2.0,-10.0,1650821962080286.0
-2.0,-7.0,-37.0,-14.0,3.0,4.0,1.0,10.0,1650821962101437.0
5.0,7.0,15.0,-1.0,0.0,1.0,3.0,26.0,1650821962101437.0
-7.0,-4.0,5.0,0.0,2.0,-2.0,-9.0,-6.0,1650821962103392.0
-10.0,-7.0,-10.0,0.0,-12.0,-7.0,-2.0,-6.0,1650821962103392.0
15.0,22.0,8.0,-1.0,9.0,8.0,5.0,1.0,1650821962116397.0
-6.0,-21.0,-14.0,-7.0,0.0,2.0,-1.0,5.0,1650821962116397.0
7.0,4.0,-5.0,-12.0,-6.0,-4.0,0.0,13.0,1650821962118352.0
0.0,-3.0,-1.0,-8.0,-8.0,-4.0,1.0,-16.0,1650821962118352.0
-12.0,-4.0,18.0,19.0,4.0,0.0,-2.0,-14.0,1650821962138873.0
3.0,-1.0,-8.0,-6.0,-4.0,-1.0,-1.0,8.0,1650821962138873.0
8.0,-7.0,6.0,8.0,7.0,5.0,11.0,66.0,1650821962140870.0
2.0,-1.0,0.0,1.0,0.0,-2.0,-5.0,-50.0,1650821962140870.0
-13.0,-9.0,-15.0,-17.0,-6.0,-7.0,-8.0,-24.0,1650821962161857.0
0.0,5.0,12.0,6.0,2.0,-2.0,-1.0,5.0,1650821962161857.0
-1.0,-3.0,-29.0,-20.0,-12.0,-4.0,-5.0,-12.0,1650821962162851.0
0.0,12.0,11.0,6.0,4.0,12.0,3.0,14.0,1650821962162851.0
12.0,-9.0,-26.0,-7.0,6.0,6.0,13.0,12.0,1650821962176933.0
-3.0,1.0,7.0,-6.0,-2.0,0.0,1.0,6.0,1650821962176933.0
-6.0,8.0,18.0,25.0,-1.0,-21.0,-8.0,-3.0,1650821962177868.0
16.0,9.0,2.0,-9.0,2.0,8.0,3.0,14.0,1650821962177868.0
-2.0,-9.0,-29.0,-4.0,-12.0,-5.0,-10.0,-17.0,1650821962198860.0
-14.0,-12.0,2.0,5.0,2.0,6.0,4.0,5.0,1650821962198860.0
7.0,-6.0,4.0,10.0,3.0,3.0,4.0,3.0,1650821962200884.0
-9.0,-2.0,-7.0,-17.0,-10.0,-15.0,-7.0,-22.0,1650821962200884.0
0.0,11.0,14.0,-6.0,-1.0,-3.0,1.0,18.0,1650821962221141.0
5.0,-15.0,-15.0,20.0,-7.0,-4.0,1.0,21.0,1650821962221141.0
-10.0,27.0,45.0,9.0,16.0,6.0,-4.0,-78.0,1650821962223068.0
-5.0,-7.0,-49.0,-13.0,-2.0,0.0,7.0,40.0,1650821962223068.0
6.0,20.0,34.0,0.0,8.0,11.0,0.0,-40.0,1650821962244377.0
17.0,-7.0,-32.0,-19.0,-14.0,-9.0,-5.0,0.0,1650821962244377.0
-2.0,4.0,18.0,16.0,-2.0,-1.0,-2.0,5.0,1650821962245839.0
14.0,-20.0,-17.0,-8.0,-8.0,-6.0,-2.0,10.0,1650821962245839.0
-23.0,22.0,32.0,15.0,3.0,5.0,15.0,3.0,1650821962258843.0
-5.0,-33.0,-28.0,-10.0,8.0,-5.0,-9.0,5.0,1650821962258843.0
0.0,10.0,17.0,13.0,6.0,12.0,1.0,-7.0,1650821962260800.0
4.0,5.0,-8.0,-20.0,-1.0,-1.0,-10.0,-8.0,1650821962260800.0
-6.0,-10.0,-18.0,-5.0,-6.0,-4.0,0.0,10.0,1650821962281908.0
-2.0,29.0,48.0,24.0,5.0,2.0,1.0,-18.0,1650821962281908.0
-1.0,-44.0,-58.0,-24.0,-11.0,-9.0,4.0,79.0,1650821962282906.0
-50.0,7.0,9.0,1.0,-9.0,-13.0,-10.0,-81.0,1650821962282906.0
26.0,-29.0,-9.0,14.0,8.0,4.0,-2.0,10.0,1650821962296008.0
0.0,13.0,19.0,-13.0,4.0,10.0,4.0,5.0,1650821962296008.0
-1.0,2.0,-4.0,-2.0,-8.0,6.0,1.0,-2.0,1650821962302993.0
-9.0,-7.0,12.0,36.0,24.0,2.0,-1.0,23.0,1650821962302993.0
4.0,-32.0,-23.0,-24.0,-8.0,-3.0,-6.0,-4.0,1650821962318980.0
-6.0,-7.0,-40.0,-15.0,2.0,1.0,1.0,-2.0,1650821962318980.0
5.0,5.0,10.0,-2.0,2.0,4.0,3.0,-1.0,1650821962320910.0
6.0,2.0,13.0,1.0,-19.0,-5.0,4.0,7.0,1650821962320910.0
-8.0,-1.0,13.0,17.0,6.0,-4.0,-2.0,-4.0,1650821962341073.0
12.0,24.0,31.0,4.0,-2.0,1.0,1.0,17.0,1650821962341073.0
-10.0,-34.0,-65.0,-32.0,-5.0,-4.0,-10.0,-44.0,1650821962343007.0
1.0,-1.0,0.0,-4.0,5.0,4.0,1.0,2.0,1650821962343007.0
11.0,9.0,22.0,17.0,0.0,1.0,10.0,51.0,1650821962356037.0
1.0,7.0,6.0,-5.0,-10.0,-7.0,-7.0,-47.0,1650821962356037.0
-3.0,10.0,6.0,7.0,1.0,-6.0,-4.0,-10.0,1650821962363020.0
2.0,4.0,9.0,-3.0,8.0,6.0,1.0,6.0,1650821962363020.0
-7.0,-17.0,-18.0,-14.0,-10.0,-7.0,-1.0,13.0,1650821962378902.0
-5.0,-8.0,-15.0,-1.0,-6.0,-11.0,-12.0,-13.0,1650821962378902.0
-12.0,-3.0,-1.0,8.0,5.0,11.0,13.0,31.0,1650821962380860.0
19.0,3.0,7.0,9.0,3.0,9.0,3.0,-30.0,1650821962380860.0
-4.0,16.0,31.0,-1.0,-5.0,-10.0,-10.0,-18.0,1650821962401893.0
-4.0,-4.0,-2.0,6.0,18.0,11.0,7.0,5.0,1650821962401893.0
3.0,0.0,-3.0,5.0,5.0,-3.0,-4.0,-6.0,1650821962402853.0
0.0,4.0,-8.0,-11.0,-6.0,4.0,5.0,26.0,1650821962402853.0
-1.0,-6.0,-20.0,3.0,-7.0,-4.0,-2.0,-9.0,1650821962416003.0
9.0,8.0,24.0,8.0,0.0,1.0,5.0,56.0,1650821962416003.0
-16.0,13.0,43.0,14.0,-1.0,-4.0,-5.0,-91.0,1650821962422917.0
-3.0,-34.0,-23.0,-26.0,-6.0,-7.0,-3.0,19.0,1650821962422917.0
-14.0,-14.0,-38.0,-5.0,-2.0,-3.0,-7.0,-24.0,1650821962438883.0
-5.0,-17.0,-24.0,-12.0,-2.0,-1.0,-3.0,9.0,1650821962438883.0
1.0,24.0,29.0,10.0,1.0,-1.0,-5.0,13.0,1650821962440908.0
1.0,3.0,4.0,-5.0,-7.0,-4.0,3.0,-9.0,1650821962440908.0
6.0,18.0,9.0,1.0,-7.0,-6.0,-5.0,-2.0,1650821962461910.0
13.0,-16.0,-4.0,0.0,8.0,8.0,13.0,13.0,1650821962461910.0
-1.0,0.0,-17.0,-13.0,-7.0,-1.0,4.0,9.0,1650821962462864.0
-5.0,1.0,-1.0,5.0,-4.0,-10.0,-10.0,-13.0,1650821962462864.0
8.0,14.0,-19.0,-14.0,1.0,5.0,9.0,64.0,1650821962475989.0
-16.0,7.0,-3.0,6.0,-6.0,-5.0,-14.0,-90.0,1650821962475989.0
13.0,16.0,2.0,2.0,6.0,4.0,-5.0,-33.0,1650821962483063.0
-3.0,-22.0,-10.0,-15.0,0.0,0.0,4.0,22.0,1650821962483063.0
1.0,9.0,33.0,26.0,6.0,3.0,0.0,-18.0,1650821962499177.0
0.0,0.0,-5.0,-12.0,2.0,4.0,5.0,14.0,1650821962499177.0
-1.0,-11.0,-6.0,3.0,-8.0,-9.0,1.0,21.0,1650821962500173.0
8.0,18.0,-1.0,-6.0,2.0,4.0,-2.0,-8.0,1650821962500173.0
-15.0,-9.0,8.0,9.0,-2.0,3.0,1.0,-13.0,1650821962522414.0
-1.0,-2.0,8.0,15.0,-2.0,-3.0,1.0,10.0,1650821962522414.0
4.0,-9.0,-21.0,-9.0,-6.0,-5.0,-3.0,23.0,1650821962524413.0
0.0,30.0,26.0,27.0,16.0,11.0,11.0,6.0,1650821962524413.0
3.0,-12.0,4.0,-11.0,7.0,0.0,-6.0,-9.0,1650821962535429.0
-6.0,-19.0,-45.0,-22.0,-3.0,1.0,1.0,-8.0,1650821962535429.0
21.0,8.0,-12.0,-18.0,-9.0,-6.0,3.0,58.0,1650821962543089.0
-7.0,-13.0,18.0,11.0,-8.0,-5.0,-3.0,-19.0,1650821962543089.0
-3.0,-5.0,-7.0,4.0,4.0,2.0,0.0,7.0,1650821962559156.0
-2.0,23.0,42.0,13.0,1.0,-5.0,-11.0,-16.0,1650821962559156.0
9.0,5.0,7.0,2.0,5.0,3.0,0.0,11.0,1650821962560116.0
-25.0,-14.0,-19.0,-8.0,-7.0,-4.0,-2.0,3.0,1650821962560116.0
9.0,-22.0,-22.0,-14.0,-9.0,-9.0,-6.0,-6.0,1650821962581244.0
0.0,2.0,14.0,-3.0,-2.0,3.0,7.0,27.0,1650821962581244.0
-1.0,3.0,2.0,-5.0,-5.0,-3.0,-3.0,-14.0,1650821962583204.0
19.0,18.0,18.0,19.0,5.0,4.0,5.0,30.0,1650821962583204.0
-6.0,4.0,11.0,6.0,21.0,7.0,-5.0,-39.0,1650821962595473.0
-4.0,17.0,-6.0,8.0,-4.0,-4.0,-3.0,3.0,1650821962595473.0
-4.0,-36.0,-15.0,9.0,-1.0,-2.0,-2.0,-12.0,1650821962604583.0
12.0,20.0,-2.0,-20.0,10.0,7.0,5.0,26.0,1650821962604583.0
3.0,7.0,10.0,10.0,0.0,4.0,6.0,-9.0,1650821962618690.0
1.0,14.0,17.0,3.0,2.0,0.0,-4.0,7.0,1650821962618690.0
5.0,10.0,8.0,6.0,11.0,6.0,9.0,-10.0,1650821962620715.0
-2.0,-27.0,-32.0,-8.0,-19.0,-18.0,-11.0,10.0,1650821962620715.0
-10.0,-2.0,-14.0,-10.0,0.0,-2.0,-3.0,-11.0,1650821962641853.0
13.0,-15.0,-21.0,-14.0,-3.0,1.0,14.0,49.0,1650821962641853.0
-1.0,2.0,10.0,4.0,1.0,3.0,-10.0,-46.0,1650821962642784.0
-10.0,-15.0,8.0,10.0,3.0,3.0,-1.0,-14.0,1650821962642784.0
22.0,2.0,8.0,2.0,1.0,3.0,1.0,14.0,1650821962654870.0
-14.0,14.0,12.0,-2.0,-16.0,-9.0,-7.0,-47.0,1650821962654870.0
6.0,-16.0,-35.0,-21.0,-9.0,-6.0,3.0,54.0,1650821962663755.0
-3.0,0.0,-5.0,8.0,17.0,8.0,-3.0,-56.0,1650821962663755.0
0.0,15.0,7.0,4.0,-2.0,0.0,-2.0,18.0,1650821962678857.0
0.0,-12.0,9.0,-3.0,1.0,0.0,-3.0,-25.0,1650821962678857.0
-1.0,21.0,22.0,5.0,6.0,6.0,6.0,14.0,1650821962680854.0
-4.0,-12.0,-26.0,-15.0,-5.0,-1.0,-2.0,-6.0,1650821962680854.0
-7.0,-21.0,-19.0,-1.0,-13.0,-7.0,3.0,16.0,1650821962701975.0
14.0,34.0,15.0,-3.0,0.0,-1.0,-1.0,8.0,1650821962701975.0
-12.0,1.0,9.0,1.0,-5.0,-7.0,-9.0,-25.0,1650821962702947.0
4.0,-6.0,0.0,-3.0,-1.0,5.0,10.0,26.0,1650821962702947.0
0.0,-1.0,-1.0,0.0,-8.0,-1.0,3.0,-9.0,1650821962715079.0
0.0,-16.0,-34.0,-3.0,6.0,-4.0,-3.0,12.0,1650821962715079.0
-13.0,-7.0,13.0,-3.0,-2.0,-3.0,-4.0,-22.0,1650821962723990.0
5.0,22.0,8.0,13.0,1.0,-2.0,4.0,80.0,1650821962723990.0
29.0,18.0,-3.0,-20.0,-5.0,1.0,-5.0,-31.0,1650821962739168.0
-28.0,-10.0,10.0,12.0,9.0,12.0,17.0,47.0,1650821962739168.0
30.0,3.0,-1.0,0.0,-1.0,0.0,1.0,-8.0,1650821962740098.0
-24.0,1.0,-3.0,-8.0,-11.0,-11.0,-3.0,0.0,1650821962740098.0
-12.0,12.0,6.0,0.0,-10.0,-11.0,-6.0,-4.0,1650821962761108.0
12.0,-23.0,2.0,19.0,17.0,12.0,1.0,-1.0,1650821962761108.0
-2.0,-7.0,-8.0,-11.0,8.0,11.0,12.0,22.0,1650821962763037.0
-5.0,-3.0,31.0,33.0,5.0,-2.0,-3.0,-18.0,1650821962763037.0
12.0,17.0,-16.0,-13.0,-6.0,-2.0,-5.0,-7.0,1650821962775063.0
-5.0,-26.0,-15.0,-9.0,-3.0,-3.0,-7.0,-13.0,1650821962775063.0
-2.0,23.0,40.0,8.0,2.0,6.0,5.0,-7.0,1650821962784369.0
-3.0,-19.0,-36.0,-19.0,-11.0,-4.0,-6.0,-23.0,1650821962784369.0
-14.0,-16.0,-13.0,-10.0,8.0,0.0,2.0,8.0,1650821962798858.0
5.0,15.0,8.0,12.0,-7.0,-6.0,-4.0,2.0,1650821962798858.0
-6.0,-5.0,-11.0,-8.0,2.0,4.0,1.0,5.0,1650821962800883.0
1.0,12.0,14.0,9.0,-1.0,-6.0,-5.0,-8.0,1650821962800883.0
-7.0,-11.0,-4.0,6.0,1.0,3.0,3.0,17.0,1650821962821945.0
-13.0,15.0,0.0,-26.0,-13.0,-7.0,-8.0,-68.0,1650821962821945.0
1.0,-11.0,-27.0,15.0,6.0,-1.0,-6.0,21.0,1650821962822899.0
12.0,-12.0,-16.0,-8.0,-3.0,1.0,2.0,-19.0,1650821962822899.0
2.0,0.0,6.0,-1.0,5.0,6.0,11.0,12.0,1650821962835042.0
-7.0,-6.0,-9.0,5.0,3.0,-5.0,-5.0,26.0,1650821962835042.0
-13.0,16.0,8.0,2.0,-6.0,-2.0,-7.0,-48.0,1650821962843787.0
5.0,-19.0,10.0,8.0,-1.0,1.0,0.0,12.0,1650821962843787.0
-9.0,-5.0,-6.0,-13.0,4.0,4.0,1.0,0.0,1650821962858985.0
16.0,5.0,-4.0,14.0,-1.0,0.0,5.0,26.0,1650821962858985.0
-4.0,-15.0,-2.0,3.0,2.0,-3.0,-1.0,0.0,1650821962865558.0
6.0,28.0,19.0,-8.0,-2.0,2.0,2.0,9.0,1650821962865558.0
-5.0,10.0,-17.0,-10.0,-4.0,-2.0,-2.0,-21.0,1650821962881097.0
4.0,-16.0,8.0,5.0,-6.0,2.0,5.0,-7.0,1650821962881097.0
0.0,-13.0,-12.0,-16.0,-8.0,-10.0,-9.0,1.0,1650821962883026.0
1.0,16.0,-1.0,-3.0,9.0,5.0,2.0,-10.0,1650821962883026.0
-3.0,-26.0,-21.0,-1.0,-13.0,-10.0,-1.0,33.0,1650821962895062.0
-9.0,1.0,-6.0,-4.0,12.0,1.0,-11.0,-47.0,1650821962895062.0
-4.0,3.0,-8.0,14.0,-4.0,0.0,9.0,14.0,1650821962903983.0
-12.0,-15.0,-7.0,-15.0,-5.0,4.0,-3.0,-7.0,1650821962903983.0
22.0,12.0,-4.0,5.0,-1.0,-5.0,-4.0,27.0,1650821962918862.0
11.0,8.0,13.0,-1.0,-4.0,-7.0,0.0,29.0,1650821962918862.0
-9.0,-11.0,22.0,4.0,-1.0,-4.0,-13.0,-65.0,1650821962920859.0
-6.0,-2.0,-11.0,-7.0,-3.0,-4.0,-1.0,-6.0,1650821962920859.0
-2.0,19.0,16.0,7.0,6.0,3.0,3.0,-6.0,1650821962941955.0
4.0,-9.0,-9.0,-4.0,4.0,7.0,3.0,14.0,1650821962941955.0
-6.0,9.0,17.0,8.0,8.0,5.0,2.0,9.0,1650821962942952.0
13.0,3.0,-11.0,8.0,-2.0,-1.0,1.0,3.0,1650821962942952.0
-6.0,11.0,-9.0,-27.0,-10.0,-6.0,-5.0,-16.0,1650821962954886.0
4.0,10.0,7.0,10.0,1.0,2.0,1.0,7.0,1650821962954886.0
-3.0,14.0,18.0,-3.0,-12.0,-4.0,2.0,20.0,1650821962963796.0
4.0,-23.0,3.0,27.0,33.0,16.0,7.0,3.0,1650821962963796.0
1.0,23.0,52.0,14.0,2.0,2.0,1.0,-1.0,1650821962978861.0
-7.0,7.0,-17.0,-12.0,-11.0,-8.0,-5.0,-8.0,1650821962978861.0
3.0,-3.0,-7.0,-11.0,-2.0,-5.0,0.0,35.0,1650821962980858.0
4.0,-6.0,-15.0,-15.0,-16.0,-11.0,-14.0,-28.0,1650821962980858.0
-25.0,14.0,42.0,24.0,7.0,9.0,23.0,-10.0,1650821963001976.0
4.0,-17.0,-28.0,-21.0,5.0,4.0,-2.0,-5.0,1650821963001976.0
1.0,11.0,29.0,26.0,0.0,-3.0,2.0,-3.0,1650821963002953.0
-24.0,-13.0,-28.0,-22.0,-12.0,-8.0,-12.0,17.0,1650821963002953.0
25.0,-22.0,-5.0,5.0,12.0,7.0,2.0,-20.0,1650821963014871.0
1.0,9.0,9.0,4.0,-2.0,2.0,5.0,5.0,1650821963014871.0
-3.0,-8.0,5.0,17.0,2.0,0.0,-1.0,9.0,1650821963023789.0
6.0,23.0,-42.0,-41.0,-6.0,-3.0,-1.0,-16.0,1650821963023789.0
-2.0,-7.0,3.0,20.0,6.0,2.0,-4.0,-2.0,1650821963038996.0
-4.0,25.0,17.0,0.0,-8.0,-2.0,7.0,14.0,1650821963038996.0
2.0,-11.0,-22.0,8.0,9.0,6.0,-4.0,3.0,1650821963040951.0
10.0,17.0,38.0,14.0,1.0,-7.0,-3.0,14.0,1650821963040951.0
-13.0,-17.0,-31.0,-14.0,-13.0,-11.0,-5.0,5.0,1650821963061895.0
11.0,-10.0,-8.0,-1.0,2.0,0.0,4.0,-31.0,1650821963061895.0
-31.0,-5.0,-10.0,-10.0,-1.0,3.0,6.0,7.0,1650821963062853.0
-13.0,-10.0,-13.0,1.0,-6.0,-1.0,-3.0,-17.0,1650821963062853.0
21.0,6.0,6.0,-6.0,-4.0,-5.0,4.0,46.0,1650821963083807.0
11.0,-5.0,19.0,12.0,10.0,6.0,-6.0,-3.0,1650821963083807.0
7.0,8.0,1.0,-10.0,0.0,5.0,5.0,-2.0,1650821963085831.0
2.0,0.0,-11.0,-4.0,0.0,-2.0,6.0,3.0,1650821963085831.0
-4.0,0.0,2.0,4.0,-9.0,-12.0,-19.0,-9.0,1650821963098831.0
-3.0,-2.0,11.0,0.0,-6.0,-4.0,6.0,27.0,1650821963098831.0
0.0,-6.0,-29.0,-17.0,3.0,-3.0,-4.0,-27.0,1650821963104884.0
9.0,5.0,38.0,34.0,1.0,0.0,5.0,9.0,1650821963104884.0
-9.0,-10.0,-17.0,-13.0,11.0,13.0,2.0,-10.0,1650821963121838.0
-23.0,-16.0,-9.0,3.0,-5.0,-4.0,-15.0,-29.0,1650821963121838.0
27.0,32.0,-17.0,-19.0,-1.0,3.0,13.0,36.0,1650821963122770.0
-3.0,-5.0,13.0,6.0,-10.0,-4.0,0.0,-10.0,1650821963122770.0
3.0,-7.0,-21.0,-8.0,-3.0,-2.0,0.0,16.0,1650821963143951.0
-16.0,1.0,-2.0,8.0,7.0,4.0,-3.0,-33.0,1650821963143951.0
6.0,0.0,28.0,4.0,-5.0,-8.0,-11.0,6.0,1650821963145905.0
5.0,7.0,-7.0,1.0,3.0,2.0,3.0,8.0,1650821963145905.0
-9.0,9.0,13.0,12.0,-2.0,-6.0,-11.0,-30.0,1650821963158915.0
9.0,2.0,-42.0,-9.0,0.0,7.0,14.0,35.0,1650821963158915.0
-15.0,-12.0,21.0,-1.0,8.0,-7.0,-15.0,-35.0,1650821963160883.0
4.0,-29.0,-20.0,-4.0,2.0,2.0,-5.0,17.0,1650821963160883.0
13.0,14.0,-3.0,-6.0,-8.0,2.0,3.0,-51.0,1650821963181893.0
-39.0,-4.0,-7.0,-12.0,-5.0,-5.0,1.0,2.0,1650821963181893.0
13.0,-21.0,-8.0,9.0,-2.0,2.0,4.0,7.0,1650821963182852.0
1.0,6.0,15.0,8.0,0.0,-4.0,-3.0,9.0,1650821963182852.0
-3.0,14.0,-11.0,-17.0,-1.0,-2.0,-1.0,11.0,1650821963204377.0
21.0,-6.0,14.0,13.0,-6.0,-4.0,0.0,6.0,1650821963204377.0
-3.0,-2.0,-3.0,2.0,2.0,4.0,2.0,-1.0,1650821963205833.0
-2.0,2.0,-20.0,-18.0,-2.0,1.0,-4.0,-7.0,1650821963205833.0
0.0,7.0,37.0,24.0,11.0,5.0,4.0,6.0,1650821963217900.0
12.0,5.0,-11.0,-11.0,-3.0,1.0,3.0,10.0,1650821963217900.0
-8.0,-2.0,-1.0,-4.0,-1.0,-4.0,-6.0,10.0,1650821963224996.0
3.0,19.0,22.0,7.0,-3.0,-2.0,-4.0,-36.0,1650821963224996.0
-3.0,-11.0,-18.0,1.0,-10.0,-8.0,2.0,5.0,1650821963242120.0
-3.0,-20.0,-16.0,-8.0,9.0,0.0,-7.0,5.0,1650821963242120.0
-13.0,6.0,6.0,-5.0,-13.0,-4.0,-3.0,-29.0,1650821963243119.0
5.0,-7.0,3.0,2.0,-2.0,-1.0,4.0,25.0,1650821963243119.0
2.0,-3.0,-7.0,-14.0,-5.0,-5.0,-4.0,-30.0,1650821963264385.0
-5.0,-6.0,7.0,5.0,0.0,-6.0,-9.0,-32.0,1650821963264385.0
3.0,3.0,-11.0,0.0,-3.0,3.0,3.0,-6.0,1650821963265389.0
-10.0,-2.0,19.0,20.0,16.0,13.0,11.0,41.0,1650821963265389.0
5.0,-25.0,-38.0,-16.0,1.0,0.0,-5.0,-1.0,1650821963278476.0
4.0,3.0,11.0,-2.0,-9.0,-9.0,-9.0,6.0,1650821963278476.0
4.0,-3.0,-4.0,12.0,6.0,0.0,2.0,-9.0,1650821963284870.0
-9.0,13.0,16.0,11.0,-10.0,-10.0,-4.0,6.0,1650821963284870.0
-4.0,-1.0,27.0,0.0,17.0,21.0,5.0,12.0,1650821963301094.0
-4.0,-6.0,6.0,8.0,4.0,3.0,1.0,-5.0,1650821963301094.0
2.0,-9.0,-17.0,-11.0,-8.0,-6.0,2.0,18.0,1650821963303024.0
3.0,-4.0,11.0,14.0,-9.0,-7.0,2.0,-15.0,1650821963303024.0
-4.0,-8.0,4.0,11.0,11.0,2.0,-5.0,4.0,1650821963323808.0
1.0,11.0,-10.0,-13.0,0.0,4.0,-2.0,-13.0,1650821963323808.0
8.0,14.0,5.0,0.0,4.0,11.0,19.0,35.0,1650821963325806.0
11.0,19.0,-12.0,-4.0,-2.0,-9.0,-16.0,-5.0,1650821963325806.0
-23.0,-14.0,-5.0,-1.0,-11.0,-7.0,-5.0,-47.0,1650821963338834.0
10.0,15.0,-1.0,-4.0,9.0,5.0,3.0,18.0,1650821963338834.0
11.0,-3.0,0.0,11.0,1.0,7.0,7.0,-13.0,1650821963353032.0
3.0,4.0,17.0,-10.0,-1.0,-1.0,7.0,10.0,1650821963353032.0
-2.0,16.0,9.0,12.0,-1.0,-3.0,2.0,11.0,1650821963361940.0
7.0,-4.0,14.0,9.0,0.0,-3.0,-2.0,6.0,1650821963361940.0
-2.0,5.0,1.0,-12.0,-5.0,-5.0,-10.0,17.0,1650821963362945.0
-5.0,13.0,5.0,-7.0,3.0,7.0,0.0,-53.0,1650821963362945.0
-5.0,-21.0,11.0,14.0,9.0,3.0,1.0,15.0,1650821963384112.0
-7.0,-2.0,-33.0,-25.0,-3.0,0.0,3.0,-2.0,1650821963384112.0
8.0,-20.0,11.0,-18.0,-10.0,-4.0,-5.0,11.0,1650821963385077.0
-7.0,-10.0,-9.0,4.0,-1.0,-5.0,-2.0,-12.0,1650821963385077.0
4.0,1.0,-5.0,1.0,-4.0,-5.0,-9.0,-7.0,1650821963398099.0
4.0,17.0,21.0,12.0,1.0,-2.0,-1.0,0.0,1650821963398099.0
-4.0,-18.0,-8.0,0.0,0.0,1.0,5.0,6.0,1650821963405610.0
6.0,34.0,0.0,-18.0,0.0,2.0,1.0,15.0,1650821963405610.0
-13.0,-5.0,7.0,8.0,-4.0,-10.0,-16.0,4.0,1650821963421828.0
-24.0,-16.0,-25.0,-16.0,-12.0,-11.0,-13.0,-2.0,1650821963421828.0
48.0,16.0,-3.0,1.0,7.0,13.0,22.0,11.0,1650821963422775.0
-55.0,-18.0,3.0,7.0,4.0,1.0,-5.0,-35.0,1650821963422775.0
28.0,6.0,4.0,-2.0,-3.0,0.0,-16.0,16.0,1650821963443917.0
0.0,-2.0,6.0,1.0,-6.0,-1.0,13.0,18.0,1650821963443917.0
-36.0,8.0,-12.0,-5.0,-5.0,-6.0,-13.0,-32.0,1650821963445869.0
12.0,-3.0,5.0,4.0,4.0,6.0,19.0,27.0,1650821963445869.0
5.0,8.0,-3.0,-9.0,5.0,4.0,7.0,6.0,1650821963458819.0
-5.0,-10.0,8.0,16.0,10.0,3.0,-16.0,0.0,1650821963458819.0
-4.0,13.0,6.0,4.0,3.0,0.0,6.0,-10.0,1650821963464871.0
13.0,-13.0,-14.0,-6.0,-7.0,-10.0,-3.0,-2.0,1650821963464871.0
-21.0,-19.0,-21.0,-18.0,-10.0,-11.0,-3.0,-6.0,1650821963481825.0
14.0,20.0,22.0,4.0,-6.0,-1.0,3.0,11.0,1650821963481825.0
-8.0,-2.0,9.0,19.0,4.0,-2.0,-4.0,-7.0,1650821963482758.0
1.0,-6.0,-7.0,3.0,3.0,2.0,-4.0,2.0,1650821963482758.0
-2.0,-3.0,-10.0,-17.0,-4.0,-1.0,12.0,15.0,1650821963503927.0
2.0,4.0,2.0,-3.0,-4.0,2.0,3.0,-10.0,1650821963503927.0
-3.0,-6.0,-9.0,-3.0,-5.0,-6.0,-18.0,-3.0,1650821963505924.0
1.0,-13.0,-9.0,-10.0,2.0,2.0,3.0,4.0,1650821963505924.0
5.0,13.0,21.0,47.0,9.0,5.0,6.0,-2.0,1650821963517957.0
7.0,2.0,2.0,-8.0,7.0,2.0,5.0,-4.0,1650821963517957.0
-15.0,-4.0,-7.0,-9.0,-12.0,-8.0,-6.0,-4.0,1650821963526954.0
7.0,-7.0,-11.0,-17.0,-4.0,1.0,1.0,8.0,1650821963526954.0
-3.0,6.0,6.0,0.0,-2.0,4.0,8.0,0.0,1650821963541147.0
0.0,1.0,5.0,13.0,3.0,0.0,2.0,-2.0,1650821963541147.0
-3.0,-1.0,-6.0,5.0,1.0,-3.0,-4.0,5.0,1650821963543076.0
2.0,-7.0,0.0,1.0,4.0,5.0,3.0,-2.0,1650821963543076.0
3.0,6.0,-1.0,-4.0,-2.0,0.0,4.0,2.0,1650821963563806.0
-5.0,0.0,2.0,3.0,-4.0,-2.0,0.0,-3.0,1650821963563806.0
1.0,3.0,-4.0,-6.0,1.0,1.0,-3.0,-3.0,1650821963565831.0
1.0,-6.0,2.0,2.0,-4.0,-6.0,-6.0,-3.0,1650821963565831.0
-2.0,3.0,2.0,0.0,3.0,4.0,-1.0,1.0,1650821963577994.0
3.0,-3.0,-2.0,-2.0,1.0,3.0,0.0,3.0,1650821963577994.0
-2.0,0.0,-3.0,-9.0,-1.0,-3.0,-1.0,-3.0,1650821963586286.0
1.0,2.0,1.0,4.0,1.0,-2.0,-3.0,1.0,1650821963586286.0
-4.0,-4.0,-6.0,-5.0,-6.0,-4.0,2.0,1.0,1650821963601907.0
1.0,-1.0,2.0,-2.0,-6.0,-4.0,2.0,-3.0,1650821963601907.0
-1.0,-4.0,-1.0,0.0,4.0,1.0,0.0,-1.0,1650821963602885.0
0.0,0.0,0.0,1.0,2.0,3.0,-1.0,1.0,1650821963602885.0
-1.0,-1.0,-5.0,-5.0,-3.0,-4.0,-2.0,-1.0,1650821963632865.0
0.0,0.0,-1.0,-3.0,-4.0,-4.0,0.0,-1.0,1650821963632865.0
-3.0,-2.0,1.0,5.0,1.0,3.0,-1.0,-1.0,1650821963634860.0
3.0,1.0,-2.0,2.0,6.0,6.0,1.0,1.0,1650821963634860.0
1.0,-1.0,-1.0,-6.0,1.0,3.0,2.0,-1.0,1650821963637851.0
0.0,-2.0,2.0,5.0,-5.0,-8.0,-2.0,-1.0,1650821963637851.0
-1.0,-3.0,0.0,0.0,-1.0,-1.0,0.0,1.0,1650821963646828.0
0.0,1.0,-4.0,-3.0,1.0,1.0,0.0,-2.0,1650821963646828.0
-2.0,1.0,3.0,-1.0,-2.0,-3.0,-1.0,-1.0,1650821963661920.0
-2.0,0.0,-2.0,1.0,-2.0,-4.0,-3.0,-1.0,1650821963661920.0
-1.0,-16.0,-2.0,-1.0,0.0,-1.0,0.0,-1.0,1650821963662892.0
3.0,-1.0,-4.0,-5.0,-3.0,-3.0,0.0,0.0,1650821963662892.0
-3.0,1.0,0.0,-2.0,0.0,2.0,0.0,-1.0,1650821963684352.0
1.0,-2.0,0.0,1.0,-2.0,1.0,0.0,1.0,1650821963684352.0
0.0,1.0,-2.0,-2.0,4.0,4.0,1.0,0.0,1650821963685803.0
0.0,5.0,-1.0,1.0,-2.0,-4.0,-2.0,-3.0,1650821963685803.0
-1.0,-4.0,-3.0,-1.0,-2.0,0.0,-2.0,0.0,1650821963697838.0
-2.0,0.0,0.0,-6.0,-1.0,3.0,2.0,-1.0,1650821963697838.0
0.0,-2.0,1.0,5.0,-2.0,0.0,-3.0,0.0,1650821963706815.0
0.0,-1.0,-4.0,-4.0,-3.0,-2.0,0.0,-1.0,1650821963706815.0
2.0,4.0,5.0,4.0,2.0,0.0,-3.0,1.0,1650821963721982.0
-1.0,-4.0,-4.0,-3.0,0.0,-2.0,-2.0,0.0,1650821963721982.0
-1.0,4.0,-3.0,-3.0,-1.0,-4.0,0.0,0.0,1650821963722970.0
-3.0,-2.0,5.0,3.0,-2.0,-3.0,-4.0,0.0,1650821963722970.0
1.0,-2.0,0.0,-4.0,-3.0,0.0,3.0,1.0,1650821963744379.0
-3.0,-1.0,0.0,2.0,1.0,1.0,-2.0,-2.0,1650821963744379.0
-3.0,-3.0,-4.0,-4.0,-2.0,-4.0,-3.0,0.0,1650821963745833.0
4.0,-2.0,-2.0,0.0,0.0,3.0,7.0,0.0,1650821963745833.0
0.0,-1.0,0.0,-2.0,0.0,-3.0,-3.0,-3.0,1650821963757930.0
1.0,0.0,0.0,0.0,2.0,2.0,0.0,2.0,1650821963757930.0
-1.0,3.0,-1.0,-1.0,-1.0,-1.0,-3.0,-3.0,1650821963767019.0
-3.0,1.0,-3.0,0.0,-2.0,-5.0,-2.0,-1.0,1650821963767019.0
1.0,4.0,3.0,0.0,-1.0,1.0,2.0,-1.0,1650821963782246.0
0.0,-3.0,-4.0,-4.0,-2.0,-7.0,-2.0,-2.0,1650821963782246.0
-1.0,0.0,1.0,2.0,1.0,4.0,-2.0,2.0,1650821963783274.0
1.0,2.0,-3.0,-2.0,-1.0,5.0,3.0,1.0,1650821963783274.0
0.0,4.0,3.0,4.0,8.0,7.0,3.0,-1.0,1650821963803801.0
1.0,-1.0,1.0,1.0,-1.0,-4.0,-1.0,1.0,1650821963803801.0
-1.0,0.0,-2.0,-6.0,-2.0,-5.0,1.0,-1.0,1650821963805829.0
-1.0,-5.0,0.0,1.0,-1.0,-2.0,-3.0,0.0,1650821963805829.0
0.0,-2.0,-6.0,-7.0,-7.0,-8.0,-3.0,-2.0,1650821963818003.0
-1.0,1.0,2.0,-1.0,-3.0,0.0,0.0,-2.0,1650821963818003.0
0.0,-3.0,-1.0,3.0,0.0,0.0,1.0,1.0,1650821963827132.0
1.0,1.0,3.0,1.0,4.0,3.0,-4.0,-1.0,1650821963827132.0
2.0,0.0,-4.0,-2.0,3.0,4.0,3.0,0.0,1650821963841275.0
-2.0,0.0,-2.0,-1.0,-1.0,-2.0,-2.0,-1.0,1650821963841275.0
0.0,-1.0,0.0,-1.0,-5.0,-2.0,0.0,-3.0,1650821963843224.0
-3.0,-1.0,2.0,2.0,-2.0,-6.0,-5.0,-1.0,1650821963843224.0
-1.0,-3.0,2.0,0.0,0.0,-2.0,-2.0,-1.0,1650821963864406.0
0.0,-7.0,-8.0,-3.0,1.0,-4.0,-1.0,0.0,1650821963864406.0
1.0,1.0,0.0,-1.0,2.0,5.0,-1.0,-1.0,1650821963865834.0
-3.0,0.0,-3.0,-3.0,-3.0,2.0,-4.0,-1.0,1650821963865834.0
2.0,0.0,0.0,2.0,1.0,1.0,0.0,-1.0,1650821963878003.0
-2.0,3.0,1.0,0.0,4.0,3.0,7.0,1.0,1650821963878003.0
4.0,-4.0,-3.0,-4.0,1.0,-4.0,0.0,-1.0,1650821963886888.0
-1.0,-3.0,3.0,5.0,-1.0,-2.0,-2.0,-2.0,1650821963886888.0
-4.0,0.0,-4.0,-4.0,-7.0,-5.0,-3.0,0.0,1650821963909382.0
0.0,1.0,-2.0,-4.0,-3.0,-3.0,-3.0,-1.0,1650821963909382.0
-3.0,4.0,2.0,3.0,-3.0,-4.0,-2.0,-1.0,1650821963910315.0
-1.0,-1.0,0.0,-4.0,0.0,3.0,4.0,0.0,1650821963910315.0
0.0,1.0,1.0,-1.0,1.0,1.0,-1.0,1.0,1650821963924352.0
1.0,-5.0,2.0,2.0,-1.0,0.0,-1.0,0.0,1650821963924352.0
-1.0,2.0,-5.0,-6.0,-2.0,0.0,0.0,-1.0,1650821963925828.0
-4.0,-2.0,4.0,8.0,-5.0,-3.0,-2.0,-1.0,1650821963925828.0
0.0,0.0,-1.0,0.0,2.0,1.0,1.0,1.0,1650821963938027.0
0.0,0.0,0.0,-1.0,4.0,8.0,1.0,2.0,1650821963938027.0
-1.0,2.0,-1.0,0.0,4.0,1.0,0.0,0.0,1650821963946264.0
-1.0,0.0,-1.0,0.0,-1.0,-4.0,-1.0,-1.0,1650821963946264.0
-2.0,-5.0,-4.0,-3.0,-5.0,-6.0,-3.0,-2.0,1650821963961932.0
-1.0,1.0,-1.0,0.0,-4.0,-4.0,-2.0,-2.0,1650821963961932.0
-1.0,-3.0,0.0,1.0,-3.0,-1.0,-2.0,-1.0,1650821963962866.0
2.0,1.0,-2.0,-3.0,-1.0,-4.0,3.0,1.0,1650821963962866.0
-1.0,-1.0,-7.0,-7.0,5.0,10.0,2.0,0.0,1650821963984112.0
0.0,-2.0,9.0,11.0,5.0,8.0,3.0,0.0,1650821963984112.0
-5.0,-1.0,0.0,-2.0,2.0,-2.0,1.0,0.0,1650821963985058.0
6.0,1.0,-4.0,-5.0,0.0,-2.0,-2.0,-1.0,1650821963985058.0
-1.0,-2.0,-2.0,-1.0,-4.0,-6.0,-1.0,1.0,1650821964006326.0
0.0,4.0,-10.0,-8.0,-6.0,-8.0,-4.0,-2.0,1650821964006326.0
-2.0,0.0,5.0,2.0,-1.0,-5.0,-2.0,-2.0,1650821964008282.0
-4.0,-7.0,-3.0,1.0,6.0,10.0,3.0,0.0,1650821964008282.0
0.0,-2.0,-3.0,-3.0,3.0,6.0,3.0,0.0,1650821964021428.0
2.0,5.0,1.0,1.0,3.0,3.0,0.0,-2.0,1650821964021428.0
0.0,1.0,1.0,1.0,-2.0,-5.0,0.0,-1.0,1650821964023356.0
0.0,0.0,-4.0,-3.0,-4.0,-6.0,-3.0,-1.0,1650821964023356.0
0.0,1.0,1.0,0.0,-5.0,-4.0,-1.0,-1.0,1650821964044456.0
-2.0,-2.0,-2.0,0.0,-1.0,0.0,-3.0,-1.0,1650821964044456.0
-1.0,-4.0,-2.0,0.0,4.0,3.0,0.0,0.0,1650821964045430.0
0.0,1.0,3.0,0.0,-1.0,0.0,-2.0,0.0,1650821964045430.0
-3.0,0.0,-1.0,1.0,-4.0,-5.0,0.0,-1.0,1650821964066905.0
0.0,1.0,-1.0,-1.0,0.0,-5.0,-3.0,-1.0,1650821964066905.0
1.0,-2.0,-1.0,1.0,-4.0,6.0,0.0,0.0,1650821964067917.0
-2.0,1.0,-1.0,0.0,3.0,6.0,1.0,0.0,1650821964067917.0
2.0,0.0,4.0,4.0,5.0,-2.0,0.0,1.0,1650821964081255.0
1.0,0.0,-4.0,-7.0,-2.0,-3.0,-1.0,-1.0,1650821964081255.0
2.0,-4.0,-2.0,-2.0,-6.0,-5.0,0.0,0.0,1650821964083183.0
-1.0,-1.0,-1.0,1.0,-1.0,2.0,-2.0,-2.0,1650821964083183.0
-3.0,1.0,2.0,2.0,-4.0,-3.0,-2.0,-2.0,1650821964104352.0
-8.0,-2.0,4.0,2.0,0.0,-1.0,2.0,0.0,1650821964104352.0
3.0,5.0,-1.0,-6.0,0.0,4.0,1.0,-1.0,1650821964105833.0
4.0,-6.0,-2.0,-1.0,-1.0,-5.0,-1.0,-1.0,1650821964105833.0
0.0,0.0,-1.0,0.0,-2.0,-2.0,-2.0,-1.0,1650821964126966.0
-1.0,-2.0,-2.0,-3.0,2.0,5.0,2.0,0.0,1650821964126966.0
-4.0,-2.0,8.0,10.0,-3.0,-4.0,-2.0,-2.0,1650821964127966.0
-4.0,0.0,-4.0,-4.0,0.0,-2.0,1.0,2.0,1650821964127966.0
1.0,0.0,3.0,3.0,2.0,2.0,-1.0,-1.0,1650821964140930.0
0.0,-6.0,-3.0,0.0,-4.0,-3.0,-3.0,-1.0,1650821964140930.0
0.0,1.0,-2.0,-1.0,1.0,2.0,0.0,0.0,1650821964148005.0
0.0,0.0,-1.0,-2.0,-5.0,-7.0,-1.0,-2.0,1650821964148005.0
-2.0,-1.0,-1.0,0.0,1.0,8.0,1.0,-3.0,1650821964164353.0
-1.0,-4.0,-1.0,1.0,4.0,10.0,5.0,1.0,1650821964164353.0
0.0,-1.0,-1.0,-4.0,-1.0,-6.0,-3.0,-1.0,1650821964165841.0
-2.0,0.0,-2.0,-2.0,-4.0,-7.0,-3.0,-2.0,1650821964165841.0
-1.0,-4.0,-3.0,-4.0,-6.0,-5.0,-3.0,0.0,1650821964187352.0
1.0,0.0,-2.0,1.0,1.0,3.0,0.0,0.0,1650821964187352.0
1.0,0.0,-1.0,3.0,6.0,6.0,1.0,1.0,1650821964188765.0
0.0,1.0,1.0,0.0,4.0,2.0,5.0,0.0,1650821964188765.0
-5.0,0.0,-4.0,-5.0,-4.0,-4.0,-7.0,-1.0,1650821964200309.0
9.0,-4.0,6.0,2.0,-5.0,-3.0,5.0,1.0,1650821964200309.0
-2.0,-6.0,-5.0,-3.0,-5.0,-6.0,-1.0,0.0,1650821964209334.0
-1.0,0.0,-1.0,0.0,1.0,1.0,-2.0,1.0,1650821964209334.0
-1.0,0.0,0.0,-2.0,1.0,1.0,1.0,0.0,1650821964224455.0
-2.0,4.0,-1.0,-2.0,-3.0,-2.0,-4.0,-1.0,1650821964224455.0
-1.0,-6.0,-4.0,0.0,-1.0,0.0,-3.0,-2.0,1650821964225446.0
0.0,-2.0,1.0,3.0,4.0,4.0,1.0,0.0,1650821964225446.0
-1.0,1.0,-1.0,0.0,3.0,3.0,3.0,2.0,1650821964246601.0
-3.0,0.0,0.0,2.0,0.0,-3.0,-4.0,-2.0,1650821964246601.0
0.0,3.0,1.0,-1.0,-1.0,2.0,1.0,-1.0,1650821964247533.0
1.0,-2.0,-4.0,-5.0,-4.0,-1.0,-1.0,0.0,1650821964247533.0
0.0,-3.0,0.0,1.0,1.0,-5.0,1.0,0.0,1650821964260541.0
0.0,1.0,-3.0,-4.0,-7.0,-13.0,-4.0,-1.0,1650821964260541.0
-1.0,3.0,-1.0,0.0,-4.0,1.0,-3.0,-1.0,1650821964267546.0
-3.0,-1.0,3.0,6.0,7.0,12.0,2.0,0.0,1650821964267546.0
1.0,0.0,-1.0,1.0,8.0,7.0,2.0,-1.0,1650821964283702.0
-3.0,2.0,3.0,0.0,0.0,-4.0,-2.0,0.0,1650821964283702.0
5.0,-1.0,-2.0,-3.0,-4.0,-9.0,3.0,0.0,1650821964285631.0
2.0,2.0,1.0,-2.0,-4.0,-5.0,-3.0,-1.0,1650821964285631.0
-1.0,0.0,1.0,2.0,-2.0,1.0,-2.0,-1.0,1650821964306850.0
-2.0,1.0,-5.0,-1.0,3.0,2.0,-2.0,-1.0,1650821964306850.0
-2.0,-1.0,-3.0,-3.0,0.0,-2.0,-3.0,1.0,1650821964307851.0
-1.0,-3.0,0.0,1.0,-1.0,1.0,-2.0,0.0,1650821964307851.0
0.0,1.0,0.0,-2.0,2.0,3.0,1.0,0.0,1650821964320965.0
2.0,-1.0,-3.0,-3.0,1.0,2.0,0.0,0.0,1650821964320965.0
-1.0,1.0,-2.0,-2.0,0.0,-1.0,2.0,-1.0,1650821964327989.0
-3.0,0.0,8.0,5.0,-3.0,-4.0,-2.0,-2.0,1650821964327989.0
1.0,-1.0,2.0,0.0,-4.0,-3.0,-3.0,0.0,1650821964343904.0
-1.0,-3.0,-1.0,-1.0,-1.0,0.0,-2.0,-1.0,1650821964343904.0
-1.0,1.0,-3.0,-3.0,-3.0,-5.0,-2.0,-1.0,1650821964345801.0
-1.0,1.0,-7.0,-7.0,-6.0,-4.0,-2.0,0.0,1650821964345801.0
-3.0,1.0,1.0,3.0,2.0,5.0,2.0,2.0,1650821964366876.0
0.0,-5.0,3.0,5.0,8.0,12.0,5.0,1.0,1650821964366876.0
1.0,0.0,1.0,-2.0,3.0,1.0,0.0,0.0,1650821964367824.0
1.0,2.0,-1.0,0.0,-5.0,-7.0,-1.0,-2.0,1650821964367824.0
1.0,-7.0,-3.0,-2.0,-9.0,-9.0,-2.0,-1.0,1650821964380877.0
0.0,2.0,-4.0,-6.0,-4.0,-1.0,-1.0,0.0,1650821964380877.0
-1.0,-5.0,0.0,3.0,4.0,5.0,2.0,0.0,1650821964387926.0
-2.0,-1.0,0.0,1.0,4.0,1.0,-2.0,-2.0,1650821964387926.0
-1.0,2.0,0.0,0.0,-2.0,-1.0,-1.0,-2.0,1650821964404032.0
-1.0,1.0,-2.0,-1.0,-6.0,-5.0,1.0,0.0,1650821964404032.0
-1.0,0.0,-1.0,0.0,2.0,-1.0,-4.0,1.0,1650821964405987.0
-1.0,1.0,-2.0,-1.0,2.0,3.0,1.0,-1.0,1650821964405987.0
-3.0,-2.0,-1.0,-4.0,-2.0,-6.0,-5.0,-2.0,1650821964426879.0
3.0,-7.0,-6.0,-1.0,1.0,2.0,0.0,2.0,1650821964426879.0
13.0,6.0,1.0,-1.0,2.0,4.0,1.0,-2.0,1650821964427738.0
-3.0,-3.0,4.0,4.0,0.0,0.0,-2.0,-1.0,1650821964427738.0
1.0,-1.0,-2.0,-3.0,-2.0,-4.0,-1.0,-2.0,1650821964440884.0
-3.0,-1.0,1.0,0.0,-6.0,-13.0,-5.0,-2.0,1650821964440884.0
-4.0,0.0,-5.0,-5.0,-4.0,2.0,-2.0,-2.0,1650821964447904.0
2.0,-1.0,-4.0,-3.0,-2.0,2.0,1.0,1.0,1650821964447904.0
1.0,9.0,4.0,5.0,6.0,8.0,2.0,0.0,1650821964463962.0
-1.0,-6.0,0.0,4.0,11.0,8.0,4.0,-1.0,1650821964463962.0
-3.0,-6.0,-1.0,-1.0,2.0,-1.0,2.0,0.0,1650821964465960.0
-1.0,-2.0,0.0,0.0,-6.0,-8.0,-1.0,0.0,1650821964465960.0
-2.0,-3.0,1.0,-4.0,-8.0,-7.0,-2.0,-1.0,1650821964486123.0
-1.0,3.0,-3.0,-4.0,-4.0,-3.0,-1.0,-3.0,1650821964486123.0
-2.0,1.0,-2.0,-2.0,-3.0,-3.0,-2.0,-1.0,1650821964488052.0
-3.0,-5.0,-2.0,-2.0,-2.0,0.0,-3.0,0.0,1650821964488052.0
-1.0,-3.0,-4.0,-2.0,3.0,3.0,4.0,-1.0,1650821964500085.0
1.0,1.0,3.0,4.0,5.0,-1.0,0.0,0.0,1650821964500085.0
-3.0,-5.0,1.0,3.0,4.0,13.0,1.0,-1.0,1650821964508995.0
0.0,1.0,-3.0,-4.0,1.0,4.0,3.0,0.0,1650821964508995.0
3.0,-1.0,-4.0,-3.0,-4.0,-6.0,-2.0,1.0,1650821964524219.0
-1.0,-2.0,-1.0,-2.0,-11.0,-8.0,-4.0,-1.0,1650821964524219.0
-4.0,2.0,-1.0,1.0,-6.0,-12.0,-4.0,-1.0,1650821964525155.0
-2.0,0.0,2.0,4.0,6.0,9.0,4.0,-1.0,1650821964525155.0
0.0,-3.0,1.0,4.0,10.0,10.0,5.0,-1.0,1650821964546898.0
-1.0,4.0,4.0,1.0,-1.0,-1.0,-1.0,0.0,1650821964546898.0
1.0,-5.0,-4.0,-4.0,-7.0,-6.0,-1.0,-2.0,1650821964547864.0
1.0,1.0,-1.0,-4.0,-5.0,-3.0,-2.0,0.0,1650821964547864.0
0.0,-1.0,-3.0,-2.0,-6.0,-6.0,-3.0,-3.0,1650821964559925.0
0.0,1.0,-2.0,-2.0,0.0,1.0,2.0,-1.0,1650821964559925.0
-2.0,0.0,1.0,-2.0,1.0,2.0,0.0,1.0,1650821964568853.0
0.0,-1.0,8.0,11.0,8.0,5.0,2.0,1.0,1650821964568853.0
-1.0,1.0,0.0,1.0,2.0,1.0,1.0,2.0,1650821964584378.0
-2.0,1.0,-3.0,-1.0,-2.0,-3.0,-3.0,0.0,1650821964584378.0
-2.0,0.0,4.0,2.0,1.0,8.0,1.0,-1.0,1650821964585832.0
0.0,-2.0,-5.0,-3.0,-3.0,-2.0,0.0,0.0,1650821964585832.0
-2.0,-2.0,0.0,1.0,-4.0,-5.0,-1.0,-2.0,1650821964606891.0
1.0,-3.0,-4.0,-5.0,-1.0,-1.0,-2.0,0.0,1650821964606891.0
-2.0,1.0,-3.0,1.0,0.0,-1.0,0.0,1.0,1650821964607855.0
-1.0,-1.0,-2.0,-1.0,2.0,-1.0,0.0,-1.0,1650821964607855.0
-3.0,1.0,2.0,0.0,-2.0,-2.0,-1.0,1.0,1650821964619877.0
-2.0,-2.0,-1.0,-2.0,-5.0,-3.0,-1.0,-2.0,1650821964619877.0
8.0,-1.0,-4.0,-1.0,-3.0,-4.0,-4.0,0.0,1650821964628782.0
-1.0,0.0,0.0,1.0,2.0,2.0,2.0,-1.0,1650821964628782.0
0.0,-2.0,-4.0,-4.0,0.0,1.0,-2.0,-1.0,1650821964644003.0
-1.0,2.0,-1.0,-4.0,1.0,2.0,4.0,-1.0,1650821964644003.0
-4.0,-1.0,5.0,8.0,-1.0,3.0,0.0,0.0,1650821964646045.0
1.0,3.0,-2.0,-6.0,-2.0,-3.0,-1.0,0.0,1650821964646045.0
-1.0,-2.0,-2.0,0.0,4.0,-4.0,-3.0,-1.0,1650821964666882.0
2.0,1.0,1.0,-2.0,-2.0,1.0,-2.0,0.0,1650821964666882.0
-1.0,1.0,3.0,3.0,1.0,6.0,4.0,-1.0,1650821964667870.0
-1.0,-4.0,-2.0,-1.0,-3.0,-5.0,-2.0,1.0,1650821964667870.0
-1.0,2.0,-6.0,-7.0,-1.0,3.0,2.0,-1.0,1650821964679923.0
1.0,0.0,3.0,5.0,3.0,1.0,0.0,0.0,1650821964679923.0
-2.0,-1.0,-2.0,-4.0,1.0,-9.0,-1.0,-1.0,1650821964688832.0
-1.0,-7.0,-1.0,0.0,-3.0,0.0,-2.0,-1.0,1650821964688832.0
0.0,-2.0,-3.0,0.0,-5.0,-2.0,0.0,0.0,1650821964703858.0
1.0,-2.0,-2.0,0.0,1.0,1.0,1.0,0.0,1650821964703858.0
-1.0,0.0,7.0,5.0,1.0,2.0,-3.0,-2.0,1650821964705814.0
-6.0,-4.0,-4.0,-4.0,-2.0,0.0,-2.0,-4.0,1650821964705814.0
8.0,-3.0,-2.0,-1.0,-2.0,-3.0,1.0,1.0,1650821964726937.0
-2.0,-1.0,-3.0,1.0,-5.0,-4.0,-2.0,0.0,1650821964726937.0
-3.0,-1.0,-6.0,-6.0,1.0,-1.0,3.0,0.0,1650821964727937.0
0.0,4.0,4.0,3.0,3.0,-3.0,-1.0,0.0,1650821964727937.0
-2.0,0.0,-2.0,-3.0,1.0,1.0,-3.0,-1.0,1650821964740940.0
-2.0,-2.0,-2.0,-2.0,1.0,9.0,-1.0,-1.0,1650821964740940.0
-1.0,-1.0,6.0,4.0,-2.0,-1.0,1.0,-1.0,1650821964748852.0
-4.0,0.0,-3.0,-2.0,-3.0,-9.0,-1.0,1.0,1650821964748852.0
1.0,0.0,1.0,2.0,1.0,-2.0,-1.0,0.0,1650821964763821.0
-1.0,-2.0,-1.0,-1.0,-3.0,-2.0,-2.0,0.0,1650821964763821.0
2.0,1.0,-8.0,-7.0,-5.0,-6.0,-4.0,-2.0,1650821964765846.0
-1.0,0.0,1.0,3.0,5.0,8.0,6.0,1.0,1650821964765846.0
0.0,2.0,1.0,-1.0,1.0,3.0,0.0,0.0,1650821964786902.0
-1.0,2.0,11.0,12.0,-1.0,0.0,-1.0,-2.0,1650821964786902.0
-3.0,-3.0,-2.0,-1.0,-4.0,-7.0,-3.0,-3.0,1650821964788112.0
2.0,2.0,0.0,-3.0,-4.0,-2.0,-1.0,1.0,1650821964788112.0
-8.0,0.0,0.0,-1.0,1.0,3.0,-2.0,-3.0,1650821964800250.0
10.0,-2.0,-3.0,-3.0,-4.0,-8.0,0.0,0.0,1650821964800250.0
-1.0,-1.0,1.0,0.0,-1.0,3.0,-2.0,-1.0,1650821964809267.0
2.0,1.0,-5.0,-4.0,4.0,6.0,-2.0,0.0,1650821964809267.0
-3.0,-1.0,0.0,-1.0,2.0,7.0,6.0,-2.0,1650821964824292.0
-4.0,1.0,0.0,0.0,4.0,-4.0,0.0,0.0,1650821964824292.0
0.0,1.0,-2.0,0.0,0.0,-4.0,0.0,1.0,1650821964825229.0
1.0,-1.0,4.0,3.0,-5.0,-7.0,-3.0,-2.0,1650821964825229.0
0.0,1.0,0.0,-1.0,-6.0,-4.0,-3.0,-1.0,1650821964846358.0
-2.0,0.0,0.0,-5.0,-1.0,0.0,-2.0,1.0,1650821964846358.0
0.0,3.0,2.0,2.0,3.0,-1.0,0.0,1.0,1650821964848332.0
0.0,2.0,-1.0,0.0,1.0,3.0,3.0,0.0,1650821964848332.0
0.0,-6.0,-3.0,-1.0,0.0,-4.0,-1.0,-1.0,1650821964860301.0
-2.0,-1.0,-1.0,2.0,-1.0,1.0,0.0,0.0,1650821964860301.0
1.0,-2.0,-3.0,-5.0,0.0,-6.0,0.0,-1.0,1650821964869392.0
0.0,0.0,-4.0,-4.0,-2.0,-2.0,-2.0,1.0,1650821964869392.0
1.0,2.0,3.0,1.0,-3.0,2.0,3.0,1.0,1650821964884377.0
-1.0,-2.0,-11.0,-8.0,6.0,3.0,-1.0,-1.0,1650821964884377.0
-1.0,-4.0,3.0,5.0,3.0,9.0,5.0,2.0,1650821964885600.0
2.0,-3.0,2.0,1.0,-3.0,-7.0,-3.0,-3.0,1650821964885600.0
-1.0,0.0,1.0,1.0,-3.0,-8.0,-4.0,1.0,1650821964906888.0
-1.0,-3.0,-1.0,-2.0,-3.0,0.0,1.0,-2.0,1650821964906888.0
-4.0,1.0,-2.0,-2.0,3.0,1.0,-1.0,0.0,1650821964907840.0
0.0,2.0,-2.0,-5.0,-1.0,1.0,0.0,1.0,1650821964907840.0
1.0,0.0,-3.0,-3.0,-4.0,-2.0,-1.0,-1.0,1650821964928834.0
-3.0,-1.0,5.0,7.0,-2.0,0.0,-2.0,-1.0,1650821964928834.0
0.0,2.0,4.0,4.0,4.0,4.0,1.0,1.0,1650821964930828.0
0.0,0.0,3.0,3.0,-2.0,-1.0,-2.0,-2.0,1650821964930828.0
-1.0,5.0,-2.0,-2.0,1.0,1.0,0.0,-3.0,1650821964944383.0
-1.0,-4.0,-3.0,1.0,3.0,3.0,2.0,2.0,1650821964944383.0
-1.0,-2.0,-5.0,-5.0,-4.0,-5.0,-1.0,0.0,1650821964945814.0
0.0,-1.0,-5.0,-5.0,-3.0,-6.0,-2.0,1.0,1650821964945814.0
-2.0,3.0,2.0,-1.0,-4.0,2.0,1.0,2.0,1650821964966917.0
0.0,-1.0,0.0,0.0,-2.0,3.0,-2.0,-4.0,1650821964966917.0
1.0,1.0,0.0,-1.0,4.0,2.0,1.0,0.0,1650821964967914.0
-7.0,0.0,1.0,0.0,3.0,1.0,2.0,-2.0,1650821964967914.0
10.0,0.0,1.0,2.0,1.0,-2.0,-2.0,0.0,1650821964988843.0
-3.0,2.0,0.0,-2.0,-3.0,0.0,0.0,-1.0,1650821964988843.0
3.0,-4.0,-1.0,-3.0,-3.0,-2.0,0.0,0.0,1650821964990831.0
-2.0,-1.0,-2.0,-1.0,-2.0,-4.0,-1.0,1.0,1650821964990831.0
-2.0,-2.0,0.0,1.0,1.0,-3.0,-2.0,-1.0,1650821965003861.0
0.0,-2.0,-2.0,-2.0,3.0,2.0,2.0,0.0,1650821965003861.0
-1.0,-2.0,-2.0,-1.0,-2.0,-2.0,-1.0,-1.0,1650821965005791.0
1.0,0.0,0.0,0.0,0.0,0.0,2.0,-2.0,1650821965005791.0
-4.0,-3.0,-2.0,-2.0,-3.0,-2.0,1.0,1.0,1650821965026853.0
0.0,5.0,0.0,0.0,0.0,0.0,-1.0,1.0,1650821965026853.0
-5.0,2.0,-3.0,0.0,4.0,1.0,1.0,0.0,1650821965028041.0
6.0,2.0,0.0,2.0,3.0,8.0,2.0,-1.0,1650821965028041.0
-3.0,-4.0,1.0,2.0,1.0,4.0,-2.0,-2.0,1650821965048858.0
5.0,-1.0,-6.0,-4.0,-1.0,-1.0,3.0,0.0,1650821965048858.0
-4.0,0.0,-2.0,0.0,-5.0,-7.0,-6.0,3.0,1650821965050885.0
1.0,3.0,-4.0,-3.0,0.0,-3.0,2.0,-1.0,1650821965050885.0
8.0,1.0,14.0,3.0,-3.0,-3.0,8.0,34.0,1650821965062935.0
-39.0,-8.0,-10.0,-3.0,-3.0,-1.0,-10.0,-58.0,1650821965062935.0
5.0,0.0,-5.0,-2.0,-3.0,3.0,0.0,-5.0,1650821965069964.0
23.0,-6.0,-4.0,-3.0,2.0,1.0,2.0,39.0,1650821965069964.0
-8.0,4.0,-2.0,0.0,4.0,-4.0,-12.0,-75.0,1650821965086910.0
3.0,5.0,19.0,7.0,0.0,0.0,-1.0,22.0,1650821965086910.0
-16.0,-5.0,-11.0,-9.0,-2.0,0.0,0.0,-15.0,1650821965087902.0
-1.0,7.0,0.0,-1.0,-5.0,-2.0,-2.0,-8.0,1650821965087902.0
-12.0,0.0,2.0,6.0,7.0,3.0,4.0,34.0,1650821965108910.0
14.0,0.0,-2.0,-5.0,1.0,0.0,2.0,-22.0,1650821965108910.0
-1.0,3.0,14.0,13.0,0.0,-2.0,-3.0,-23.0,1650821965110841.0
1.0,5.0,10.0,3.0,2.0,2.0,2.0,6.0,1650821965110841.0
-8.0,7.0,22.0,26.0,4.0,3.0,4.0,19.0,1650821965123829.0
8.0,-9.0,-50.0,-35.0,-4.0,0.0,3.0,-16.0,1650821965123829.0
-22.0,-23.0,3.0,20.0,-2.0,-2.0,3.0,60.0,1650821965129857.0
-8.0,-1.0,12.0,12.0,11.0,4.0,-11.0,-96.0,1650821965129857.0
16.0,1.0,-29.0,-61.0,-15.0,-8.0,8.0,60.0,1650821965146809.0
-9.0,-3.0,36.0,46.0,4.0,-3.0,-6.0,-29.0,1650821965146809.0
28.0,-8.0,-37.0,-42.0,-12.0,2.0,-9.0,-5.0,1650821965147741.0
0.0,17.0,94.0,72.0,14.0,11.0,5.0,13.0,1650821965147741.0
46.0,-17.0,-77.0,-43.0,-9.0,-7.0,-10.0,2.0,1650821965168872.0
-32.0,-6.0,-47.0,-58.0,-16.0,-18.0,-5.0,38.0,1650821965168872.0
-21.0,-48.0,-52.0,5.0,0.0,-8.0,0.0,7.0,1650821965170869.0
-35.0,10.0,67.0,44.0,11.0,5.0,9.0,43.0,1650821965170869.0
36.0,4.0,16.0,2.0,5.0,7.0,2.0,-28.0,1650821965183003.0
9.0,24.0,41.0,-16.0,-19.0,-9.0,-3.0,-7.0,1650821965183003.0
14.0,-14.0,-23.0,-1.0,-1.0,-1.0,-5.0,-7.0,1650821965191899.0
7.0,-1.0,-19.0,-20.0,-3.0,-3.0,1.0,13.0,1650821965191899.0
-25.0,8.0,31.0,28.0,16.0,7.0,4.0,-1.0,1650821965206008.0
37.0,-3.0,12.0,23.0,6.0,-3.0,-1.0,51.0,1650821965206008.0
-8.0,0.0,9.0,5.0,-2.0,-9.0,-1.0,-42.0,1650821965208006.0
8.0,-12.0,-16.0,-1.0,-4.0,8.0,0.0,-12.0,1650821965208006.0
-18.0,8.0,54.0,29.0,9.0,12.0,4.0,-5.0,1650821965236301.0
-22.0,-11.0,-31.0,-23.0,-10.0,-1.0,3.0,17.0,1650821965236301.0
9.0,14.0,-21.0,-18.0,0.0,-4.0,-2.0,15.0,1650821965238276.0
23.0,-18.0,-27.0,-26.0,-15.0,-17.0,-8.0,5.0,1650821965238276.0
-26.0,-2.0,4.0,1.0,-2.0,-4.0,-5.0,-18.0,1650821965242265.0
3.0,7.0,26.0,18.0,15.0,15.0,16.0,50.0,1650821965242265.0
20.0,43.0,83.0,34.0,15.0,11.0,8.0,10.0,1650821965251287.0
-16.0,-10.0,-31.0,-13.0,-1.0,-1.0,-9.0,-81.0,1650821965251287.0
-7.0,-11.0,-24.0,31.0,-7.0,-11.0,-7.0,2.0,1650821965266875.0
-13.0,-12.0,-9.0,9.0,-1.0,-4.0,-2.0,-12.0,1650821965266875.0
8.0,17.0,-18.0,-17.0,-2.0,4.0,3.0,-2.0,1650821965267873.0
41.0,10.0,-23.0,-11.0,-3.0,3.0,8.0,19.0,1650821965267873.0
3.0,-9.0,-8.0,-4.0,2.0,-1.0,-3.0,3.0,1650821965296104.0
1.0,-1.0,28.0,2.0,1.0,-1.0,1.0,-11.0,1650821965296104.0
-10.0,8.0,21.0,-2.0,1.0,5.0,0.0,9.0,1650821965298030.0
-20.0,-9.0,-34.0,-8.0,3.0,-2.0,0.0,-20.0,1650821965298030.0
-11.0,35.0,83.0,11.0,5.0,13.0,10.0,3.0,1650821965303021.0
14.0,-52.0,-109.0,-31.0,-3.0,1.0,-10.0,-36.0,1650821965303021.0
-11.0,7.0,52.0,33.0,-1.0,-2.0,1.0,32.0,1650821965312056.0
-6.0,8.0,15.0,-15.0,-8.0,-11.0,5.0,60.0,1650821965312056.0
15.0,-4.0,-55.0,-74.0,-21.0,-14.0,-11.0,-57.0,1650821965326892.0
-9.0,17.0,6.0,33.0,12.0,7.0,3.0,-11.0,1650821965326892.0
-1.0,-3.0,18.0,-15.0,-14.0,-8.0,-6.0,-7.0,1650821965327866.0
10.0,0.0,-11.0,3.0,8.0,2.0,-2.0,15.0,1650821965327866.0
-3.0,23.0,59.0,55.0,14.0,8.0,8.0,11.0,1650821965348869.0
