EMG_s0,EMG_s1,EMG_s2,EMG_s3,EMG_s4,EMG_s5,EMG_s6,EMG_s7,timestamp
2.0,-3.0,-1.0,-20.0,10.0,10.0,4.0,-2.0,1650849065057637.0
-1.0,-2.0,0.0,-10.0,-11.0,-21.0,-3.0,-1.0,1650849065057637.0
0.0,2.0,0.0,14.0,3.0,16.0,-2.0,-2.0,1650849065057637.0
1.0,-3.0,1.0,-15.0,-7.0,-15.0,-3.0,0.0,1650849065057637.0
-2.0,-2.0,-2.0,-7.0,-8.0,-5.0,-1.0,-2.0,1650849065058633.0
0.0,2.0,0.0,12.0,11.0,9.0,1.0,3.0,1650849065058633.0
-1.0,0.0,-1.0,-10.0,-3.0,-10.0,-1.0,-2.0,1650849065059631.0
-2.0,0.0,6.0,-4.0,2.0,9.0,-1.0,-2.0,1650849065059631.0
-1.0,1.0,-8.0,5.0,3.0,1.0,0.0,0.0,1650849065070601.0
-1.0,-1.0,0.0,-1.0,-5.0,0.0,-2.0,-1.0,1650849065070601.0
0.0,-5.0,1.0,-11.0,-3.0,-4.0,-1.0,-2.0,1650849065080573.0
-1.0,-1.0,0.0,-1.0,-2.0,-2.0,1.0,0.0,1650849065080573.0
0.0,0.0,0.0,8.0,-3.0,-3.0,-1.0,1.0,1650849065086558.0
0.0,0.0,0.0,-7.0,3.0,6.0,1.0,-2.0,1650849065086558.0
0.0,-2.0,2.0,-6.0,7.0,6.0,4.0,1.0,1650849065100671.0
-1.0,1.0,-1.0,4.0,1.0,-1.0,0.0,-2.0,1650849065100671.0
-2.0,0.0,1.0,-4.0,-6.0,-3.0,-2.0,-3.0,1650849065108622.0
-1.0,-4.0,-3.0,-5.0,-14.0,-20.0,-4.0,-2.0,1650849065108622.0
0.0,0.0,0.0,4.0,4.0,24.0,2.0,-1.0,1650849065124335.0
-1.0,-2.0,-6.0,-4.0,1.0,-12.0,0.0,-1.0,1650849065124335.0
-2.0,-1.0,1.0,-1.0,-1.0,8.0,-2.0,0.0,1650849065131326.0
1.0,0.0,2.0,-1.0,-2.0,5.0,1.0,-1.0,1650849065131326.0
-1.0,0.0,-1.0,0.0,3.0,-8.0,0.0,1.0,1650849065145280.0
1.0,-2.0,-4.0,0.0,-1.0,4.0,-1.0,1.0,1650849065145280.0
-1.0,1.0,1.0,6.0,-5.0,5.0,0.0,1.0,1650849065185607.0
2.0,-2.0,-7.0,-13.0,5.0,-1.0,2.0,-1.0,1650849065185607.0
-1.0,-1.0,2.0,3.0,3.0,-1.0,0.0,1.0,1650849065187583.0
0.0,1.0,-4.0,7.0,-6.0,1.0,-2.0,0.0,1650849065187583.0
-3.0,-3.0,-1.0,-12.0,5.0,-2.0,-1.0,-3.0,1650849065190575.0
0.0,0.0,2.0,-1.0,-5.0,-2.0,0.0,-1.0,1650849065190575.0
1.0,3.0,0.0,10.0,7.0,5.0,1.0,1.0,1650849065191573.0
0.0,-2.0,-4.0,-8.0,-14.0,-19.0,-1.0,0.0,1650849065191573.0
-1.0,1.0,1.0,0.0,13.0,25.0,0.0,1.0,1650849065197556.0
-2.0,0.0,1.0,6.0,-4.0,-6.0,1.0,1.0,1650849065197556.0
-1.0,0.0,-3.0,1.0,3.0,-4.0,-2.0,0.0,1650849065206533.0
0.0,-3.0,-2.0,-9.0,-4.0,0.0,0.0,-1.0,1650849065206533.0
-1.0,-3.0,-4.0,1.0,-13.0,-36.0,-7.0,-5.0,1650849065212547.0
-1.0,1.0,0.0,8.0,11.0,39.0,2.0,-1.0,1650849065212547.0
-1.0,-1.0,2.0,-11.0,-10.0,-7.0,3.0,-1.0,1650849065227630.0
0.0,0.0,2.0,5.0,9.0,-1.0,0.0,1.0,1650849065227630.0
2.0,2.0,-2.0,2.0,-2.0,-2.0,2.0,1.0,1650849065234545.0
-2.0,-1.0,1.0,1.0,5.0,-10.0,-6.0,-1.0,1650849065234545.0
0.0,-2.0,-2.0,-5.0,-7.0,-1.0,0.0,0.0,1650849065258508.0
-2.0,0.0,1.0,2.0,-2.0,7.0,-2.0,-1.0,1650849065258508.0
0.0,2.0,-5.0,-4.0,2.0,-8.0,-2.0,-1.0,1650849065258508.0
0.0,-1.0,0.0,-3.0,-6.0,-12.0,-1.0,-3.0,1650849065258508.0
0.0,0.0,0.0,4.0,11.0,22.0,2.0,0.0,1650849065273555.0
0.0,-2.0,-3.0,0.0,3.0,1.0,2.0,0.0,1650849065273555.0
1.0,-1.0,4.0,-2.0,-12.0,2.0,-1.0,0.0,1650849065273555.0
1.0,-1.0,-1.0,0.0,-4.0,-8.0,0.0,1.0,1650849065273555.0
-1.0,1.0,-1.0,-1.0,1.0,-6.0,-3.0,-1.0,1650849065295716.0
-1.0,1.0,1.0,1.0,9.0,5.0,0.0,0.0,1650849065295716.0
0.0,-1.0,-3.0,-4.0,4.0,10.0,4.0,2.0,1650849065296647.0
-1.0,-1.0,0.0,0.0,-5.0,-7.0,-3.0,0.0,1650849065296647.0
-1.0,-3.0,-2.0,-6.0,-10.0,-19.0,-6.0,-3.0,1650849065318598.0
-1.0,1.0,1.0,3.0,9.0,25.0,3.0,1.0,1650849065318598.0
0.0,-2.0,-4.0,2.0,0.0,-5.0,-1.0,-1.0,1650849065318598.0
-1.0,0.0,-2.0,-2.0,1.0,5.0,0.0,1.0,1650849065318598.0
-1.0,-1.0,1.0,-1.0,-5.0,-11.0,-2.0,-1.0,1650849065341705.0
-1.0,1.0,-1.0,-1.0,-1.0,-7.0,-1.0,-1.0,1650849065341705.0
0.0,-1.0,-1.0,2.0,3.0,3.0,0.0,0.0,1650849065341705.0
-3.0,-2.0,1.0,-4.0,-4.0,-7.0,-1.0,-2.0,1650849065341705.0
-1.0,0.0,0.0,1.0,-1.0,0.0,-3.0,-1.0,1650849065355718.0
-3.0,-3.0,-3.0,-2.0,-4.0,5.0,9.0,0.0,1650849065355718.0
0.0,1.0,6.0,5.0,11.0,16.0,3.0,1.0,1650849065356748.0
0.0,-2.0,-7.0,-5.0,-1.0,-8.0,-1.0,-2.0,1650849065356748.0
-2.0,-1.0,1.0,-1.0,2.0,-6.0,-2.0,-1.0,1650849065377802.0
1.0,-1.0,-2.0,-3.0,-5.0,-11.0,-4.0,-2.0,1650849065377802.0
-1.0,-2.0,-2.0,-3.0,-5.0,-5.0,-2.0,-1.0,1650849065378803.0
-2.0,2.0,3.0,2.0,-4.0,-6.0,-1.0,-1.0,1650849065378803.0
1.0,2.0,-1.0,0.0,-5.0,1.0,3.0,2.0,1650849065392774.0
-2.0,1.0,-1.0,3.0,11.0,18.0,0.0,0.0,1650849065392774.0
0.0,-1.0,2.0,1.0,4.0,4.0,1.0,0.0,1650849065393771.0
-3.0,-1.0,-1.0,-4.0,-5.0,-2.0,-3.0,-1.0,1650849065393771.0
-1.0,-3.0,-3.0,0.0,-4.0,-1.0,-1.0,-2.0,1650849065415873.0
-1.0,-2.0,-2.0,-1.0,-4.0,-9.0,-3.0,1.0,1650849065415873.0
-1.0,0.0,-2.0,-2.0,-3.0,-7.0,0.0,0.0,1650849065416879.0
0.0,-1.0,0.0,-1.0,-3.0,-3.0,-1.0,0.0,1650849065416879.0
0.0,-1.0,-2.0,0.0,7.0,6.0,1.0,0.0,1650849065437866.0
0.0,0.0,1.0,-2.0,-1.0,-18.0,-6.0,-1.0,1650849065437866.0
-1.0,1.0,1.0,3.0,-7.0,41.0,14.0,4.0,1650849065438807.0
3.0,1.0,4.0,4.0,16.0,3.0,3.0,3.0,1650849065438807.0
-1.0,0.0,-1.0,-2.0,3.0,3.0,-1.0,-2.0,1650849065452758.0
0.0,-3.0,-2.0,-3.0,-6.0,-20.0,-6.0,-3.0,1650849065452758.0
-1.0,-2.0,-3.0,-4.0,-9.0,-18.0,-8.0,-5.0,1650849065453767.0
0.0,0.0,0.0,1.0,-4.0,8.0,1.0,-1.0,1650849065453767.0
0.0,-1.0,2.0,1.0,0.0,4.0,1.0,-1.0,1650849065475727.0
-1.0,-1.0,-7.0,-5.0,-11.0,-28.0,-4.0,-1.0,1650849065475727.0
0.0,0.0,0.0,3.0,2.0,25.0,-1.0,-1.0,1650849065476715.0
1.0,1.0,6.0,5.0,14.0,12.0,6.0,3.0,1650849065476715.0
-1.0,-2.0,-2.0,-3.0,0.0,-3.0,0.0,1.0,1650849065497665.0
1.0,0.0,3.0,-3.0,0.0,7.0,2.0,-1.0,1650849065497665.0
-1.0,-1.0,0.0,-4.0,-7.0,-19.0,-4.0,-1.0,1650849065498635.0
-2.0,0.0,-4.0,-4.0,-7.0,-9.0,-3.0,-1.0,1650849065498635.0
1.0,-2.0,-1.0,-1.0,-5.0,9.0,1.0,-1.0,1650849065513595.0
-1.0,-1.0,2.0,4.0,3.0,4.0,1.0,0.0,1650849065513595.0
-1.0,1.0,0.0,0.0,0.0,-23.0,-7.0,-2.0,1650849065513595.0
2.0,-3.0,-1.0,0.0,-9.0,6.0,-2.0,-3.0,1650849065513595.0
0.0,2.0,2.0,3.0,11.0,34.0,15.0,5.0,1650849065535603.0
-1.0,1.0,3.0,2.0,14.0,11.0,2.0,0.0,1650849065535603.0
0.0,-1.0,-2.0,-1.0,3.0,-9.0,-3.0,-2.0,1650849065536535.0
-2.0,-5.0,-5.0,-5.0,-6.0,-15.0,-2.0,-1.0,1650849065536535.0
-2.0,-2.0,-2.0,-1.0,-15.0,-14.0,-9.0,-4.0,1650849065566040.0
1.0,-1.0,0.0,2.0,-3.0,7.0,0.0,0.0,1650849065566040.0
0.0,0.0,4.0,-1.0,6.0,-2.0,2.0,-2.0,1650849065567027.0
1.0,0.0,-3.0,-1.0,-6.0,-3.0,-1.0,-1.0,1650849065567027.0
-1.0,0.0,0.0,-2.0,-2.0,-17.0,-5.0,-1.0,1650849065572010.0
-2.0,1.0,1.0,2.0,14.0,39.0,5.0,1.0,1650849065572010.0
0.0,-2.0,2.0,-3.0,-3.0,-7.0,2.0,0.0,1650849065581016.0
0.0,0.0,-4.0,1.0,-6.0,1.0,-1.0,0.0,1650849065581016.0
-1.0,0.0,0.0,-1.0,3.0,-7.0,-1.0,-1.0,1650849065595973.0
-2.0,-2.0,0.0,-5.0,-9.0,-18.0,-4.0,-2.0,1650849065595973.0
0.0,1.0,0.0,-1.0,-10.0,-12.0,-2.0,-2.0,1650849065595973.0
0.0,1.0,1.0,1.0,9.0,17.0,2.0,-1.0,1650849065595973.0
0.0,2.0,-4.0,-3.0,-2.0,-6.0,1.0,0.0,1650849065617887.0
0.0,0.0,3.0,5.0,6.0,12.0,1.0,0.0,1650849065617887.0
-1.0,-4.0,-5.0,-2.0,3.0,4.0,1.0,0.0,1650849065618884.0
-1.0,-2.0,0.0,-1.0,-1.0,-12.0,-1.0,-1.0,1650849065618884.0
0.0,-1.0,-3.0,0.0,3.0,4.0,-1.0,-2.0,1650849065632847.0
-1.0,2.0,1.0,-3.0,-9.0,-6.0,-1.0,0.0,1650849065632847.0
0.0,-1.0,0.0,0.0,2.0,-2.0,-2.0,0.0,1650849065640825.0
-1.0,-3.0,-1.0,-3.0,-4.0,-16.0,-4.0,-2.0,1650849065640825.0
0.0,-2.0,1.0,0.0,-4.0,7.0,4.0,0.0,1650849065655899.0
1.0,1.0,2.0,4.0,18.0,38.0,9.0,3.0,1650849065655899.0
-2.0,-2.0,0.0,-2.0,-6.0,-3.0,-2.0,0.0,1650849065656887.0
1.0,0.0,1.0,1.0,8.0,1.0,-1.0,-1.0,1650849065656887.0
-1.0,-1.0,0.0,-2.0,-4.0,-15.0,-7.0,-1.0,1650849065686843.0
-1.0,-1.0,-6.0,-4.0,-13.0,-17.0,-5.0,-2.0,1650849065686843.0
2.0,0.0,-1.0,-2.0,-3.0,4.0,-1.0,0.0,1650849065686843.0
1.0,0.0,2.0,3.0,3.0,-1.0,1.0,1.0,1650849065686843.0
0.0,-1.0,2.0,1.0,7.0,18.0,0.0,-1.0,1650849065692798.0
-1.0,-2.0,-2.0,-6.0,-6.0,-15.0,-2.0,-2.0,1650849065692798.0
-1.0,-2.0,-1.0,2.0,-6.0,-1.0,-3.0,-2.0,1650849065700778.0
-2.0,-1.0,-1.0,2.0,0.0,3.0,2.0,1.0,1650849065700778.0
0.0,0.0,4.0,3.0,2.0,-1.0,0.0,-1.0,1650849065715765.0
0.0,0.0,-8.0,-4.0,0.0,-6.0,-1.0,0.0,1650849065715765.0
-1.0,-1.0,-1.0,-2.0,1.0,-4.0,-1.0,-1.0,1650849065716736.0
-1.0,-2.0,0.0,-1.0,0.0,8.0,3.0,-1.0,1650849065716736.0
-1.0,0.0,-5.0,-3.0,-4.0,-1.0,0.0,-2.0,1650849065737706.0
-1.0,-1.0,2.0,1.0,-5.0,-8.0,1.0,-2.0,1650849065737706.0
-2.0,0.0,-3.0,0.0,2.0,-2.0,-1.0,0.0,1650849065738676.0
-1.0,1.0,-1.0,-3.0,0.0,4.0,-2.0,-1.0,1650849065738676.0
0.0,-2.0,-1.0,-3.0,-5.0,-28.0,-5.0,-3.0,1650849065752706.0
-1.0,-2.0,1.0,4.0,-1.0,29.0,7.0,0.0,1650849065752706.0
2.0,2.0,3.0,2.0,15.0,17.0,9.0,3.0,1650849065760618.0
-1.0,2.0,3.0,3.0,5.0,3.0,1.0,2.0,1650849065760618.0
1.0,-1.0,-3.0,-1.0,-6.0,-5.0,0.0,1.0,1650849065775605.0
-1.0,-3.0,-1.0,-3.0,-2.0,-27.0,-8.0,-4.0,1650849065775605.0
-2.0,0.0,-3.0,-2.0,-4.0,-1.0,-3.0,-2.0,1650849065776575.0
-1.0,-1.0,3.0,2.0,-5.0,6.0,0.0,-1.0,1650849065776575.0
1.0,0.0,0.0,-2.0,-3.0,-4.0,-2.0,-1.0,1650849065798523.0
1.0,0.0,-3.0,-2.0,1.0,-1.0,-1.0,0.0,1650849065798523.0
0.0,-1.0,0.0,-2.0,-4.0,-5.0,-1.0,1.0,1650849065798523.0
-2.0,-2.0,-2.0,-5.0,-8.0,-4.0,-3.0,-2.0,1650849065798523.0
0.0,0.0,-2.0,1.0,10.0,12.0,0.0,0.0,1650849065812507.0
0.0,-1.0,3.0,2.0,-3.0,3.0,0.0,-1.0,1650849065812507.0
1.0,1.0,-1.0,2.0,14.0,13.0,3.0,1.0,1650849065820525.0
1.0,-1.0,0.0,-2.0,-9.0,-16.0,-2.0,-1.0,1650849065820525.0
-3.0,0.0,-1.0,-1.0,1.0,6.0,0.0,1.0,1650849065836027.0
1.0,0.0,0.0,-1.0,-11.0,-11.0,-4.0,0.0,1650849065836027.0
-1.0,-1.0,-2.0,-1.0,-3.0,-18.0,-4.0,-2.0,1650849065836956.0
0.0,-1.0,-1.0,-2.0,10.0,24.0,3.0,-1.0,1650849065836956.0
0.0,-1.0,0.0,-1.0,-2.0,-4.0,-2.0,0.0,1650849065858009.0
-1.0,-1.0,1.0,1.0,-7.0,12.0,0.0,1.0,1650849065858009.0
-1.0,-1.0,-1.0,-1.0,-6.0,-22.0,-5.0,-2.0,1650849065859006.0
0.0,1.0,-1.0,2.0,1.0,8.0,-3.0,0.0,1650849065859006.0
2.0,1.0,0.0,1.0,6.0,5.0,4.0,3.0,1650849065872975.0
-2.0,-3.0,-1.0,-3.0,3.0,-14.0,-3.0,-1.0,1650849065872975.0
-2.0,0.0,-2.0,-1.0,-5.0,4.0,0.0,-2.0,1650849065880982.0
-1.0,-1.0,3.0,1.0,-9.0,-2.0,1.0,1.0,1650849065880982.0
-3.0,-1.0,-4.0,-1.0,4.0,-1.0,-2.0,0.0,1650849065895937.0
1.0,-2.0,-3.0,0.0,3.0,4.0,0.0,0.0,1650849065895937.0
-1.0,-3.0,-1.0,0.0,-1.0,-2.0,-2.0,-1.0,1650849065895937.0
0.0,-1.0,-6.0,-4.0,-5.0,-23.0,-3.0,-2.0,1650849065895937.0
0.0,-1.0,0.0,0.0,-3.0,25.0,2.0,0.0,1650849065917849.0
0.0,0.0,2.0,-1.0,-3.0,-23.0,-2.0,1.0,1650849065917849.0
0.0,1.0,2.0,2.0,10.0,28.0,6.0,3.0,1650849065918858.0
-1.0,-1.0,-3.0,-7.0,-5.0,-7.0,-1.0,-2.0,1650849065918858.0
-1.0,-2.0,1.0,2.0,-3.0,-6.0,-3.0,-1.0,1650849065932810.0
0.0,1.0,-2.0,-1.0,1.0,-3.0,-1.0,-1.0,1650849065932810.0
0.0,-1.0,-2.0,-2.0,-3.0,-12.0,-6.0,-3.0,1650849065947797.0
-1.0,0.0,0.0,2.0,4.0,18.0,7.0,0.0,1650849065947797.0
-1.0,-1.0,-2.0,1.0,-3.0,6.0,0.0,-1.0,1650849065963841.0
-1.0,-1.0,4.0,2.0,-2.0,1.0,1.0,1.0,1650849065963841.0
2.0,0.0,0.0,2.0,6.0,1.0,1.0,1.0,1650849065964811.0
0.0,-1.0,0.0,1.0,10.0,1.0,0.0,0.0,1650849065964811.0
-2.0,-2.0,-1.0,-4.0,-12.0,-10.0,-2.0,-3.0,1650849065986863.0
-2.0,-1.0,-2.0,1.0,7.0,9.0,0.0,0.0,1650849065986863.0
-3.0,-1.0,2.0,-2.0,-13.0,-7.0,-2.0,-1.0,1650849065986863.0
-1.0,-1.0,0.0,1.0,4.0,-5.0,-3.0,-1.0,1650849065986863.0
0.0,1.0,0.0,-2.0,3.0,0.0,2.0,0.0,1650849066001825.0
-1.0,-3.0,-1.0,-7.0,-15.0,-17.0,-7.0,-3.0,1650849066001825.0
0.0,2.0,-6.0,4.0,15.0,30.0,8.0,2.0,1650849066002822.0
-2.0,-1.0,0.0,-2.0,-4.0,-6.0,-1.0,-1.0,1650849066002822.0
-2.0,-1.0,-2.0,-2.0,-4.0,-16.0,-3.0,-3.0,1650849066015787.0
0.0,-1.0,3.0,2.0,3.0,3.0,0.0,0.0,1650849066015787.0
0.0,-1.0,-2.0,0.0,-5.0,-4.0,0.0,-1.0,1650849066016786.0
0.0,-2.0,-3.0,-2.0,-6.0,-1.0,-2.0,1.0,1650849066016786.0
-1.0,-2.0,-1.0,1.0,8.0,-10.0,-3.0,0.0,1650849066038585.0
-3.0,1.0,0.0,-3.0,0.0,9.0,-3.0,-1.0,1650849066038585.0
-1.0,-2.0,2.0,-3.0,-12.0,-10.0,-2.0,-1.0,1650849066038585.0
1.0,3.0,1.0,2.0,4.0,6.0,2.0,2.0,1650849066038585.0
0.0,-2.0,1.0,1.0,4.0,-5.0,1.0,1.0,1650849066061671.0
1.0,-1.0,0.0,1.0,11.0,8.0,2.0,1.0,1650849066061671.0
0.0,-1.0,-1.0,-5.0,2.0,7.0,3.0,0.0,1650849066061671.0
-3.0,-1.0,-2.0,-3.0,-11.0,-8.0,-2.0,0.0,1650849066061671.0
0.0,-1.0,-1.0,-1.0,-6.0,-3.0,-2.0,-3.0,1650849066075633.0
-3.0,1.0,-3.0,-1.0,-10.0,-17.0,-1.0,-3.0,1650849066075633.0
0.0,0.0,1.0,3.0,8.0,22.0,4.0,0.0,1650849066076604.0
1.0,0.0,-2.0,-3.0,-2.0,-4.0,-1.0,0.0,1650849066076604.0
0.0,0.0,1.0,2.0,3.0,7.0,2.0,1.0,1650849066098552.0
1.0,2.0,2.0,-2.0,4.0,-2.0,1.0,-1.0,1650849066098552.0
0.0,-3.0,-2.0,-2.0,-9.0,-14.0,-7.0,-2.0,1650849066098552.0
-1.0,-1.0,0.0,0.0,-2.0,-13.0,-3.0,-1.0,1650849066098552.0
-2.0,0.0,-2.0,-3.0,-9.0,20.0,1.0,-1.0,1650849066121497.0
1.0,-1.0,1.0,5.0,12.0,19.0,6.0,2.0,1650849066121497.0
-1.0,0.0,3.0,1.0,0.0,-8.0,-1.0,-1.0,1650849066122481.0
-1.0,0.0,-6.0,-1.0,8.0,2.0,-1.0,-2.0,1650849066122481.0
-1.0,-2.0,5.0,-3.0,-9.0,-28.0,-5.0,-1.0,1650849066135456.0
-1.0,-1.0,-5.0,0.0,-13.0,14.0,0.0,-3.0,1650849066135456.0
-2.0,-1.0,0.0,1.0,9.0,0.0,-2.0,0.0,1650849066136445.0
1.0,-2.0,-3.0,-1.0,-6.0,-10.0,-1.0,-2.0,1650849066136445.0
-1.0,1.0,-2.0,3.0,10.0,12.0,4.0,0.0,1650849066157387.0
0.0,-2.0,1.0,-1.0,-4.0,-4.0,-1.0,0.0,1650849066157387.0
-1.0,-2.0,0.0,-5.0,-10.0,-23.0,-5.0,-3.0,1650849066165366.0
0.0,0.0,2.0,5.0,6.0,28.0,3.0,1.0,1650849066165366.0
1.0,-2.0,-1.0,-3.0,-1.0,-6.0,-2.0,0.0,1650849066181323.0
-1.0,0.0,-2.0,-2.0,2.0,5.0,-1.0,1.0,1650849066181323.0
0.0,-2.0,-2.0,-2.0,-7.0,-23.0,-4.0,0.0,1650849066182321.0
-2.0,-1.0,1.0,3.0,-7.0,26.0,2.0,0.0,1650849066182321.0
1.0,1.0,-2.0,0.0,10.0,6.0,2.0,2.0,1650849066203452.0
-1.0,-1.0,-1.0,-3.0,6.0,-4.0,-3.0,-1.0,1650849066203452.0
0.0,0.0,1.0,-2.0,-7.0,-3.0,1.0,-1.0,1650849066204395.0
-3.0,-1.0,1.0,-1.0,-5.0,-15.0,-6.0,-3.0,1650849066204395.0
0.0,0.0,0.0,-1.0,-8.0,-2.0,0.0,2.0,1650849066217349.0
-1.0,-1.0,0.0,0.0,-3.0,3.0,-1.0,0.0,1650849066217349.0
1.0,1.0,3.0,6.0,9.0,8.0,4.0,1.0,1650849066225366.0
-2.0,-3.0,2.0,-4.0,3.0,-7.0,-1.0,-1.0,1650849066225366.0
1.0,-2.0,-6.0,1.0,-8.0,-5.0,0.0,-1.0,1650849066241307.0
0.0,2.0,0.0,3.0,15.0,6.0,1.0,1.0,1650849066241307.0
1.0,-1.0,-2.0,-2.0,1.0,7.0,2.0,-1.0,1650849066242282.0
0.0,-2.0,2.0,0.0,-1.0,-3.0,0.0,0.0,1650849066242282.0
0.0,0.0,-1.0,-3.0,-1.0,-5.0,-1.0,1.0,1650849066263282.0
-2.0,-2.0,-2.0,-2.0,-5.0,-5.0,-1.0,-1.0,1650849066263282.0
-3.0,-1.0,-4.0,-3.0,-12.0,-4.0,-3.0,0.0,1650849066264259.0
2.0,2.0,0.0,2.0,6.0,8.0,2.0,2.0,1650849066264259.0
-1.0,2.0,1.0,-4.0,4.0,6.0,1.0,0.0,1650849066277245.0
-1.0,-2.0,-6.0,-2.0,-3.0,-7.0,-1.0,0.0,1650849066277245.0
-2.0,0.0,3.0,0.0,-4.0,-10.0,-4.0,-3.0,1650849066285224.0
-2.0,-1.0,0.0,7.0,4.0,9.0,2.0,-1.0,1650849066285224.0
1.0,1.0,-1.0,1.0,3.0,14.0,0.0,0.0,1650849066301180.0
2.0,-1.0,2.0,-3.0,-1.0,-1.0,1.0,-1.0,1650849066301180.0
-2.0,0.0,-4.0,-1.0,0.0,-3.0,-2.0,0.0,1650849066302158.0
-1.0,-1.0,-3.0,-7.0,-11.0,-26.0,-7.0,-3.0,1650849066302158.0
-1.0,1.0,3.0,2.0,2.0,20.0,0.0,-2.0,1650849066324099.0
0.0,-1.0,-1.0,-1.0,-6.0,-11.0,2.0,0.0,1650849066324099.0
-1.0,-1.0,-3.0,0.0,1.0,-12.0,-4.0,-2.0,1650849066325102.0
2.0,3.0,1.0,1.0,9.0,29.0,7.0,2.0,1650849066325102.0
-1.0,-1.0,-1.0,-1.0,-3.0,-10.0,1.0,-1.0,1650849066337922.0
-2.0,0.0,1.0,1.0,-11.0,-10.0,-3.0,0.0,1650849066337922.0
-1.0,-1.0,-5.0,-5.0,3.0,4.0,0.0,-1.0,1650849066345901.0
-2.0,-1.0,1.0,0.0,-4.0,-16.0,-4.0,-4.0,1650849066345901.0
-2.0,-1.0,-1.0,3.0,3.0,7.0,3.0,0.0,1650849066360952.0
-1.0,-2.0,-2.0,-1.0,0.0,10.0,0.0,0.0,1650849066360952.0
1.0,0.0,-1.0,1.0,4.0,11.0,3.0,2.0,1650849066361922.0
-1.0,0.0,1.0,-3.0,0.0,-9.0,-1.0,-1.0,1650849066361922.0
0.0,-3.0,-1.0,-5.0,-10.0,-11.0,-4.0,-3.0,1650849066383861.0
-2.0,0.0,0.0,-2.0,0.0,-3.0,0.0,0.0,1650849066383861.0
-1.0,-1.0,0.0,2.0,3.0,9.0,1.0,1.0,1650849066384859.0
-1.0,-2.0,-4.0,-5.0,-7.0,-4.0,-1.0,-1.0,1650849066384859.0
0.0,-2.0,0.0,2.0,-7.0,-28.0,-4.0,-1.0,1650849066397823.0
0.0,2.0,3.0,9.0,21.0,49.0,10.0,3.0,1650849066397823.0
-1.0,3.0,-2.0,-5.0,-2.0,1.0,1.0,0.0,1650849066405869.0
1.0,-12.0,-6.0,-3.0,-1.0,0.0,0.0,1.0,1650849066405869.0
0.0,18.0,13.0,-5.0,-2.0,-5.0,-1.0,0.0,1650849066421762.0
-1.0,-7.0,-14.0,-6.0,-4.0,-18.0,-7.0,-3.0,1650849066421762.0
-2.0,2.0,16.0,28.0,3.0,3.0,2.0,1.0,1650849066421762.0
0.0,2.0,3.0,-6.0,1.0,2.0,1.0,-1.0,1650849066421762.0
3.0,-4.0,-16.0,0.0,-11.0,-25.0,-4.0,-2.0,1650849066443701.0
6.0,-19.0,-15.0,-18.0,-3.0,23.0,3.0,1.0,1650849066443701.0
-1.0,-6.0,15.0,-1.0,9.0,2.0,4.0,-1.0,1650849066444698.0
-4.0,14.0,-7.0,-11.0,-4.0,-15.0,-3.0,-3.0,1650849066444698.0
1.0,-4.0,0.0,12.0,-5.0,14.0,2.0,1.0,1650849066457663.0
14.0,13.0,20.0,9.0,10.0,-9.0,0.0,-13.0,1650849066457663.0
-45.0,-9.0,-20.0,-15.0,-5.0,-6.0,-1.0,13.0,1650849066465644.0
-1.0,22.0,0.0,-6.0,-2.0,6.0,1.0,0.0,1650849066465644.0
9.0,-33.0,-4.0,-2.0,4.0,-4.0,-2.0,-2.0,1650849066481602.0
-19.0,1.0,-2.0,-8.0,-5.0,-10.0,-3.0,-3.0,1650849066481602.0
6.0,11.0,8.0,19.0,1.0,10.0,-2.0,-6.0,1650849066482600.0
9.0,3.0,-29.0,-3.0,-12.0,-12.0,-2.0,-2.0,1650849066482600.0
19.0,-6.0,16.0,8.0,12.0,17.0,5.0,3.0,1650849066503546.0
-34.0,18.0,32.0,14.0,2.0,-7.0,-2.0,-9.0,1650849066503546.0
33.0,-13.0,-4.0,0.0,3.0,1.0,-2.0,20.0,1650849066504540.0
-61.0,-15.0,11.0,2.0,2.0,-5.0,-3.0,-16.0,1650849066504540.0
22.0,16.0,-24.0,-11.0,9.0,14.0,6.0,6.0,1650849066526482.0
-1.0,-2.0,5.0,-10.0,-17.0,-7.0,0.0,-7.0,1650849066526482.0
-1.0,26.0,35.0,23.0,-4.0,-10.0,-4.0,-7.0,1650849066527480.0
45.0,-18.0,-29.0,11.0,1.0,-11.0,5.0,21.0,1650849066527480.0
-14.0,-14.0,6.0,-10.0,10.0,28.0,3.0,3.0,1650849066541442.0
-5.0,5.0,-13.0,2.0,11.0,3.0,-1.0,6.0,1650849066541442.0
-2.0,-2.0,-11.0,-27.0,-14.0,-2.0,-2.0,-10.0,1650849066542440.0
-3.0,-3.0,19.0,12.0,-5.0,-8.0,-6.0,-7.0,1650849066542440.0
-16.0,3.0,-2.0,5.0,5.0,-19.0,-6.0,-4.0,1650849066563914.0
14.0,-9.0,-6.0,-1.0,-3.0,20.0,1.0,6.0,1650849066563914.0
2.0,-9.0,-12.0,-8.0,-3.0,0.0,0.0,-10.0,1650849066564912.0
6.0,0.0,17.0,9.0,14.0,13.0,1.0,-1.0,1650849066564912.0
2.0,9.0,5.0,-2.0,-7.0,-16.0,-3.0,0.0,1650849066585892.0
0.0,-7.0,-6.0,1.0,-4.0,-8.0,-1.0,-1.0,1650849066585892.0
4.0,-2.0,-18.0,-3.0,0.0,-2.0,-1.0,-3.0,1650849066587888.0
-3.0,-1.0,5.0,-1.0,-6.0,3.0,2.0,2.0,1650849066587888.0
-5.0,-1.0,-8.0,-12.0,-11.0,11.0,2.0,-2.0,1650849066599854.0
8.0,3.0,10.0,10.0,2.0,-15.0,-3.0,2.0,1650849066599854.0
2.0,-4.0,-17.0,-5.0,7.0,10.0,4.0,-2.0,1650849066608867.0
4.0,1.0,15.0,1.0,-1.0,-1.0,-2.0,1.0,1650849066608867.0
-8.0,1.0,1.0,5.0,-2.0,-9.0,-4.0,-6.0,1650849066623866.0
4.0,-3.0,-5.0,-6.0,-3.0,4.0,-1.0,2.0,1650849066623866.0
1.0,4.0,-12.0,-7.0,-4.0,-2.0,2.0,0.0,1650849066625855.0
0.0,-8.0,-3.0,0.0,7.0,5.0,-1.0,-1.0,1650849066625855.0
-6.0,1.0,5.0,-5.0,-6.0,-2.0,-2.0,-1.0,1650849066645911.0
-2.0,1.0,-11.0,-5.0,-5.0,-17.0,-2.0,-1.0,1650849066645911.0
0.0,-5.0,5.0,-5.0,-6.0,0.0,-3.0,-4.0,1650849066647887.0
14.0,8.0,-1.0,1.0,-6.0,1.0,0.0,-1.0,1650849066647887.0
3.0,-7.0,3.0,4.0,11.0,-3.0,-1.0,1.0,1650849066659840.0
8.0,3.0,-7.0,-5.0,1.0,6.0,1.0,3.0,1650849066659840.0
-6.0,-5.0,6.0,1.0,-1.0,12.0,-1.0,-4.0,1650849066668817.0
2.0,0.0,-4.0,1.0,4.0,-2.0,0.0,-1.0,1650849066668817.0
-7.0,1.0,-7.0,1.0,6.0,5.0,0.0,-3.0,1650849066683804.0
-3.0,-10.0,-5.0,-7.0,-10.0,-17.0,-5.0,-3.0,1650849066683804.0
-1.0,2.0,-3.0,-5.0,-14.0,-11.0,-1.0,0.0,1650849066685787.0
5.0,5.0,1.0,6.0,6.0,-2.0,3.0,5.0,1650849066685787.0
-4.0,2.0,12.0,7.0,11.0,19.0,3.0,0.0,1650849066706787.0
7.0,3.0,0.0,0.0,10.0,2.0,3.0,-2.0,1650849066706787.0
2.0,-12.0,-15.0,-4.0,-2.0,-7.0,-3.0,0.0,1650849066707712.0
-8.0,1.0,7.0,1.0,-4.0,-2.0,-3.0,-2.0,1650849066707712.0
-7.0,-11.0,-6.0,-5.0,-16.0,-12.0,-3.0,-3.0,1650849066719681.0
-2.0,13.0,7.0,8.0,3.0,2.0,1.0,1.0,1650849066719681.0
-4.0,0.0,-6.0,-6.0,0.0,1.0,0.0,-2.0,1650849066728659.0
2.0,-1.0,-7.0,-8.0,-5.0,0.0,-2.0,-2.0,1650849066728659.0
6.0,3.0,1.0,4.0,2.0,4.0,0.0,2.0,1650849066743645.0
-1.0,-2.0,3.0,-2.0,-4.0,-5.0,-1.0,1.0,1650849066743645.0
1.0,-4.0,0.0,6.0,12.0,6.0,2.0,-1.0,1650849066745612.0
-4.0,-5.0,-5.0,-9.0,1.0,4.0,0.0,-1.0,1650849066745612.0
-4.0,11.0,-1.0,6.0,-3.0,-4.0,-1.0,-4.0,1650849066765585.0
-1.0,-15.0,-1.0,-2.0,-10.0,-6.0,-2.0,0.0,1650849066765585.0
-2.0,6.0,7.0,-3.0,1.0,3.0,0.0,-1.0,1650849066773536.0
-1.0,-4.0,4.0,7.0,4.0,4.0,1.0,0.0,1650849066773536.0
0.0,0.0,0.0,-4.0,-1.0,-6.0,-4.0,-2.0,1650849066779521.0
-1.0,1.0,-4.0,-3.0,-2.0,6.0,0.0,-1.0,1650849066779521.0
6.0,-1.0,4.0,6.0,-1.0,1.0,0.0,2.0,1650849066794511.0
-4.0,-4.0,0.0,3.0,2.0,3.0,0.0,-1.0,1650849066794511.0
-1.0,1.0,-2.0,-5.0,-1.0,0.0,-1.0,0.0,1650849066804016.0
-1.0,-1.0,-1.0,-1.0,-1.0,-14.0,-2.0,0.0,1650849066804016.0
-1.0,0.0,1.0,-7.0,-9.0,-7.0,-3.0,0.0,1650849066805014.0
-4.0,0.0,-2.0,-5.0,-4.0,-1.0,0.0,-2.0,1650849066805014.0
1.0,0.0,4.0,5.0,9.0,27.0,4.0,1.0,1650849066826044.0
1.0,0.0,-2.0,0.0,-1.0,-6.0,-1.0,-2.0,1650849066826044.0
-4.0,0.0,4.0,5.0,2.0,-11.0,-4.0,-3.0,1650849066828040.0
-2.0,-3.0,-4.0,-4.0,-5.0,8.0,7.0,2.0,1650849066828040.0
1.0,-1.0,-6.0,-5.0,-5.0,-8.0,-1.0,0.0,1650849066840070.0
-1.0,-5.0,2.0,4.0,5.0,4.0,0.0,0.0,1650849066840070.0
0.0,12.0,-5.0,-5.0,-5.0,-12.0,-3.0,-2.0,1650849066848983.0
-2.0,-3.0,4.0,5.0,0.0,3.0,-5.0,-2.0,1650849066848983.0
-2.0,-9.0,-3.0,0.0,1.0,0.0,1.0,-1.0,1650849066863942.0
2.0,8.0,7.0,0.0,-1.0,1.0,2.0,3.0,1650849066863942.0
-2.0,-4.0,6.0,4.0,2.0,-1.0,0.0,-1.0,1650849066864941.0
-1.0,-5.0,-11.0,-7.0,0.0,8.0,0.0,1.0,1650849066864941.0
0.0,1.0,0.0,-2.0,2.0,1.0,2.0,2.0,1650849066886883.0
-2.0,-18.0,-5.0,7.0,-6.0,-7.0,-4.0,-2.0,1650849066886883.0
1.0,21.0,9.0,1.0,-2.0,1.0,-1.0,0.0,1650849066888876.0
0.0,1.0,0.0,-1.0,7.0,11.0,1.0,-2.0,1650849066888876.0
-3.0,-6.0,-1.0,-6.0,-9.0,-24.0,-4.0,-4.0,1650849066899846.0
0.0,-2.0,-6.0,2.0,9.0,6.0,-2.0,-1.0,1650849066899846.0
0.0,-4.0,4.0,-1.0,8.0,37.0,10.0,2.0,1650849066916801.0
-1.0,1.0,1.0,-2.0,-4.0,-13.0,-5.0,-1.0,1650849066916801.0
-1.0,4.0,-2.0,1.0,-2.0,-5.0,-3.0,-1.0,1650849066923785.0
-2.0,3.0,-5.0,-7.0,-8.0,-8.0,-2.0,-1.0,1650849066923785.0
-3.0,-6.0,-4.0,3.0,1.0,-6.0,-3.0,-1.0,1650849066925778.0
-1.0,0.0,2.0,-6.0,-3.0,-3.0,0.0,-2.0,1650849066925778.0
2.0,2.0,-1.0,9.0,5.0,2.0,2.0,1.0,1650849066946721.0
0.0,2.0,3.0,4.0,-6.0,-13.0,-4.0,-2.0,1650849066946721.0
1.0,-5.0,1.0,2.0,4.0,23.0,5.0,0.0,1650849066952715.0
0.0,-2.0,-1.0,-2.0,-1.0,-4.0,-2.0,-1.0,1650849066952715.0
-2.0,2.0,-1.0,-7.0,-9.0,-9.0,-4.0,-2.0,1650849066959690.0
0.0,2.0,-6.0,-6.0,4.0,13.0,3.0,1.0,1650849066959690.0
0.0,-4.0,3.0,-2.0,4.0,-9.0,-3.0,0.0,1650849066968666.0
1.0,1.0,-10.0,0.0,-13.0,-17.0,-4.0,0.0,1650849066968666.0
-1.0,-1.0,3.0,2.0,8.0,20.0,4.0,1.0,1650849066983622.0
-2.0,0.0,1.0,1.0,-4.0,-14.0,-4.0,-1.0,1650849066983622.0
-2.0,-4.0,-10.0,-10.0,0.0,-4.0,-3.0,-1.0,1650849066985618.0
0.0,-2.0,-2.0,7.0,10.0,30.0,8.0,4.0,1650849066985618.0
-1.0,-2.0,-6.0,-5.0,-13.0,-16.0,-3.0,0.0,1650849067006563.0
1.0,-2.0,-3.0,1.0,4.0,10.0,1.0,-1.0,1650849067006563.0
-2.0,-4.0,7.0,4.0,-4.0,-18.0,-4.0,-1.0,1650849067007559.0
0.0,8.0,1.0,-5.0,-8.0,-20.0,-4.0,0.0,1650849067007559.0
-2.0,0.0,1.0,2.0,3.0,21.0,0.0,0.0,1650849067019526.0
1.0,1.0,-1.0,7.0,6.0,-3.0,5.0,0.0,1650849067019526.0
1.0,-2.0,5.0,4.0,2.0,0.0,0.0,-1.0,1650849067028502.0
-2.0,-3.0,-3.0,-9.0,0.0,-3.0,-3.0,-2.0,1650849067028502.0
-1.0,-2.0,-6.0,4.0,-5.0,-4.0,-2.0,0.0,1650849067043590.0
-1.0,3.0,2.0,-5.0,-6.0,1.0,1.0,-1.0,1650849067043590.0
1.0,-1.0,0.0,2.0,2.0,6.0,0.0,1.0,1650849067045572.0
-3.0,-1.0,5.0,-1.0,-1.0,-4.0,-1.0,1.0,1650849067045572.0
-1.0,0.0,-7.0,-3.0,2.0,-6.0,-2.0,0.0,1650849067066521.0
-1.0,-1.0,8.0,1.0,-3.0,3.0,0.0,0.0,1650849067066521.0
1.0,0.0,-13.0,0.0,1.0,4.0,2.0,0.0,1650849067067520.0
1.0,1.0,9.0,1.0,1.0,-5.0,-2.0,-4.0,1650849067067520.0
-2.0,-6.0,-4.0,-8.0,-11.0,-5.0,-4.0,-2.0,1650849067079459.0
0.0,9.0,2.0,-3.0,1.0,7.0,2.0,0.0,1650849067079459.0
-1.0,-2.0,2.0,8.0,-6.0,-6.0,-1.0,-1.0,1650849067089434.0
-1.0,-4.0,-5.0,0.0,5.0,0.0,-2.0,-1.0,1650849067089434.0
-2.0,6.0,3.0,-6.0,-5.0,-29.0,-6.0,-2.0,1650849067103397.0
-1.0,-1.0,-1.0,5.0,9.0,42.0,2.0,0.0,1650849067103397.0
-2.0,1.0,-1.0,-9.0,-12.0,-27.0,-4.0,-4.0,1650849067110381.0
2.0,-3.0,3.0,5.0,5.0,22.0,2.0,1.0,1650849067110381.0
1.0,2.0,1.0,-1.0,5.0,1.0,4.0,1.0,1650849067126334.0
-1.0,-2.0,0.0,2.0,0.0,-15.0,-2.0,-2.0,1650849067126334.0
-2.0,-2.0,-5.0,3.0,10.0,11.0,1.0,1.0,1650849067128334.0
-4.0,-1.0,1.0,0.0,-5.0,-12.0,-2.0,1.0,1650849067128334.0
-2.0,1.0,1.0,-1.0,-3.0,-8.0,-3.0,0.0,1650849067140336.0
-1.0,0.0,1.0,-6.0,-1.0,4.0,-2.0,-1.0,1650849067140336.0
0.0,-4.0,-6.0,-12.0,-7.0,2.0,3.0,-1.0,1650849067149293.0
1.0,3.0,0.0,11.0,10.0,-2.0,2.0,-2.0,1650849067149293.0
1.0,-2.0,3.0,3.0,1.0,15.0,3.0,0.0,1650849067163288.0
0.0,2.0,1.0,-2.0,-1.0,-13.0,-2.0,0.0,1650849067163288.0
-1.0,0.0,2.0,-2.0,-2.0,-4.0,-2.0,1.0,1650849067165283.0
1.0,-4.0,-5.0,-6.0,-5.0,-2.0,-3.0,-2.0,1650849067165283.0
-1.0,-2.0,-3.0,-2.0,-2.0,0.0,1.0,-2.0,1650849067186227.0
-3.0,-5.0,-8.0,-5.0,-7.0,-31.0,-8.0,-4.0,1650849067186227.0
0.0,2.0,3.0,9.0,4.0,28.0,0.0,1.0,1650849067188249.0
0.0,4.0,3.0,-17.0,-9.0,6.0,4.0,0.0,1650849067188249.0
1.0,-3.0,4.0,11.0,9.0,7.0,5.0,0.0,1650849067200218.0
2.0,-1.0,5.0,8.0,6.0,-1.0,4.0,0.0,1650849067200218.0
0.0,0.0,0.0,3.0,5.0,-10.0,-6.0,-1.0,1650849067209167.0
-2.0,-4.0,-7.0,-4.0,-6.0,-10.0,-4.0,0.0,1650849067209167.0
1.0,1.0,0.0,-5.0,-3.0,4.0,0.0,0.0,1650849067223302.0
-2.0,-2.0,-7.0,-8.0,-7.0,-3.0,0.0,-1.0,1650849067223302.0
-1.0,-9.0,-7.0,-4.0,-2.0,-14.0,-3.0,-1.0,1650849067231152.0
-5.0,12.0,3.0,2.0,0.0,1.0,-3.0,-1.0,1650849067231152.0
1.0,-1.0,4.0,10.0,7.0,20.0,3.0,0.0,1650849067246140.0
0.0,-2.0,-4.0,1.0,5.0,5.0,4.0,4.0,1650849067246140.0
0.0,1.0,0.0,-6.0,-1.0,1.0,0.0,1.0,1650849067248108.0
-3.0,-2.0,-2.0,3.0,-3.0,-11.0,-2.0,-2.0,1650849067248108.0
-2.0,-1.0,-5.0,-5.0,-9.0,-16.0,-4.0,-3.0,1650849067260103.0
-1.0,0.0,1.0,1.0,0.0,13.0,1.0,-2.0,1650849067260103.0
0.0,-2.0,4.0,0.0,3.0,6.0,3.0,0.0,1650849067269052.0
1.0,-2.0,-5.0,-3.0,-5.0,-7.0,0.0,0.0,1650849067269052.0
-3.0,1.0,2.0,2.0,0.0,-3.0,-2.0,-1.0,1650849067284040.0
-3.0,-2.0,0.0,-2.0,-1.0,-18.0,-7.0,0.0,1650849067284040.0
0.0,2.0,6.0,2.0,5.0,34.0,9.0,2.0,1650849067285029.0
0.0,-3.0,-4.0,2.0,5.0,7.0,0.0,1.0,1650849067285029.0
-1.0,-4.0,0.0,-5.0,1.0,-3.0,-1.0,1.0,1650849067305964.0
-1.0,-1.0,-4.0,-4.0,-6.0,-9.0,-3.0,-1.0,1650849067305964.0
-1.0,0.0,-1.0,-1.0,-9.0,-24.0,-8.0,-4.0,1650849067307962.0
1.0,-1.0,3.0,1.0,-7.0,-1.0,2.0,0.0,1650849067307962.0
0.0,0.0,-5.0,-3.0,12.0,24.0,3.0,0.0,1650849067319930.0
-1.0,1.0,0.0,-4.0,3.0,0.0,0.0,-1.0,1650849067319930.0
0.0,0.0,8.0,3.0,-11.0,-15.0,-1.0,0.0,1650849067334922.0
-1.0,-5.0,-6.0,4.0,4.0,-7.0,-2.0,1.0,1650849067334922.0
2.0,4.0,3.0,2.0,2.0,10.0,1.0,1.0,1650849067343947.0
-1.0,-2.0,0.0,0.0,5.0,14.0,4.0,2.0,1650849067343947.0
1.0,-1.0,-4.0,-11.0,-1.0,-2.0,-1.0,-1.0,1650849067345028.0
-2.0,0.0,3.0,-1.0,-6.0,-15.0,-4.0,-3.0,1650849067345028.0
0.0,-3.0,-3.0,-1.0,-6.0,-12.0,-2.0,-1.0,1650849067366012.0
0.0,3.0,1.0,-1.0,-1.0,7.0,0.0,0.0,1650849067366012.0
0.0,-2.0,-1.0,2.0,-5.0,-8.0,1.0,1.0,1650849067367970.0
0.0,5.0,-7.0,1.0,3.0,7.0,0.0,0.0,1650849067367970.0
2.0,2.0,18.0,10.0,5.0,1.0,0.0,0.0,1650849067379975.0
1.0,-7.0,-9.0,-5.0,-2.0,2.0,-1.0,-1.0,1650849067379975.0
-1.0,2.0,-4.0,-1.0,-12.0,-20.0,1.0,-2.0,1650849067388914.0
-1.0,-4.0,0.0,0.0,9.0,28.0,0.0,-1.0,1650849067388914.0
-2.0,-3.0,-8.0,-8.0,-13.0,-7.0,0.0,1.0,1650849067403894.0
0.0,1.0,1.0,3.0,8.0,-11.0,-3.0,1.0,1650849067403894.0
-1.0,-7.0,-1.0,1.0,4.0,3.0,-1.0,0.0,1650849067405868.0
0.0,10.0,-2.0,-16.0,-4.0,-4.0,0.0,1.0,1650849067405868.0
-1.0,0.0,-1.0,8.0,1.0,-6.0,-1.0,-1.0,1650849067426812.0
0.0,0.0,11.0,12.0,-10.0,3.0,0.0,0.0,1650849067426812.0
-1.0,0.0,-7.0,-3.0,-1.0,-2.0,-4.0,-3.0,1650849067427810.0
-1.0,-9.0,-4.0,-5.0,-3.0,-18.0,-3.0,-2.0,1650849067427810.0
-1.0,3.0,-2.0,-5.0,1.0,25.0,2.0,2.0,1650849067448790.0
-1.0,0.0,-3.0,-5.0,3.0,3.0,4.0,0.0,1650849067448790.0
1.0,0.0,4.0,4.0,11.0,14.0,2.0,1.0,1650849067450768.0
1.0,1.0,5.0,4.0,0.0,-4.0,-1.0,-3.0,1650849067450768.0
0.0,-1.0,-4.0,-5.0,-3.0,-16.0,-2.0,-2.0,1650849067462715.0
0.0,2.0,-2.0,-3.0,-7.0,-1.0,0.0,-1.0,1650849067462715.0
-3.0,-2.0,-5.0,-2.0,-4.0,3.0,-1.0,-2.0,1650849067471692.0
1.0,2.0,6.0,0.0,0.0,-2.0,-3.0,0.0,1650849067471692.0
-3.0,-2.0,1.0,1.0,-2.0,-27.0,-7.0,-3.0,1650849067493662.0
-1.0,-1.0,1.0,5.0,4.0,41.0,5.0,1.0,1650849067493662.0
1.0,3.0,0.0,-5.0,-5.0,1.0,4.0,3.0,1650849067495628.0
1.0,-1.0,-8.0,2.0,9.0,7.0,4.0,0.0,1650849067495628.0
0.0,-6.0,-2.0,-4.0,4.0,1.0,-1.0,0.0,1650849067508701.0
-1.0,2.0,2.0,-3.0,-12.0,-26.0,-6.0,-2.0,1650849067508701.0
0.0,10.0,5.0,1.0,-2.0,-3.0,-3.0,-1.0,1650849067510683.0
-1.0,-11.0,0.0,8.0,5.0,11.0,1.0,0.0,1650849067510683.0
-1.0,4.0,-3.0,-3.0,0.0,-8.0,-1.0,-2.0,1650849067523667.0
-1.0,-7.0,-5.0,-5.0,-8.0,-19.0,-3.0,-2.0,1650849067523667.0
-1.0,-1.0,-2.0,-3.0,1.0,18.0,0.0,-2.0,1650849067525649.0
-1.0,1.0,6.0,-1.0,-2.0,7.0,4.0,2.0,1650849067525649.0
-1.0,0.0,-3.0,5.0,8.0,3.0,-1.0,1.0,1650849067546565.0
0.0,0.0,0.0,5.0,6.0,3.0,0.0,1.0,1650849067546565.0
-2.0,0.0,-1.0,-7.0,-4.0,-14.0,-5.0,-1.0,1650849067547564.0
-1.0,-2.0,0.0,0.0,-6.0,-11.0,-2.0,0.0,1650849067547564.0
0.0,0.0,3.0,-2.0,-7.0,7.0,4.0,1.0,1650849067568542.0
-2.0,-1.0,1.0,-3.0,-4.0,-6.0,0.0,-3.0,1650849067568542.0
-1.0,-2.0,0.0,2.0,6.0,-4.0,-1.0,-1.0,1650849067570504.0
1.0,-5.0,0.0,6.0,9.0,10.0,2.0,1.0,1650849067570504.0
0.0,1.0,2.0,1.0,-8.0,-1.0,3.0,1.0,1650849067582504.0
1.0,0.0,1.0,-3.0,14.0,5.0,2.0,2.0,1650849067582504.0
-4.0,-1.0,-2.0,-3.0,-7.0,-8.0,-2.0,-3.0,1650849067591447.0
-4.0,-3.0,-3.0,1.0,-7.0,-31.0,-8.0,-4.0,1650849067591447.0
2.0,0.0,-4.0,-6.0,3.0,44.0,3.0,-1.0,1650849067613387.0
-3.0,0.0,3.0,-3.0,-13.0,-11.0,0.0,0.0,1650849067613387.0
1.0,-1.0,0.0,6.0,13.0,0.0,-1.0,1.0,1650849067615382.0
1.0,4.0,0.0,-1.0,10.0,29.0,8.0,2.0,1650849067615382.0
0.0,-6.0,-3.0,-7.0,-15.0,-26.0,-8.0,-4.0,1650849067628442.0
0.0,0.0,-1.0,5.0,2.0,3.0,-2.0,-1.0,1650849067628442.0
1.0,4.0,0.0,-5.0,4.0,-2.0,-1.0,2.0,1650849067630403.0
0.0,10.0,7.0,7.0,-2.0,-5.0,-1.0,-2.0,1650849067630403.0
0.0,-3.0,0.0,-7.0,0.0,-4.0,2.0,-2.0,1650849067643388.0
-1.0,-7.0,-15.0,2.0,4.0,7.0,3.0,0.0,1650849067643388.0
-1.0,-6.0,3.0,-3.0,-14.0,-27.0,-3.0,-1.0,1650849067650377.0
1.0,0.0,5.0,4.0,8.0,23.0,0.0,0.0,1650849067650377.0
0.0,2.0,5.0,6.0,7.0,7.0,1.0,0.0,1650849067666326.0
0.0,-1.0,-6.0,-8.0,-10.0,-7.0,-1.0,-3.0,1650849067666326.0
-1.0,0.0,-5.0,-1.0,7.0,-8.0,-4.0,0.0,1650849067668301.0
-1.0,-5.0,-2.0,4.0,-5.0,19.0,3.0,-1.0,1650849067668301.0
0.0,1.0,4.0,-4.0,-4.0,-14.0,-1.0,-2.0,1650849067696246.0
-1.0,-3.0,-2.0,-7.0,-13.0,-14.0,-5.0,-2.0,1650849067696246.0
0.0,0.0,-1.0,6.0,7.0,4.0,-1.0,-1.0,1650849067698221.0
0.0,-3.0,-1.0,-3.0,2.0,3.0,2.0,2.0,1650849067698221.0
0.0,0.0,-5.0,-4.0,-5.0,10.0,5.0,1.0,1650849067703209.0
0.0,0.0,12.0,12.0,17.0,9.0,2.0,0.0,1650849067703209.0
-4.0,0.0,-1.0,-5.0,-3.0,4.0,0.0,-2.0,1650849067710188.0
-1.0,1.0,-3.0,-1.0,-4.0,-19.0,-3.0,1.0,1650849067710188.0
-1.0,0.0,-7.0,-3.0,1.0,-3.0,-3.0,-1.0,1650849067726245.0
0.0,-2.0,-1.0,-6.0,-9.0,-2.0,0.0,-3.0,1650849067726245.0
-1.0,-5.0,2.0,4.0,-2.0,4.0,1.0,-1.0,1650849067728264.0
0.0,2.0,3.0,-2.0,-3.0,-8.0,-3.0,-2.0,1650849067728264.0
-1.0,-10.0,-15.0,-6.0,-7.0,0.0,0.0,0.0,1650849067749221.0
1.0,2.0,3.0,4.0,11.0,6.0,3.0,3.0,1650849067749221.0
1.0,1.0,8.0,6.0,6.0,10.0,2.0,-2.0,1650849067751187.0
-1.0,4.0,-1.0,-2.0,-11.0,-22.0,-5.0,-2.0,1650849067751187.0
-3.0,-1.0,-3.0,3.0,2.0,13.0,1.0,0.0,1650849067763149.0
0.0,-1.0,4.0,-2.0,5.0,-7.0,-1.0,-1.0,1650849067763149.0
0.0,0.0,-6.0,-2.0,4.0,29.0,4.0,2.0,1650849067770132.0
2.0,-3.0,-4.0,-8.0,-9.0,-20.0,-4.0,-2.0,1650849067770132.0
-1.0,-3.0,1.0,-1.0,-2.0,-16.0,-4.0,-2.0,1650849067786109.0
-2.0,5.0,0.0,2.0,-3.0,16.0,3.0,0.0,1650849067786109.0
1.0,0.0,0.0,1.0,1.0,-6.0,-2.0,2.0,1650849067788092.0
-1.0,-5.0,-3.0,2.0,7.0,6.0,-1.0,-1.0,1650849067788092.0
-1.0,4.0,5.0,3.0,1.0,-8.0,-3.0,-1.0,1650849067809065.0
-2.0,-1.0,-9.0,-2.0,-6.0,-6.0,-4.0,-1.0,1650849067809065.0
0.0,-2.0,-1.0,-6.0,-15.0,-3.0,0.0,-1.0,1650849067810046.0
-3.0,0.0,-4.0,1.0,-1.0,1.0,0.0,0.0,1650849067810046.0
-1.0,4.0,4.0,7.0,7.0,2.0,1.0,0.0,1650849067823030.0
-1.0,-1.0,-1.0,2.0,9.0,9.0,2.0,1.0,1650849067823030.0
-1.0,-2.0,-5.0,-8.0,-10.0,-19.0,-2.0,-1.0,1650849067829970.0
0.0,-2.0,6.0,6.0,3.0,22.0,2.0,1.0,1650849067829970.0
1.0,4.0,2.0,-5.0,-4.0,-15.0,-2.0,-1.0,1650849067845961.0
1.0,0.0,-9.0,-3.0,-9.0,-6.0,-2.0,-2.0,1650849067845961.0
-2.0,-3.0,0.0,0.0,10.0,22.0,3.0,1.0,1650849067847923.0
-2.0,-5.0,-5.0,-8.0,-6.0,-8.0,-1.0,-1.0,1650849067847923.0
0.0,1.0,8.0,17.0,5.0,3.0,0.0,-1.0,1650849067868902.0
-1.0,3.0,4.0,-6.0,0.0,-11.0,-1.0,2.0,1650849067868902.0
-1.0,-2.0,-3.0,6.0,-1.0,-5.0,-2.0,0.0,1650849067870863.0
0.0,0.0,-5.0,-6.0,0.0,-4.0,-2.0,0.0,1650849067870863.0
1.0,-3.0,-5.0,-7.0,1.0,24.0,13.0,2.0,1650849067891846.0
-1.0,-3.0,1.0,-1.0,-9.0,-13.0,-5.0,-2.0,1650849067891846.0
-1.0,5.0,-2.0,3.0,0.0,-4.0,-2.0,-3.0,1650849067893800.0
1.0,1.0,-1.0,1.0,6.0,5.0,1.0,1.0,1650849067893800.0
1.0,0.0,0.0,-10.0,-6.0,-17.0,-4.0,0.0,1650849067906806.0
0.0,-1.0,-10.0,2.0,-5.0,9.0,2.0,-1.0,1650849067906806.0
0.0,1.0,6.0,2.0,-5.0,-16.0,0.0,0.0,1650849067907764.0
-2.0,-2.0,-1.0,-3.0,2.0,16.0,2.0,1.0,1650849067907764.0
1.0,3.0,1.0,1.0,5.0,-6.0,-2.0,-1.0,1650849067928741.0
2.0,-2.0,3.0,0.0,8.0,18.0,3.0,0.0,1650849067928741.0
0.0,-4.0,-5.0,-4.0,-4.0,-7.0,-3.0,-2.0,1650849067930702.0
-1.0,1.0,2.0,0.0,-10.0,-12.0,-1.0,-1.0,1650849067930702.0
-1.0,1.0,2.0,8.0,-3.0,-3.0,-4.0,-1.0,1650849067942704.0
-1.0,-1.0,-2.0,-3.0,6.0,1.0,-2.0,0.0,1650849067942704.0
-1.0,-5.0,-2.0,0.0,-4.0,0.0,1.0,2.0,1650849067951677.0
1.0,3.0,2.0,0.0,10.0,15.0,5.0,1.0,1650849067951677.0
-2.0,-3.0,0.0,-7.0,-3.0,-4.0,-1.0,-1.0,1650849067966605.0
0.0,-1.0,2.0,1.0,-8.0,-9.0,-2.0,-1.0,1650849067966605.0
0.0,-2.0,-4.0,-3.0,2.0,5.0,-2.0,-1.0,1650849067967606.0
1.0,-1.0,-2.0,-5.0,-7.0,-8.0,1.0,-2.0,1650849067967606.0
-1.0,-3.0,-1.0,6.0,-1.0,-12.0,-6.0,-1.0,1650849067988546.0
-1.0,13.0,7.0,5.0,3.0,14.0,4.0,1.0,1650849067988546.0
0.0,-5.0,-7.0,5.0,16.0,16.0,3.0,2.0,1650849067990542.0
-2.0,-2.0,3.0,-6.0,-16.0,-15.0,-4.0,-1.0,1650849067990542.0
2.0,-2.0,-5.0,-4.0,8.0,11.0,3.0,1.0,1650849068002509.0
1.0,5.0,1.0,-1.0,5.0,-10.0,-4.0,0.0,1650849068002509.0
-2.0,3.0,-4.0,1.0,-8.0,-4.0,-2.0,-2.0,1650849068011485.0
-4.0,-3.0,-7.0,3.0,2.0,-3.0,-2.0,-1.0,1650849068011485.0
-1.0,-13.0,1.0,4.0,-1.0,-2.0,-2.0,2.0,1650849068026514.0
-3.0,6.0,-9.0,-17.0,-10.0,-3.0,0.0,-3.0,1650849068026514.0
3.0,-5.0,-4.0,-8.0,-9.0,3.0,2.0,1.0,1650849068027516.0
-1.0,4.0,20.0,11.0,4.0,-9.0,-3.0,-2.0,1650849068027516.0
0.0,-6.0,-24.0,-2.0,4.0,6.0,0.0,0.0,1650849068048480.0
-4.0,11.0,27.0,15.0,9.0,1.0,2.0,-7.0,1650849068048480.0
18.0,-17.0,-24.0,-16.0,-20.0,-12.0,-1.0,10.0,1650849068050455.0
-3.0,-7.0,-33.0,-2.0,-7.0,-6.0,-2.0,-4.0,1650849068050455.0
2.0,-3.0,9.0,-4.0,-1.0,1.0,-2.0,-1.0,1650849068062422.0
-1.0,0.0,4.0,-2.0,10.0,22.0,4.0,-1.0,1650849068062422.0
2.0,2.0,6.0,16.0,15.0,2.0,0.0,-2.0,1650849068071399.0
-1.0,11.0,14.0,7.0,4.0,2.0,2.0,2.0,1650849068071399.0
-28.0,-13.0,4.0,-25.0,-6.0,-12.0,-1.0,19.0,1650849068086397.0
25.0,1.0,-19.0,6.0,-12.0,-6.0,-2.0,-24.0,1650849068086397.0
-27.0,-20.0,-28.0,-7.0,-17.0,-3.0,0.0,1.0,1650849068087355.0
48.0,11.0,11.0,14.0,17.0,-2.0,-3.0,-5.0,1650849068087355.0
17.0,27.0,23.0,21.0,26.0,23.0,7.0,4.0,1650849068109317.0
-13.0,-29.0,-2.0,-11.0,-23.0,-10.0,0.0,-5.0,1650849068109317.0
11.0,20.0,8.0,-21.0,-9.0,4.0,1.0,19.0,1650849068110297.0
22.0,19.0,0.0,-4.0,3.0,-3.0,2.0,-6.0,1650849068110297.0
24.0,0.0,-20.0,23.0,3.0,1.0,-6.0,11.0,1650849068122263.0
-11.0,-25.0,14.0,8.0,18.0,-8.0,-4.0,-10.0,1650849068122263.0
-59.0,-5.0,-18.0,-22.0,3.0,18.0,1.0,-22.0,1650849068131250.0
44.0,-4.0,-21.0,-5.0,-16.0,-4.0,4.0,23.0,1650849068131250.0
12.0,-2.0,19.0,-4.0,-13.0,4.0,-2.0,-9.0,1650849068146265.0
-85.0,26.0,13.0,20.0,-4.0,-18.0,-8.0,-29.0,1650849068146265.0
21.0,-13.0,25.0,-16.0,8.0,7.0,3.0,-12.0,1650849068148193.0
1.0,-16.0,-14.0,5.0,3.0,-4.0,-3.0,14.0,1650849068148193.0
-7.0,-15.0,-7.0,20.0,-9.0,-17.0,-7.0,-18.0,1650849068169167.0
37.0,1.0,-20.0,-13.0,-6.0,10.0,-1.0,-1.0,1650849068169167.0
0.0,29.0,56.0,10.0,16.0,-6.0,-3.0,-2.0,1650849068170134.0
-43.0,-3.0,13.0,-15.0,0.0,-1.0,-2.0,-4.0,1650849068170134.0
12.0,-4.0,-40.0,-12.0,-12.0,-2.0,-1.0,-12.0,1650849068182131.0
18.0,-4.0,2.0,3.0,17.0,18.0,2.0,21.0,1650849068182131.0
-14.0,6.0,7.0,14.0,3.0,-13.0,-2.0,0.0,1650849068191160.0
-3.0,-13.0,12.0,1.0,-3.0,22.0,6.0,-1.0,1650849068191160.0
-33.0,5.0,-15.0,-16.0,-5.0,-1.0,1.0,-2.0,1650849068206861.0
10.0,5.0,18.0,15.0,6.0,-3.0,2.0,20.0,1650849068206861.0
-50.0,-9.0,-2.0,-8.0,4.0,-1.0,3.0,7.0,1650849068207860.0
-15.0,-8.0,7.0,8.0,-9.0,-17.0,-7.0,-33.0,1650849068207860.0
-27.0,-33.0,-47.0,-16.0,-11.0,9.0,8.0,5.0,1650849068228933.0
-57.0,21.0,-32.0,-24.0,2.0,-7.0,-2.0,-15.0,1650849068228933.0
-16.0,5.0,19.0,31.0,3.0,0.0,9.0,17.0,1650849068229903.0
-12.0,-10.0,34.0,1.0,10.0,-1.0,-9.0,3.0,1650849068229903.0
-20.0,-3.0,-1.0,-18.0,0.0,3.0,3.0,0.0,1650849068242903.0
24.0,-2.0,24.0,13.0,-7.0,-9.0,10.0,13.0,1650849068242903.0
34.0,-17.0,-37.0,-14.0,-3.0,15.0,-5.0,-8.0,1650849068251872.0
-13.0,22.0,-8.0,14.0,16.0,4.0,3.0,4.0,1650849068251872.0
-9.0,10.0,21.0,6.0,3.0,-13.0,-4.0,1.0,1650849068266805.0
-3.0,1.0,17.0,-3.0,-4.0,-8.0,-8.0,9.0,1650849068266805.0
27.0,5.0,-26.0,-6.0,-16.0,4.0,8.0,-9.0,1650849068267802.0
34.0,-27.0,0.0,-13.0,4.0,10.0,-5.0,2.0,1650849068267802.0
22.0,43.0,12.0,13.0,11.0,-2.0,20.0,15.0,1650849068289311.0
14.0,-38.0,-26.0,8.0,-4.0,12.0,-2.0,3.0,1650849068289311.0
26.0,-12.0,-30.0,1.0,-8.0,-10.0,-10.0,2.0,1650849068291293.0
-74.0,9.0,34.0,5.0,2.0,-6.0,7.0,-23.0,1650849068291293.0
103.0,28.0,-6.0,-4.0,-2.0,-10.0,-12.0,45.0,1650849068311233.0
-50.0,-3.0,5.0,-15.0,7.0,-5.0,-3.0,-25.0,1650849068311233.0
-26.0,-15.0,13.0,20.0,7.0,14.0,1.0,-5.0,1650849068313227.0
41.0,-14.0,2.0,-23.0,-29.0,-10.0,-9.0,15.0,1650849068313227.0
-24.0,-6.0,-14.0,17.0,2.0,-13.0,-2.0,6.0,1650849068327297.0
25.0,30.0,7.0,-16.0,4.0,24.0,11.0,-1.0,1650849068327297.0
-8.0,2.0,-27.0,19.0,6.0,-15.0,-12.0,-11.0,1650849068332284.0
14.0,22.0,4.0,-6.0,-2.0,10.0,8.0,2.0,1650849068332284.0
-22.0,-7.0,22.0,-1.0,-3.0,-10.0,-10.0,-21.0,1650849068349255.0
-6.0,-29.0,-26.0,-19.0,-8.0,-10.0,-11.0,17.0,1650849068349255.0
37.0,-4.0,25.0,-7.0,6.0,15.0,6.0,1.0,1650849068350236.0
-6.0,34.0,21.0,14.0,0.0,-5.0,-1.0,4.0,1650849068350236.0
7.0,-41.0,3.0,12.0,-13.0,-2.0,-3.0,-19.0,1650849068362225.0
-25.0,31.0,-12.0,-16.0,-7.0,-25.0,-3.0,-1.0,1650849068362225.0
20.0,18.0,34.0,11.0,8.0,25.0,0.0,7.0,1650849068371180.0
8.0,-25.0,-25.0,3.0,4.0,-14.0,-13.0,9.0,1650849068371180.0
6.0,12.0,7.0,-22.0,9.0,37.0,22.0,-13.0,1650849068386139.0
-47.0,-33.0,-5.0,-2.0,-11.0,-24.0,-17.0,-43.0,1650849068386139.0
-5.0,-32.0,-45.0,-21.0,-16.0,-27.0,-1.0,35.0,1650849068388135.0
-32.0,10.0,7.0,-13.0,-7.0,25.0,2.0,-26.0,1650849068388135.0
-25.0,0.0,24.0,20.0,9.0,-7.0,-12.0,-18.0,1650849068409078.0
31.0,2.0,3.0,5.0,4.0,8.0,4.0,17.0,1650849068409078.0
17.0,22.0,12.0,16.0,-2.0,-16.0,0.0,-4.0,1650849068410077.0
-43.0,-19.0,-30.0,-17.0,-13.0,-6.0,2.0,-3.0,1650849068410077.0
6.0,18.0,-2.0,6.0,-1.0,-1.0,-2.0,1.0,1650849068431022.0
12.0,-1.0,5.0,8.0,-4.0,0.0,3.0,11.0,1650849068431022.0
-9.0,19.0,8.0,-12.0,12.0,4.0,-4.0,-19.0,1650849068433014.0
-12.0,-13.0,-2.0,5.0,-10.0,-8.0,1.0,17.0,1650849068433014.0
9.0,9.0,17.0,-12.0,10.0,10.0,2.0,3.0,1650849068446038.0
27.0,-41.0,-4.0,24.0,-2.0,-4.0,-3.0,5.0,1650849068446038.0
29.0,17.0,-8.0,-9.0,-10.0,-7.0,-1.0,-2.0,1650849068448057.0
-1.0,-18.0,-17.0,8.0,1.0,7.0,8.0,5.0,1650849068448057.0
1.0,13.0,1.0,11.0,21.0,6.0,-1.0,-6.0,1650849068469019.0
20.0,22.0,-2.0,-12.0,3.0,-1.0,-7.0,2.0,1650849068469019.0
-43.0,-4.0,-9.0,-33.0,-23.0,1.0,16.0,-4.0,1650849068470012.0
31.0,8.0,-25.0,10.0,-19.0,-32.0,3.0,41.0,1650849068470012.0
15.0,-4.0,-11.0,-21.0,5.0,14.0,-4.0,-20.0,1650849068490870.0
20.0,-23.0,1.0,15.0,11.0,30.0,6.0,19.0,1650849068490870.0
12.0,6.0,11.0,-1.0,6.0,-12.0,-3.0,3.0,1650849068498879.0
7.0,33.0,16.0,13.0,5.0,3.0,-1.0,-6.0,1650849068498879.0
-8.0,-14.0,0.0,19.0,-17.0,-29.0,-7.0,-1.0,1650849068505891.0
50.0,38.0,13.0,14.0,-6.0,-11.0,0.0,-1.0,1650849068505891.0
7.0,-22.0,9.0,-17.0,9.0,18.0,0.0,2.0,1650849068512867.0
29.0,-15.0,-18.0,-17.0,4.0,4.0,1.0,-4.0,1650849068512867.0
-20.0,-14.0,13.0,4.0,-11.0,-6.0,-3.0,5.0,1650849068528824.0
22.0,24.0,10.0,0.0,12.0,5.0,-4.0,-4.0,1650849068528824.0
15.0,-25.0,-18.0,-11.0,-5.0,-6.0,2.0,11.0,1650849068530779.0
-4.0,28.0,33.0,22.0,4.0,2.0,-4.0,-22.0,1650849068530779.0
15.0,-19.0,25.0,20.0,-1.0,-1.0,-3.0,3.0,1650849068550993.0
-21.0,21.0,-52.0,-27.0,-5.0,0.0,4.0,12.0,1650849068550993.0
27.0,5.0,24.0,17.0,1.0,-6.0,2.0,-1.0,1650849068552987.0
-3.0,-18.0,-5.0,4.0,7.0,0.0,-6.0,-17.0,1650849068552987.0
12.0,13.0,3.0,-25.0,1.0,8.0,-3.0,6.0,1650849068566126.0
27.0,1.0,-1.0,7.0,-12.0,-20.0,11.0,8.0,1650849068566126.0
-2.0,15.0,41.0,35.0,18.0,29.0,0.0,18.0,1650849068572045.0
2.0,-26.0,-65.0,-20.0,-3.0,-12.0,0.0,-11.0,1650849068572045.0
-9.0,11.0,16.0,-1.0,-15.0,-7.0,-4.0,2.0,1650849068588999.0
1.0,-20.0,-2.0,-6.0,15.0,8.0,3.0,-3.0,1650849068588999.0
10.0,43.0,12.0,-8.0,-10.0,-11.0,-10.0,1.0,1650849068589995.0
-9.0,-8.0,36.0,0.0,7.0,25.0,8.0,9.0,1650849068589995.0
30.0,-9.0,-27.0,-8.0,3.0,-4.0,1.0,5.0,1650849068618543.0
-99.0,1.0,1.0,-10.0,-17.0,-8.0,5.0,-8.0,1650849068618543.0
-1.0,-33.0,6.0,30.0,-1.0,-7.0,-7.0,-20.0,1650849068620471.0
9.0,18.0,-12.0,-1.0,4.0,-7.0,-2.0,4.0,1650849068620471.0
-10.0,-5.0,-32.0,-33.0,-2.0,-1.0,-5.0,-12.0,1650849068625486.0
22.0,21.0,32.0,33.0,9.0,10.0,-2.0,6.0,1650849068625486.0
28.0,-10.0,7.0,10.0,0.0,-6.0,-4.0,8.0,1650849068632439.0
-15.0,-11.0,-20.0,-8.0,2.0,2.0,10.0,-1.0,1650849068632439.0
-23.0,12.0,-4.0,-10.0,-7.0,2.0,7.0,3.0,1650849068648572.0
6.0,-22.0,-3.0,-3.0,0.0,2.0,-2.0,-4.0,1650849068648572.0
-19.0,2.0,1.0,-12.0,-3.0,-9.0,-7.0,-7.0,1650849068650500.0
-2.0,-2.0,-12.0,-3.0,3.0,-1.0,-5.0,-3.0,1650849068650500.0
-10.0,-34.0,-15.0,-3.0,-8.0,-2.0,-2.0,-4.0,1650849068671595.0
4.0,22.0,61.0,11.0,11.0,14.0,3.0,0.0,1650849068671595.0
-63.0,-18.0,-30.0,0.0,-7.0,4.0,-4.0,-20.0,1650849068672593.0
17.0,-19.0,-48.0,-23.0,-11.0,-10.0,2.0,6.0,1650849068672593.0
10.0,12.0,41.0,3.0,-4.0,8.0,4.0,4.0,1650849068685749.0
21.0,-13.0,-8.0,-1.0,1.0,-9.0,-7.0,-4.0,1650849068685749.0
-7.0,7.0,13.0,11.0,7.0,0.0,2.0,0.0,1650849068692730.0
3.0,22.0,4.0,-4.0,-5.0,-5.0,-1.0,-4.0,1650849068692730.0
-27.0,-14.0,-14.0,-18.0,0.0,0.0,-3.0,-23.0,1650849068708798.0
16.0,-13.0,-19.0,11.0,-5.0,-1.0,0.0,15.0,1650849068708798.0
-40.0,16.0,25.0,-1.0,4.0,-15.0,-2.0,-10.0,1650849068710749.0
13.0,-6.0,-4.0,-10.0,4.0,23.0,-1.0,0.0,1650849068710749.0
-15.0,-5.0,10.0,19.0,-5.0,-5.0,1.0,8.0,1650849068731736.0
-13.0,-7.0,3.0,-7.0,-4.0,0.0,-8.0,-4.0,1650849068731736.0
-6.0,20.0,-18.0,-16.0,4.0,-2.0,10.0,-9.0,1650849068732667.0
-34.0,15.0,27.0,3.0,-4.0,-5.0,-8.0,10.0,1650849068732667.0
0.0,-6.0,9.0,25.0,7.0,-4.0,-1.0,-1.0,1650849068745700.0
-32.0,-41.0,-33.0,-7.0,-12.0,-16.0,-5.0,-11.0,1650849068745700.0
19.0,9.0,-6.0,-7.0,2.0,11.0,-4.0,9.0,1650849068759662.0
15.0,11.0,0.0,-7.0,-12.0,-15.0,-8.0,-11.0,1650849068759662.0
23.0,-5.0,-8.0,11.0,16.0,26.0,13.0,15.0,1650849068776863.0
-7.0,-1.0,10.0,1.0,13.0,7.0,1.0,-6.0,1650849068776863.0
35.0,16.0,-6.0,-4.0,-10.0,-16.0,-6.0,5.0,1650849068777873.0
-24.0,-32.0,-24.0,-16.0,1.0,5.0,-1.0,-9.0,1650849068777873.0
-4.0,17.0,15.0,8.0,-14.0,-29.0,-8.0,-2.0,1650849068791827.0
3.0,-7.0,-10.0,-3.0,-4.0,17.0,2.0,4.0,1650849068791827.0
15.0,25.0,-1.0,-7.0,2.0,-2.0,5.0,3.0,1650849068792824.0
6.0,-4.0,14.0,14.0,4.0,1.0,-1.0,1.0,1650849068792824.0
-21.0,0.0,5.0,2.0,3.0,-5.0,-7.0,-4.0,1650849068805806.0
-8.0,8.0,18.0,34.0,4.0,-3.0,-6.0,-3.0,1650849068805806.0
-6.0,2.0,-4.0,-26.0,-12.0,9.0,8.0,-1.0,1650849068812873.0
-15.0,-31.0,-3.0,21.0,2.0,-8.0,-2.0,-9.0,1650849068812873.0
25.0,8.0,-8.0,-11.0,1.0,8.0,4.0,-1.0,1650849068828966.0
15.0,6.0,2.0,-9.0,-8.0,-16.0,0.0,9.0,1650849068828966.0
3.0,-1.0,3.0,2.0,8.0,17.0,1.0,0.0,1650849068830888.0
1.0,17.0,-4.0,-1.0,3.0,1.0,1.0,4.0,1650849068830888.0
-7.0,-7.0,28.0,11.0,-5.0,-6.0,-1.0,-5.0,1650849068850909.0
-3.0,1.0,-26.0,-25.0,-1.0,-3.0,0.0,-6.0,1650849068850909.0
13.0,-10.0,-11.0,22.0,2.0,-3.0,-6.0,2.0,1650849068857897.0
20.0,7.0,-8.0,-8.0,4.0,7.0,3.0,3.0,1650849068857897.0
6.0,24.0,-9.0,-3.0,-7.0,-8.0,-5.0,0.0,1650849068865843.0
-5.0,-1.0,10.0,-24.0,-9.0,-8.0,4.0,8.0,1650849068865843.0
5.0,-28.0,-31.0,4.0,-2.0,9.0,-4.0,-5.0,1650849068879805.0
4.0,7.0,17.0,7.0,3.0,-4.0,-2.0,-3.0,1650849068879805.0
0.0,-3.0,-12.0,-8.0,-5.0,-3.0,-4.0,-4.0,1650849068895891.0
8.0,51.0,20.0,2.0,4.0,2.0,5.0,-3.0,1650849068895891.0
31.0,-27.0,-28.0,-7.0,12.0,15.0,3.0,2.0,1650849068897899.0
-30.0,-13.0,-15.0,10.0,-7.0,-13.0,-2.0,-1.0,1650849068897899.0
-22.0,4.0,11.0,0.0,-2.0,-2.0,-3.0,-2.0,1650849068911851.0
10.0,-10.0,-17.0,-14.0,-10.0,-4.0,-2.0,-1.0,1650849068911851.0
-14.0,3.0,16.0,7.0,4.0,-10.0,-1.0,-4.0,1650849068912848.0
-1.0,9.0,-15.0,-22.0,-3.0,-3.0,0.0,4.0,1650849068912848.0
-16.0,0.0,27.0,25.0,11.0,30.0,8.0,3.0,1650849068925463.0
-27.0,-3.0,-15.0,-5.0,-8.0,7.0,3.0,5.0,1650849068925463.0
-25.0,-11.0,-13.0,-7.0,5.0,-5.0,-2.0,-5.0,1650849068933471.0
1.0,34.0,42.0,13.0,1.0,-4.0,1.0,0.0,1650849068933471.0
5.0,-37.0,-42.0,-24.0,-4.0,-11.0,-2.0,2.0,1650849068948431.0
-21.0,7.0,0.0,-17.0,-6.0,0.0,-3.0,1.0,1650849068948431.0
33.0,-8.0,-23.0,19.0,-4.0,-4.0,-2.0,8.0,1650849068950398.0
28.0,22.0,73.0,32.0,12.0,-5.0,-3.0,-4.0,1650849068950398.0
5.0,-3.0,-44.0,-9.0,1.0,17.0,3.0,-1.0,1650849068971342.0
10.0,-5.0,-5.0,-4.0,-4.0,-5.0,-3.0,-2.0,1650849068971342.0
-24.0,-4.0,12.0,-4.0,-15.0,-10.0,-4.0,-5.0,1650849068973349.0
-3.0,-12.0,-23.0,-11.0,18.0,12.0,2.0,-1.0,1650849068973349.0
5.0,4.0,6.0,1.0,-3.0,-7.0,-4.0,-1.0,1650849068985332.0
7.0,-19.0,-19.0,-16.0,1.0,2.0,0.0,-10.0,1650849068985332.0
-32.0,14.0,32.0,0.0,-6.0,-25.0,-2.0,7.0,1650849068994285.0
2.0,-17.0,23.0,41.0,6.0,25.0,2.0,-3.0,1650849068994285.0
-31.0,-20.0,-15.0,-10.0,-1.0,-11.0,-3.0,-7.0,1650849069016222.0
15.0,0.0,15.0,6.0,1.0,12.0,5.0,8.0,1650849069016222.0
-3.0,-9.0,-39.0,-20.0,-12.0,-8.0,-1.0,-2.0,1650849069018216.0
-2.0,10.0,-10.0,-22.0,1.0,-12.0,-4.0,2.0,1650849069018216.0
1.0,4.0,10.0,10.0,9.0,20.0,7.0,-5.0,1650849069039162.0
-8.0,-4.0,19.0,18.0,-15.0,-6.0,-4.0,1.0,1650849069039162.0
35.0,12.0,5.0,12.0,11.0,3.0,1.0,2.0,1650849069040158.0
-13.0,-22.0,-29.0,-18.0,-12.0,-8.0,0.0,5.0,1650849069040158.0
13.0,5.0,19.0,5.0,1.0,-7.0,-2.0,-2.0,1650849069045145.0
16.0,-3.0,-17.0,-4.0,7.0,-1.0,-1.0,1.0,1650849069045145.0
-66.0,6.0,24.0,-6.0,-11.0,-8.0,-1.0,-8.0,1650849069054148.0
-7.0,-16.0,-7.0,9.0,-4.0,11.0,-3.0,1.0,1650849069054148.0
2.0,11.0,5.0,0.0,8.0,-4.0,1.0,1.0,1650849069069108.0
-2.0,6.0,10.0,-3.0,-9.0,-1.0,0.0,-1.0,1650849069069108.0
-5.0,-16.0,-39.0,-1.0,-2.0,2.0,0.0,-3.0,1650849069070843.0
-4.0,1.0,-5.0,-14.0,-6.0,-2.0,-2.0,-1.0,1650849069070843.0
-6.0,3.0,0.0,-15.0,-5.0,-5.0,1.0,3.0,1650849069091807.0
3.0,15.0,-7.0,-4.0,10.0,-3.0,-1.0,-3.0,1650849069091807.0
38.0,-13.0,15.0,11.0,-5.0,-1.0,-3.0,-4.0,1650849069092771.0
0.0,11.0,14.0,8.0,-9.0,-20.0,-7.0,2.0,1650849069092771.0
12.0,2.0,-19.0,3.0,-1.0,18.0,4.0,0.0,1650849069104727.0
11.0,-8.0,-8.0,-3.0,3.0,-7.0,-1.0,1.0,1650849069104727.0
22.0,13.0,10.0,-3.0,18.0,26.0,6.0,9.0,1650849069113712.0
6.0,5.0,6.0,3.0,-2.0,5.0,4.0,0.0,1650849069113712.0
-9.0,-11.0,2.0,-3.0,-16.0,-26.0,-9.0,-7.0,1650849069128690.0
27.0,-13.0,-26.0,4.0,0.0,-4.0,0.0,3.0,1650849069128690.0
-30.0,7.0,24.0,-5.0,-4.0,-12.0,-2.0,-8.0,1650849069134675.0
5.0,4.0,-12.0,-10.0,-9.0,-17.0,-4.0,0.0,1650849069134675.0
6.0,21.0,-3.0,3.0,14.0,31.0,10.0,2.0,1650849069151690.0
1.0,-19.0,8.0,-4.0,-1.0,-7.0,0.0,0.0,1650849069151690.0
5.0,5.0,6.0,9.0,1.0,8.0,-3.0,-4.0,1650849069157674.0
-9.0,-33.0,-13.0,-18.0,-10.0,-10.0,-1.0,-6.0,1650849069157674.0
5.0,19.0,-3.0,-16.0,3.0,-9.0,-6.0,0.0,1650849069173632.0
-22.0,-26.0,6.0,18.0,6.0,8.0,5.0,3.0,1650849069173632.0
-2.0,-3.0,-1.0,-2.0,-3.0,-10.0,2.0,5.0,1650849069175653.0
-13.0,-5.0,3.0,-10.0,-1.0,8.0,-2.0,-7.0,1650849069175653.0
-9.0,11.0,8.0,7.0,-10.0,-10.0,-2.0,-4.0,1650849069188620.0
-3.0,-1.0,2.0,11.0,7.0,2.0,-3.0,-4.0,1650849069188620.0
4.0,-2.0,-3.0,-5.0,-5.0,-21.0,-2.0,4.0,1650849069190587.0
20.0,-3.0,4.0,0.0,20.0,41.0,10.0,10.0,1650849069190587.0
5.0,-5.0,-1.0,-25.0,-13.0,-7.0,-4.0,2.0,1650849069211560.0
-11.0,12.0,-14.0,16.0,-4.0,-6.0,-6.0,-8.0,1650849069211560.0
-3.0,-4.0,-15.0,-3.0,-6.0,-2.0,0.0,-4.0,1650849069212530.0
2.0,5.0,-5.0,1.0,1.0,-4.0,-2.0,-3.0,1650849069212530.0
-4.0,-3.0,20.0,17.0,7.0,-16.0,-4.0,1.0,1650849069225493.0
-5.0,6.0,2.0,-20.0,-1.0,19.0,3.0,2.0,1650849069225493.0
8.0,-6.0,2.0,10.0,6.0,5.0,2.0,0.0,1650849069233498.0
2.0,15.0,2.0,-7.0,-11.0,-28.0,-4.0,-1.0,1650849069233498.0
-7.0,-18.0,-16.0,12.0,7.0,31.0,-1.0,-2.0,1650849069248659.0
6.0,10.0,-14.0,-16.0,-5.0,-1.0,8.0,3.0,1650849069248659.0
-8.0,-3.0,28.0,9.0,-1.0,-1.0,-4.0,-5.0,1650849069250607.0
-6.0,11.0,-1.0,7.0,5.0,-1.0,2.0,-2.0,1650849069250607.0
4.0,-5.0,8.0,7.0,10.0,-12.0,-2.0,4.0,1650849069271697.0
0.0,5.0,-1.0,5.0,-9.0,1.0,-7.0,-5.0,1650849069271697.0
3.0,1.0,-6.0,-15.0,-2.0,7.0,1.0,3.0,1650849069272696.0
0.0,-10.0,-21.0,-5.0,-3.0,-1.0,2.0,2.0,1650849069272696.0
-3.0,8.0,3.0,4.0,-5.0,-4.0,3.0,1.0,1650849069293706.0
-5.0,2.0,8.0,10.0,12.0,5.0,-1.0,-3.0,1650849069293706.0
-6.0,-5.0,-6.0,-8.0,-15.0,-21.0,-7.0,-7.0,1650849069295634.0
6.0,-3.0,6.0,-5.0,1.0,20.0,5.0,3.0,1650849069295634.0
2.0,-2.0,-9.0,0.0,7.0,7.0,3.0,1.0,1650849069308666.0
-2.0,1.0,-6.0,-12.0,-1.0,1.0,4.0,3.0,1650849069308666.0
-6.0,-3.0,9.0,8.0,0.0,-4.0,-6.0,-5.0,1650849069316577.0
-2.0,0.0,6.0,11.0,1.0,0.0,-2.0,-5.0,1650849069316577.0
4.0,3.0,-7.0,-5.0,-2.0,-5.0,0.0,4.0,1650849069331537.0
3.0,5.0,21.0,3.0,-3.0,-15.0,-5.0,-2.0,1650849069331537.0
-7.0,-1.0,-8.0,-16.0,1.0,-12.0,-1.0,1.0,1650849069332535.0
-1.0,-6.0,-14.0,0.0,5.0,27.0,-1.0,-2.0,1650849069332535.0
-3.0,8.0,-12.0,-14.0,-5.0,3.0,4.0,-2.0,1650849069354583.0
-2.0,-3.0,10.0,14.0,4.0,-15.0,-4.0,-1.0,1650849069354583.0
6.0,-3.0,11.0,12.0,11.0,34.0,13.0,6.0,1650849069355562.0
4.0,10.0,0.0,3.0,-4.0,-21.0,-5.0,-1.0,1650849069355562.0
-5.0,-11.0,-8.0,-20.0,-11.0,-15.0,-6.0,-4.0,1650849069368546.0
-9.0,-9.0,-18.0,-3.0,-1.0,-1.0,-3.0,-7.0,1650849069368546.0
-1.0,9.0,26.0,11.0,3.0,-1.0,-2.0,-1.0,1650849069370513.0
0.0,-3.0,-34.0,-14.0,-5.0,-2.0,0.0,0.0,1650849069370513.0
4.0,-24.0,-13.0,-3.0,4.0,-5.0,0.0,2.0,1650849069391458.0
25.0,7.0,-1.0,-7.0,-10.0,6.0,-2.0,-2.0,1650849069391458.0
-30.0,4.0,1.0,3.0,15.0,16.0,6.0,0.0,1650849069392455.0
-9.0,-9.0,15.0,-1.0,-2.0,-4.0,0.0,-2.0,1650849069392455.0
1.0,-3.0,1.0,12.0,-11.0,-7.0,-4.0,-4.0,1650849069413398.0
13.0,17.0,6.0,0.0,3.0,-11.0,-5.0,-1.0,1650849069413398.0
8.0,8.0,12.0,8.0,-6.0,-5.0,3.0,3.0,1650849069415393.0
-29.0,-29.0,-19.0,-13.0,5.0,11.0,4.0,0.0,1650849069415393.0
-6.0,4.0,0.0,9.0,-3.0,-7.0,-3.0,-4.0,1650849069435900.0
-7.0,-15.0,2.0,1.0,3.0,7.0,2.0,4.0,1650849069435900.0
15.0,28.0,-2.0,-11.0,-6.0,-1.0,-3.0,2.0,1650849069437866.0
6.0,7.0,7.0,-4.0,-6.0,-18.0,-2.0,1.0,1650849069437866.0
-2.0,-2.0,0.0,8.0,1.0,10.0,3.0,4.0,1650849069450859.0
-5.0,-4.0,5.0,5.0,17.0,14.0,2.0,0.0,1650849069450859.0
-4.0,-8.0,-3.0,5.0,-2.0,-2.0,-4.0,-5.0,1650849069452828.0
2.0,7.0,17.0,6.0,-4.0,-3.0,-2.0,-4.0,1650849069452828.0
1.0,-7.0,-22.0,-18.0,-7.0,-9.0,-4.0,-2.0,1650849069473772.0
4.0,18.0,28.0,17.0,-2.0,1.0,4.0,4.0,1650849069473772.0
6.0,-7.0,-20.0,-10.0,5.0,-3.0,-1.0,1.0,1650849069475767.0
3.0,6.0,12.0,6.0,5.0,4.0,0.0,-1.0,1650849069475767.0
-4.0,0.0,-1.0,-7.0,2.0,1.0,-2.0,-2.0,1650849069487733.0
-4.0,-5.0,2.0,8.0,-3.0,1.0,1.0,0.0,1650849069487733.0
-6.0,-22.0,-16.0,-8.0,-12.0,-4.0,-1.0,-4.0,1650849069494782.0
5.0,24.0,3.0,5.0,-1.0,-21.0,-5.0,-2.0,1650849069494782.0
8.0,6.0,14.0,4.0,20.0,47.0,10.0,7.0,1650849069511736.0
1.0,-4.0,-12.0,-11.0,-6.0,-26.0,-4.0,-2.0,1650849069511736.0
11.0,1.0,0.0,6.0,0.0,27.0,9.0,6.0,1650849069512667.0
-5.0,-8.0,4.0,-3.0,-9.0,-11.0,-5.0,-6.0,1650849069512667.0
-12.0,4.0,-9.0,-14.0,-6.0,-16.0,-4.0,-4.0,1650849069533631.0
7.0,9.0,8.0,5.0,3.0,5.0,2.0,7.0,1650849069533631.0
1.0,-7.0,-11.0,8.0,19.0,10.0,0.0,-2.0,1650849069539616.0
3.0,-2.0,-9.0,-11.0,-9.0,3.0,-4.0,-1.0,1650849069539616.0
-1.0,5.0,18.0,9.0,1.0,-4.0,5.0,3.0,1650849069548600.0
-11.0,-11.0,-18.0,-14.0,-12.0,-10.0,-5.0,-5.0,1650849069548600.0
-14.0,-2.0,-7.0,-10.0,-16.0,-20.0,-19.0,-11.0,1650849069554554.0
18.0,4.0,7.0,14.0,17.0,32.0,28.0,10.0,1650849069554554.0
4.0,2.0,-2.0,-7.0,-10.0,-9.0,-2.0,3.0,1650849069571793.0
1.0,7.0,-3.0,-1.0,9.0,5.0,1.0,-1.0,1650849069571793.0
-1.0,-1.0,0.0,1.0,-1.0,-9.0,-10.0,-3.0,1650849069572747.0
-15.0,-1.0,6.0,1.0,-5.0,-12.0,-11.0,-8.0,1650849069572747.0
-2.0,-3.0,0.0,2.0,-8.0,-4.0,-3.0,-3.0,1650849069594733.0
-5.0,-2.0,-5.0,-1.0,9.0,7.0,18.0,2.0,1650849069594733.0
6.0,0.0,-5.0,-5.0,-12.0,-22.0,8.0,2.0,1650849069595732.0
6.0,0.0,5.0,3.0,3.0,16.0,-11.0,1.0,1650849069595732.0
2.0,3.0,0.0,6.0,7.0,0.0,-2.0,0.0,1650849069607701.0
-5.0,-4.0,-4.0,-2.0,2.0,1.0,-11.0,-4.0,1650849069607701.0
-6.0,-11.0,5.0,0.0,-4.0,0.0,-2.0,-2.0,1650849069614681.0
9.0,9.0,-7.0,-4.0,-4.0,-10.0,0.0,4.0,1650849069614681.0
-3.0,2.0,7.0,1.0,-14.0,-28.0,-7.0,-4.0,1650849069632017.0
3.0,-3.0,-4.0,4.0,13.0,42.0,8.0,1.0,1650849069632017.0
2.0,0.0,-3.0,-7.0,-1.0,-5.0,1.0,0.0,1650849069632997.0
-7.0,-9.0,-3.0,-3.0,-4.0,0.0,3.0,0.0,1650849069632997.0
-6.0,-2.0,7.0,6.0,5.0,0.0,-4.0,-2.0,1650849069653972.0
-1.0,0.0,4.0,-2.0,-16.0,-21.0,-6.0,-3.0,1650849069653972.0
7.0,2.0,-2.0,-4.0,0.0,6.0,2.0,4.0,1650849069654961.0
-2.0,-12.0,-21.0,-8.0,0.0,0.0,1.0,3.0,1650849069654961.0
9.0,-4.0,-2.0,3.0,4.0,5.0,6.0,3.0,1650849069669026.0
-4.0,4.0,8.0,-3.0,-3.0,-6.0,-3.0,-1.0,1650849069669026.0
-2.0,6.0,4.0,7.0,3.0,4.0,-1.0,-3.0,1650849069675010.0
-6.0,1.0,3.0,-1.0,-5.0,-3.0,-2.0,-3.0,1650849069675010.0
-1.0,-6.0,-3.0,-2.0,1.0,0.0,-1.0,1.0,1650849069690969.0
3.0,0.0,-4.0,2.0,8.0,0.0,-3.0,1.0,1650849069690969.0
0.0,-1.0,-8.0,-5.0,-8.0,-14.0,-3.0,-1.0,1650849069692964.0
-2.0,0.0,4.0,4.0,0.0,6.0,1.0,-1.0,1650849069692964.0
2.0,4.0,4.0,2.0,-2.0,10.0,2.0,2.0,1650849069713933.0
2.0,-3.0,-1.0,-1.0,6.0,-7.0,2.0,2.0,1650849069713933.0
-4.0,-1.0,1.0,6.0,9.0,24.0,4.0,-5.0,1650849069714924.0
1.0,2.0,3.0,0.0,-3.0,-19.0,1.0,1.0,1650849069714924.0
-4.0,-5.0,-8.0,-7.0,-7.0,-2.0,-3.0,-2.0,1650849069728957.0
-4.0,-2.0,-10.0,-3.0,-13.0,-10.0,-7.0,-6.0,1650849069728957.0
6.0,-5.0,-1.0,-5.0,-3.0,-20.0,-7.0,2.0,1650849069751946.0
-1.0,7.0,0.0,7.0,7.0,33.0,2.0,0.0,1650849069751946.0
0.0,-1.0,1.0,1.0,6.0,-4.0,23.0,3.0,1650849069752944.0
-6.0,-4.0,-1.0,-6.0,-4.0,8.0,-7.0,-1.0,1650849069752944.0
-2.0,6.0,7.0,5.0,-2.0,-5.0,3.0,1.0,1650849069753960.0
4.0,2.0,-1.0,-1.0,0.0,-4.0,-3.0,1.0,1650849069753960.0
-2.0,3.0,-2.0,-2.0,-8.0,-5.0,0.0,-1.0,1650849069773888.0
-1.0,-13.0,1.0,-3.0,2.0,2.0,1.0,0.0,1650849069773888.0
1.0,11.0,-8.0,-1.0,0.0,2.0,-1.0,1.0,1650849069775892.0
-2.0,-5.0,20.0,11.0,5.0,-4.0,0.0,-1.0,1650849069775892.0
1.0,-1.0,-1.0,-1.0,2.0,-2.0,-6.0,-2.0,1650849069787849.0
-1.0,-3.0,0.0,9.0,-13.0,-25.0,-3.0,-1.0,1650849069787849.0
-17.0,-4.0,-12.0,-16.0,4.0,28.0,0.0,-1.0,1650849069796852.0
2.0,-9.0,-6.0,-7.0,3.0,-1.0,4.0,1.0,1650849069796852.0
-2.0,15.0,7.0,11.0,3.0,-1.0,-3.0,-2.0,1650849069811797.0
2.0,4.0,7.0,-4.0,0.0,3.0,-4.0,-2.0,1650849069811797.0
0.0,-14.0,-12.0,-9.0,-6.0,-13.0,0.0,-1.0,1650849069812797.0
-2.0,9.0,4.0,2.0,-14.0,-29.0,-7.0,-4.0,1650849069812797.0
9.0,1.0,1.0,3.0,13.0,37.0,0.0,3.0,1650849069833726.0
-3.0,-13.0,-10.0,-7.0,0.0,-5.0,6.0,1.0,1650849069833726.0
9.0,16.0,15.0,6.0,2.0,3.0,-3.0,-4.0,1650849069835742.0
-45.0,-10.0,-11.0,-6.0,-1.0,-1.0,0.0,-1.0,1650849069835742.0
1.0,-12.0,3.0,12.0,0.0,-11.0,-4.0,-2.0,1650849069847717.0
1.0,18.0,-5.0,-14.0,-3.0,0.0,-2.0,-2.0,1650849069847717.0
6.0,-9.0,-7.0,7.0,2.0,4.0,3.0,2.0,1650849069856693.0
9.0,4.0,3.0,0.0,-11.0,-24.0,-4.0,4.0,1650849069856693.0
-3.0,3.0,0.0,0.0,4.0,29.0,3.0,-1.0,1650849069871625.0
-5.0,-7.0,7.0,8.0,4.0,12.0,5.0,2.0,1650849069871625.0
-3.0,0.0,0.0,-4.0,-7.0,-11.0,-2.0,-1.0,1650849069873621.0
8.0,5.0,0.0,-3.0,4.0,12.0,2.0,-1.0,1650849069873621.0
-4.0,-4.0,-11.0,-11.0,-7.0,-22.0,-8.0,-2.0,1650849069894310.0
4.0,-2.0,-6.0,-5.0,-4.0,-1.0,-9.0,-2.0,1650849069894310.0
2.0,-9.0,-10.0,-2.0,-9.0,-11.0,20.0,4.0,1650849069895310.0
4.0,20.0,14.0,3.0,5.0,11.0,-3.0,-2.0,1650849069895310.0
1.0,-7.0,11.0,10.0,1.0,5.0,-5.0,1.0,1650849069907277.0
-4.0,7.0,4.0,2.0,1.0,5.0,1.0,-1.0,1650849069907277.0
3.0,-9.0,-8.0,-3.0,-4.0,-9.0,-6.0,-3.0,1650849069916253.0
2.0,-11.0,-17.0,-7.0,3.0,-1.0,-1.0,4.0,1650849069916253.0
-2.0,0.0,3.0,-3.0,-3.0,-8.0,0.0,-3.0,1650849069931212.0
-1.0,4.0,-1.0,4.0,-7.0,1.0,3.0,3.0,1650849069931212.0
-1.0,-11.0,-6.0,1.0,10.0,5.0,-2.0,2.0,1650849069933208.0
6.0,14.0,13.0,-1.0,-1.0,0.0,0.0,-3.0,1650849069933208.0
-6.0,6.0,-1.0,-8.0,-5.0,-3.0,-2.0,-1.0,1650849069954266.0
-3.0,-13.0,1.0,9.0,0.0,-13.0,-5.0,-3.0,1650849069954266.0
8.0,8.0,-4.0,3.0,-2.0,12.0,2.0,5.0,1650849069955255.0
4.0,-12.0,-1.0,1.0,3.0,13.0,2.0,-1.0,1650849069955255.0
-5.0,2.0,-7.0,-5.0,5.0,-5.0,1.0,0.0,1650849069967250.0
-5.0,-2.0,-2.0,-4.0,3.0,-2.0,1.0,3.0,1650849069967250.0
-9.0,-6.0,4.0,4.0,0.0,-4.0,-6.0,-6.0,1650849069977196.0
4.0,12.0,3.0,-1.0,-12.0,-13.0,-3.0,1.0,1650849069977196.0
18.0,-8.0,-8.0,-1.0,-7.0,0.0,-4.0,-3.0,1650849069991160.0
-35.0,-4.0,4.0,4.0,15.0,20.0,10.0,2.0,1650849069991160.0
3.0,10.0,13.0,0.0,2.0,-11.0,-8.0,0.0,1650849069993154.0
5.0,-8.0,-6.0,0.0,6.0,28.0,8.0,2.0,1650849069993154.0
0.0,-1.0,-4.0,0.0,-5.0,-19.0,-1.0,-3.0,1650849070014251.0
9.0,-1.0,-7.0,-4.0,-6.0,-3.0,-3.0,-2.0,1650849070014251.0
0.0,4.0,-2.0,0.0,6.0,10.0,4.0,5.0,1650849070015254.0
-11.0,-9.0,-1.0,-3.0,-9.0,-21.0,-5.0,-5.0,1650849070015254.0
6.0,2.0,6.0,10.0,8.0,17.0,0.0,0.0,1650849070027627.0
9.0,-1.0,-2.0,-5.0,-6.0,0.0,2.0,0.0,1650849070027627.0
-5.0,2.0,12.0,2.0,-2.0,-3.0,-2.0,-2.0,1650849070036658.0
6.0,-5.0,-7.0,3.0,1.0,-4.0,-2.0,-3.0,1650849070036658.0
-2.0,0.0,-3.0,-6.0,-4.0,2.0,-2.0,3.0,1650849070051304.0
2.0,2.0,-3.0,-1.0,2.0,2.0,0.0,-2.0,1650849070051304.0
0.0,-10.0,-9.0,-12.0,-4.0,-2.0,-4.0,-3.0,1650849070053291.0
7.0,-6.0,15.0,19.0,5.0,2.0,13.0,5.0,1650849070053291.0
-3.0,12.0,5.0,0.0,1.0,-4.0,1.0,2.0,1650849070073352.0
4.0,11.0,0.0,-3.0,-6.0,-7.0,-6.0,-3.0,1650849070073352.0
-5.0,-7.0,-5.0,-2.0,-8.0,-17.0,-2.0,-2.0,1650849070075348.0
-10.0,-6.0,-9.0,-8.0,-2.0,2.0,-11.0,-8.0,1650849070075348.0
-7.0,-6.0,-1.0,-1.0,9.0,19.0,8.0,5.0,1650849070087315.0
11.0,-1.0,1.0,2.0,-2.0,-6.0,3.0,2.0,1650849070087315.0
1.0,10.0,1.0,0.0,-10.0,-5.0,-5.0,-3.0,1650849070096307.0
-1.0,-9.0,0.0,-2.0,6.0,-2.0,-7.0,-1.0,1650849070096307.0
2.0,4.0,-7.0,-2.0,1.0,-3.0,7.0,-2.0,1650849070111269.0
0.0,-1.0,5.0,5.0,-1.0,-2.0,0.0,0.0,1650849070111269.0
1.0,6.0,13.0,-2.0,-7.0,-1.0,-2.0,1.0,1650849070113292.0
-5.0,-7.0,0.0,7.0,2.0,-4.0,-2.0,-2.0,1650849070113292.0
-4.0,-1.0,-8.0,-9.0,-4.0,-14.0,-5.0,-2.0,1650849070134208.0
0.0,-8.0,-11.0,-5.0,-3.0,18.0,4.0,0.0,1650849070134208.0
0.0,1.0,9.0,15.0,8.0,-3.0,6.0,1.0,1650849070135216.0
3.0,-6.0,-17.0,-9.0,7.0,16.0,4.0,3.0,1650849070135216.0
-8.0,9.0,3.0,-3.0,-6.0,-6.0,-4.0,-4.0,1650849070147174.0
3.0,-1.0,1.0,-4.0,-8.0,-7.0,-3.0,-1.0,1650849070147174.0
0.0,-2.0,-2.0,1.0,0.0,4.0,-1.0,0.0,1650849070156149.0
32.0,6.0,4.0,3.0,-2.0,0.0,-2.0,2.0,1650849070156149.0
-26.0,-8.0,-1.0,0.0,5.0,-4.0,-2.0,-4.0,1650849070171109.0
-3.0,-12.0,-6.0,-4.0,-13.0,-39.0,-8.0,-5.0,1650849070171109.0
4.0,14.0,11.0,4.0,10.0,57.0,13.0,3.0,1650849070173104.0
5.0,-2.0,-9.0,-6.0,2.0,-1.0,0.0,2.0,1650849070173104.0
6.0,4.0,5.0,1.0,-4.0,-3.0,10.0,2.0,1650849070194199.0
-1.0,-1.0,-2.0,-1.0,1.0,-7.0,-3.0,-1.0,1650849070194199.0
-5.0,-8.0,-10.0,-9.0,2.0,-9.0,-2.0,-3.0,1650849070195200.0
-12.0,-2.0,1.0,0.0,-5.0,-4.0,-6.0,-2.0,1650849070195200.0
6.0,5.0,-5.0,-7.0,-14.0,-19.0,-9.0,-1.0,1650849070207195.0
-5.0,-3.0,17.0,11.0,-2.0,18.0,1.0,-3.0,1650849070207195.0
1.0,-3.0,-13.0,0.0,5.0,-9.0,2.0,5.0,1650849070216266.0
-6.0,6.0,-2.0,5.0,14.0,20.0,3.0,-1.0,1650849070216266.0
3.0,-9.0,-3.0,-11.0,-10.0,-9.0,1.0,0.0,1650849070231226.0
11.0,6.0,-6.0,-9.0,2.0,1.0,-1.0,0.0,1650849070231226.0
-3.0,-5.0,-3.0,-1.0,-13.0,-10.0,-6.0,-3.0,1650849070233222.0
-8.0,2.0,2.0,0.0,-4.0,-8.0,-2.0,0.0,1650849070233222.0
-1.0,-8.0,-4.0,2.0,4.0,1.0,-2.0,-2.0,1650849070261234.0
2.0,5.0,1.0,-2.0,-2.0,-16.0,-3.0,1.0,1650849070261234.0
-1.0,14.0,9.0,5.0,8.0,27.0,5.0,0.0,1650849070263253.0
-5.0,-5.0,1.0,3.0,4.0,1.0,4.0,-1.0,1650849070263253.0
5.0,0.0,6.0,7.0,7.0,4.0,-2.0,-1.0,1650849070276221.0
-2.0,1.0,1.0,-4.0,-5.0,-16.0,1.0,1.0,1650849070276221.0
-3.0,-7.0,-8.0,-1.0,0.0,2.0,-5.0,-2.0,1650849070282203.0
-1.0,0.0,1.0,-5.0,-5.0,-9.0,2.0,0.0,1650849070282203.0
-2.0,-3.0,-8.0,-1.0,-4.0,-2.0,-5.0,-2.0,1650849070291151.0
-4.0,-5.0,5.0,6.0,2.0,4.0,1.0,1.0,1650849070291151.0
1.0,2.0,-1.0,5.0,7.0,-4.0,-2.0,0.0,1650849070293150.0
1.0,3.0,7.0,1.0,3.0,6.0,1.0,0.0,1650849070293150.0
1.0,-6.0,-7.0,0.0,2.0,3.0,-1.0,1.0,1650849070314090.0
-2.0,-1.0,-8.0,-8.0,0.0,2.0,0.0,-2.0,1650849070314090.0
-2.0,0.0,-1.0,-4.0,-11.0,-11.0,-2.0,-3.0,1650849070315087.0
-4.0,-1.0,1.0,-4.0,-8.0,-10.0,-3.0,-2.0,1650849070315087.0
-2.0,-1.0,5.0,10.0,8.0,-11.0,-5.0,-2.0,1650849070344231.0
3.0,3.0,0.0,5.0,13.0,45.0,8.0,3.0,1650849070344231.0
1.0,-2.0,3.0,-5.0,-8.0,-5.0,1.0,0.0,1650849070345243.0
-1.0,1.0,-8.0,-3.0,-3.0,-16.0,-5.0,-1.0,1650849070345243.0
1.0,-1.0,6.0,2.0,-2.0,16.0,3.0,0.0,1650849070352211.0
-4.0,-11.0,-3.0,-1.0,2.0,-10.0,-4.0,0.0,1650849070352211.0
-2.0,12.0,3.0,0.0,-3.0,-23.0,-4.0,-3.0,1650849070358197.0
6.0,-3.0,-6.0,-2.0,2.0,23.0,3.0,3.0,1650849070358197.0
0.0,1.0,-2.0,-1.0,-5.0,-3.0,-1.0,-1.0,1650849070374182.0
-1.0,0.0,3.0,6.0,1.0,6.0,2.0,-1.0,1650849070374182.0
-1.0,-8.0,-9.0,-9.0,6.0,0.0,2.0,-1.0,1650849070375151.0
-3.0,9.0,-4.0,-4.0,-1.0,-12.0,-2.0,-4.0,1650849070375151.0
-2.0,-3.0,12.0,11.0,-8.0,0.0,3.0,5.0,1650849070403590.0
2.0,3.0,4.0,3.0,-2.0,0.0,-1.0,-2.0,1650849070403590.0
0.0,-3.0,-11.0,-5.0,-3.0,-22.0,-5.0,-1.0,1650849070405558.0
-5.0,-4.0,-3.0,-4.0,0.0,19.0,0.0,-3.0,1650849070405558.0
0.0,4.0,-2.0,-8.0,2.0,4.0,0.0,0.0,1650849070411569.0
-2.0,-3.0,-2.0,0.0,-5.0,-17.0,-2.0,0.0,1650849070411569.0
0.0,-3.0,2.0,0.0,3.0,10.0,-4.0,-2.0,1650849070417524.0
3.0,1.0,2.0,-1.0,-3.0,-5.0,3.0,1.0,1650849070417524.0
1.0,-3.0,1.0,0.0,-6.0,-4.0,0.0,0.0,1650849070433646.0
-3.0,3.0,6.0,5.0,2.0,-10.0,-1.0,0.0,1650849070433646.0
-1.0,-9.0,-13.0,-6.0,2.0,11.0,-3.0,-1.0,1650849070435642.0
-1.0,3.0,7.0,1.0,-3.0,-21.0,-2.0,-1.0,1650849070435642.0
-5.0,-1.0,-2.0,2.0,4.0,19.0,1.0,-1.0,1650849070463932.0
-1.0,0.0,-3.0,-5.0,3.0,7.0,1.0,1.0,1650849070463932.0
2.0,-5.0,8.0,5.0,7.0,1.0,2.0,1.0,1650849070465861.0
-3.0,5.0,3.0,1.0,0.0,-6.0,-1.0,-1.0,1650849070465861.0
1.0,-1.0,1.0,-4.0,-10.0,-14.0,-4.0,-4.0,1650849070470847.0
-1.0,1.0,-6.0,-1.0,-1.0,7.0,0.0,-2.0,1650849070470847.0
-2.0,0.0,6.0,1.0,-4.0,-3.0,2.0,1.0,1650849070477856.0
-1.0,-4.0,1.0,-1.0,-10.0,-14.0,-4.0,-1.0,1650849070477856.0
-1.0,-2.0,1.0,0.0,9.0,11.0,-2.0,-2.0,1650849070494850.0
1.0,-4.0,-9.0,1.0,9.0,10.0,5.0,2.0,1650849070494850.0
0.0,15.0,5.0,-3.0,-8.0,-13.0,-2.0,0.0,1650849070495780.0
-2.0,-14.0,-2.0,-1.0,-6.0,24.0,6.0,0.0,1650849070495780.0
0.0,-8.0,-14.0,-1.0,9.0,-6.0,-3.0,0.0,1650849070516756.0
-2.0,-5.0,5.0,5.0,3.0,-1.0,0.0,-1.0,1650849070516756.0
-1.0,-4.0,-5.0,-6.0,-3.0,-4.0,1.0,1.0,1650849070517721.0
-3.0,6.0,-1.0,0.0,-11.0,-31.0,-7.0,-3.0,1650849070517721.0
2.0,-2.0,3.0,-4.0,5.0,24.0,3.0,1.0,1650849070530713.0
2.0,2.0,-8.0,-9.0,1.0,5.0,2.0,1.0,1650849070530713.0
-2.0,-5.0,11.0,10.0,-4.0,-7.0,-2.0,-2.0,1650849070537667.0
1.0,0.0,-11.0,0.0,13.0,15.0,1.0,0.0,1650849070537667.0
-2.0,-2.0,-7.0,-8.0,-11.0,-13.0,-2.0,-1.0,1650849070553645.0
-3.0,-4.0,-9.0,-13.0,-8.0,-20.0,-6.0,-3.0,1650849070553645.0
2.0,-5.0,-2.0,7.0,8.0,28.0,6.0,1.0,1650849070559609.0
-3.0,-3.0,4.0,-1.0,-3.0,-12.0,-1.0,0.0,1650849070559609.0
0.0,15.0,4.0,0.0,0.0,-5.0,-1.0,-3.0,1650849070583559.0
0.0,-6.0,-7.0,-3.0,-5.0,3.0,1.0,-2.0,1650849070583559.0
-4.0,4.0,2.0,2.0,0.0,-4.0,-2.0,-1.0,1650849070585540.0
2.0,-4.0,3.0,0.0,2.0,-7.0,-2.0,1.0,1650849070585540.0
3.0,-5.0,-7.0,0.0,10.0,28.0,8.0,3.0,1650849070590526.0
-4.0,2.0,6.0,-4.0,-11.0,-10.0,-5.0,-4.0,1650849070590526.0
-2.0,0.0,1.0,-1.0,-1.0,-2.0,-1.0,-1.0,1650849070597508.0
1.0,2.0,0.0,1.0,4.0,4.0,-2.0,0.0,1650849070597508.0
-4.0,-1.0,0.0,3.0,-5.0,-14.0,-3.0,-1.0,1650849070621444.0
1.0,0.0,5.0,4.0,-2.0,-12.0,0.0,1.0,1650849070621444.0
0.0,-7.0,-7.0,-4.0,5.0,18.0,-1.0,1.0,1650849070622458.0
-2.0,1.0,2.0,-6.0,8.0,13.0,2.0,1.0,1650849070622458.0
3.0,7.0,-1.0,7.0,-9.0,-10.0,0.0,-1.0,1650849070636536.0
-1.0,-12.0,2.0,1.0,7.0,7.0,1.0,0.0,1650849070636536.0
1.0,9.0,1.0,-6.0,-3.0,-14.0,-2.0,-2.0,1650849070637542.0
-1.0,-9.0,-2.0,9.0,-4.0,3.0,-1.0,1.0,1650849070637542.0
1.0,2.0,3.0,-1.0,7.0,8.0,3.0,2.0,1650849070650503.0
0.0,17.0,-4.0,-10.0,0.0,-4.0,-3.0,1.0,1650849070650503.0
4.0,-2.0,-7.0,-5.0,3.0,3.0,0.0,1.0,1650849070657474.0
3.0,-5.0,-2.0,2.0,-5.0,-3.0,0.0,-1.0,1650849070657474.0
4.0,-7.0,11.0,10.0,-3.0,-23.0,-5.0,-1.0,1650849070673552.0
-2.0,6.0,8.0,7.0,-2.0,25.0,5.0,-1.0,1650849070673552.0
8.0,5.0,-5.0,-3.0,7.0,3.0,-1.0,0.0,1650849070675508.0
5.0,-18.0,-3.0,-2.0,5.0,8.0,1.0,-2.0,1650849070675508.0
-29.0,18.0,11.0,-13.0,0.0,-4.0,-3.0,3.0,1650849070704246.0
12.0,-19.0,-10.0,-1.0,-9.0,-19.0,1.0,6.0,1650849070704246.0
36.0,-17.0,-7.0,2.0,-4.0,16.0,2.0,-1.0,1650849070704982.0
19.0,12.0,13.0,4.0,-2.0,-7.0,0.0,-2.0,1650849070704982.0
15.0,-14.0,-6.0,-1.0,-6.0,-6.0,-4.0,-6.0,1650849070710995.0
-12.0,17.0,-11.0,-10.0,2.0,-12.0,-1.0,3.0,1650849070710995.0
-32.0,-5.0,-12.0,-6.0,0.0,14.0,1.0,5.0,1650849070716980.0
-22.0,-7.0,28.0,18.0,0.0,-9.0,1.0,-7.0,1650849070716980.0
12.0,3.0,15.0,-9.0,-2.0,0.0,-3.0,-2.0,1650849070734307.0
-9.0,5.0,-38.0,-3.0,-2.0,6.0,0.0,5.0,1650849070734307.0
-38.0,-27.0,23.0,5.0,-6.0,-37.0,-3.0,-16.0,1650849070735306.0
12.0,9.0,-10.0,-12.0,8.0,29.0,6.0,10.0,1650849070735306.0
-3.0,-1.0,-13.0,8.0,7.0,2.0,3.0,3.0,1650849070756277.0
-15.0,-4.0,15.0,-13.0,-7.0,5.0,-2.0,-1.0,1650849070756277.0
25.0,11.0,-2.0,-1.0,-11.0,-7.0,-4.0,-3.0,1650849070758264.0
23.0,7.0,32.0,19.0,-2.0,-11.0,-4.0,40.0,1650849070758264.0
-40.0,-20.0,-46.0,-4.0,2.0,-8.0,-7.0,-30.0,1650849070770212.0
15.0,-16.0,23.0,11.0,15.0,11.0,8.0,10.0,1650849070770212.0
85.0,47.0,35.0,13.0,8.0,-2.0,-3.0,-2.0,1650849070785274.0
-10.0,-47.0,-86.0,-32.0,-32.0,-12.0,-8.0,-7.0,1650849070785274.0
-34.0,14.0,40.0,9.0,-5.0,3.0,5.0,-16.0,1650849070793256.0
14.0,-16.0,-56.0,9.0,14.0,5.0,-7.0,10.0,1650849070793256.0
8.0,17.0,80.0,28.0,16.0,-8.0,1.0,6.0,1650849070800303.0
7.0,-8.0,-28.0,-30.0,-5.0,13.0,-1.0,-12.0,1650849070800303.0
60.0,51.0,10.0,3.0,-1.0,1.0,-2.0,14.0,1650849070816359.0
-15.0,17.0,38.0,15.0,-1.0,-4.0,-3.0,5.0,1650849070816359.0
3.0,-54.0,-24.0,0.0,1.0,1.0,-5.0,10.0,1650849070818309.0
15.0,4.0,15.0,0.0,-4.0,-8.0,0.0,24.0,1650849070818309.0
-20.0,-32.0,-13.0,-26.0,-9.0,-2.0,1.0,-6.0,1650849070839275.0
35.0,21.0,38.0,32.0,0.0,-3.0,-9.0,-25.0,1650849070839275.0
-70.0,20.0,-18.0,-50.0,-11.0,-1.0,5.0,17.0,1650849070840251.0
10.0,-40.0,-57.0,6.0,6.0,7.0,9.0,21.0,1650849070840251.0
-14.0,6.0,26.0,27.0,7.0,-2.0,-7.0,-11.0,1650849070854212.0
-21.0,16.0,-5.0,-11.0,-15.0,1.0,6.0,-11.0,1650849070854212.0
51.0,-59.0,-29.0,3.0,-18.0,-9.0,-5.0,11.0,1650849070855211.0
31.0,21.0,20.0,-9.0,26.0,5.0,0.0,-45.0,1650849070855211.0
-29.0,5.0,-5.0,-1.0,-4.0,-1.0,0.0,2.0,1650849070876155.0
15.0,-42.0,-41.0,-12.0,0.0,-3.0,0.0,13.0,1650849070876155.0
-17.0,16.0,-37.0,-1.0,3.0,5.0,3.0,-2.0,1650849070878177.0
-8.0,-3.0,-3.0,-14.0,-20.0,-10.0,10.0,18.0,1650849070878177.0
27.0,16.0,54.0,32.0,12.0,7.0,-2.0,-6.0,1650849070890145.0
6.0,-31.0,-59.0,-17.0,-11.0,-8.0,-1.0,-7.0,1650849070890145.0
27.0,-7.0,-2.0,-4.0,8.0,7.0,5.0,11.0,1650849070905076.0
-90.0,44.0,42.0,-4.0,6.0,-8.0,-9.0,-39.0,1650849070905076.0
-58.0,-55.0,-78.0,-12.0,-2.0,-4.0,-2.0,25.0,1650849070914143.0
24.0,4.0,76.0,17.0,-21.0,3.0,4.0,-12.0,1650849070914143.0
-94.0,14.0,-86.0,-23.0,-14.0,-7.0,-3.0,-9.0,1650849070915144.0
37.0,50.0,51.0,9.0,12.0,-3.0,-4.0,-4.0,1650849070915144.0
48.0,-16.0,43.0,13.0,6.0,6.0,3.0,4.0,1650849070936114.0
-37.0,10.0,-66.0,-31.0,-5.0,-3.0,-3.0,2.0,1650849070936114.0
-12.0,-11.0,19.0,8.0,3.0,-9.0,-4.0,-26.0,1650849070938081.0
22.0,26.0,0.0,-5.0,-1.0,6.0,1.0,6.0,1650849070938081.0
-5.0,0.0,6.0,-15.0,4.0,9.0,5.0,19.0,1650849070959026.0
-44.0,-49.0,34.0,3.0,3.0,4.0,7.0,-14.0,1650849070959026.0
20.0,14.0,-1.0,20.0,8.0,6.0,6.0,36.0,1650849070961031.0
1.0,7.0,15.0,22.0,2.0,-12.0,-5.0,-11.0,1650849070961031.0
-55.0,-4.0,12.0,3.0,-7.0,-23.0,-12.0,-12.0,1650849070974012.0
-12.0,-12.0,-7.0,-19.0,-21.0,25.0,12.0,4.0,1650849070974012.0
10.0,14.0,-25.0,8.0,7.0,-4.0,-2.0,-9.0,1650849070975003.0
-23.0,17.0,1.0,-11.0,9.0,2.0,-5.0,-8.0,1650849070975003.0
49.0,-5.0,7.0,58.0,13.0,-3.0,-4.0,-5.0,1650849070995993.0
-9.0,27.0,-15.0,-40.0,12.0,-6.0,-8.0,6.0,1650849070995993.0
-13.0,-1.0,10.0,38.0,-13.0,-10.0,3.0,-43.0,1650849070997922.0
11.0,7.0,5.0,-23.0,-18.0,11.0,-6.0,10.0,1650849070997922.0
37.0,13.0,-37.0,-1.0,-11.0,-2.0,7.0,4.0,1650849071009895.0
98.0,39.0,9.0,10.0,12.0,-7.0,-6.0,-19.0,1650849071009895.0
8.0,-23.0,42.0,-20.0,4.0,16.0,5.0,-18.0,1650849071018866.0
-5.0,-75.0,-26.0,17.0,15.0,0.0,3.0,27.0,1650849071018866.0
35.0,24.0,-79.0,-69.0,-10.0,-6.0,-3.0,-36.0,1650849071033826.0
-8.0,26.0,100.0,92.0,8.0,6.0,12.0,54.0,1650849071033826.0
-9.0,-8.0,16.0,11.0,-7.0,-6.0,-5.0,0.0,1650849071035859.0
-6.0,-4.0,-39.0,11.0,-5.0,-2.0,-2.0,-14.0,1650849071035859.0
-34.0,-17.0,-37.0,-63.0,-13.0,-12.0,-3.0,-11.0,1650849071055787.0
10.0,-20.0,-52.0,7.0,-1.0,-14.0,-9.0,12.0,1650849071055787.0
-16.0,37.0,36.0,-4.0,8.0,35.0,13.0,15.0,1650849071063745.0
-40.0,19.0,52.0,12.0,3.0,-1.0,1.0,-3.0,1650849071063745.0
10.0,-25.0,-47.0,-15.0,5.0,8.0,-2.0,10.0,1650849071069728.0
-8.0,-4.0,-7.0,-44.0,-17.0,-24.0,0.0,-18.0,1650849071069728.0
14.0,-19.0,-39.0,19.0,2.0,-11.0,-16.0,25.0,1650849071078716.0
69.0,43.0,36.0,6.0,-7.0,9.0,17.0,-19.0,1650849071078716.0
15.0,-14.0,18.0,26.0,-2.0,-2.0,3.0,3.0,1650849071093665.0
-73.0,0.0,34.0,17.0,3.0,4.0,-11.0,-19.0,1650849071093665.0
-44.0,-12.0,-23.0,-37.0,1.0,0.0,1.0,-2.0,1650849071095659.0
26.0,-16.0,16.0,-19.0,5.0,0.0,-6.0,-5.0,1650849071095659.0
-17.0,-2.0,-57.0,-3.0,-6.0,-7.0,0.0,19.0,1650849071116657.0
2.0,7.0,7.0,6.0,2.0,8.0,2.0,9.0,1650849071116657.0
30.0,25.0,15.0,-59.0,-19.0,-12.0,-5.0,-12.0,1650849071117657.0
-16.0,-27.0,11.0,49.0,5.0,26.0,5.0,11.0,1650849071117657.0
-26.0,13.0,9.0,13.0,11.0,-2.0,-5.0,4.0,1650849071129662.0
10.0,-10.0,-21.0,-3.0,13.0,11.0,3.0,-4.0,1650849071129662.0
-14.0,6.0,28.0,24.0,3.0,-14.0,1.0,3.0,1650849071138609.0
-21.0,-33.0,-51.0,-7.0,-11.0,-18.0,-12.0,-35.0,1650849071138609.0
33.0,5.0,28.0,-9.0,-8.0,8.0,7.0,36.0,1650849071153636.0
-7.0,7.0,-38.0,-6.0,-3.0,-7.0,-3.0,-19.0,1650849071153636.0
75.0,10.0,36.0,1.0,0.0,-12.0,-8.0,7.0,1650849071155591.0
-40.0,-21.0,-27.0,-20.0,-5.0,-5.0,1.0,8.0,1650849071155591.0
45.0,10.0,9.0,6.0,0.0,34.0,12.0,3.0,1650849071176719.0
2.0,-2.0,20.0,0.0,17.0,-5.0,-1.0,4.0,1650849071176719.0
12.0,19.0,31.0,13.0,1.0,15.0,7.0,13.0,1650849071177708.0
3.0,13.0,1.0,8.0,3.0,-13.0,-7.0,0.0,1650849071177708.0
-53.0,-28.0,-2.0,-14.0,-16.0,-18.0,-6.0,8.0,1650849071198719.0
17.0,32.0,-14.0,-13.0,-10.0,0.0,7.0,6.0,1650849071198719.0
7.0,-14.0,1.0,-5.0,-3.0,4.0,2.0,-4.0,1650849071200674.0
-14.0,-11.0,27.0,25.0,21.0,4.0,-3.0,-13.0,1650849071200674.0
23.0,8.0,-25.0,2.0,-13.0,-5.0,-11.0,-20.0,1650849071221779.0
17.0,-19.0,-16.0,-12.0,1.0,-6.0,1.0,-8.0,1650849071221779.0
-24.0,5.0,-19.0,-19.0,-14.0,4.0,-1.0,5.0,1650849071222703.0
-2.0,-8.0,1.0,19.0,6.0,-1.0,1.0,4.0,1650849071222703.0
29.0,8.0,32.0,3.0,19.0,5.0,3.0,-9.0,1650849071236364.0
29.0,21.0,12.0,-13.0,6.0,10.0,2.0,22.0,1650849071236364.0
-8.0,9.0,16.0,27.0,6.0,-8.0,0.0,4.0,1650849071238321.0
-16.0,3.0,-30.0,-8.0,-19.0,-13.0,0.0,10.0,1650849071238321.0
-23.0,28.0,39.0,5.0,7.0,9.0,0.0,-14.0,1650849071259273.0
-17.0,-19.0,-23.0,-27.0,-8.0,-12.0,-4.0,8.0,1650849071259273.0
36.0,13.0,8.0,20.0,7.0,24.0,10.0,-7.0,1650849071260235.0
19.0,-11.0,-19.0,-9.0,-5.0,-12.0,-4.0,12.0,1650849071260235.0
-15.0,-4.0,17.0,5.0,-5.0,-3.0,2.0,-6.0,1650849071274303.0
9.0,2.0,-34.0,-44.0,-4.0,-4.0,-6.0,-14.0,1650849071274303.0
-31.0,3.0,11.0,-4.0,-3.0,5.0,1.0,3.0,1650849071275305.0
-26.0,7.0,34.0,40.0,1.0,-7.0,-4.0,-27.0,1650849071275305.0
9.0,3.0,-12.0,-2.0,14.0,0.0,2.0,1.0,1650849071296827.0
9.0,-11.0,39.0,26.0,1.0,2.0,-1.0,-4.0,1650849071296827.0
-19.0,12.0,-35.0,-29.0,-8.0,-10.0,-3.0,-23.0,1650849071297827.0
-37.0,0.0,-33.0,-33.0,-9.0,3.0,4.0,13.0,1650849071297827.0
-5.0,-52.0,-10.0,-15.0,-13.0,-10.0,-1.0,-7.0,1650849071318973.0
34.0,26.0,51.0,31.0,4.0,1.0,-4.0,8.0,1650849071318973.0
-26.0,-7.0,-29.0,10.0,4.0,-4.0,-5.0,0.0,1650849071319937.0
43.0,13.0,21.0,-19.0,-5.0,-7.0,-2.0,3.0,1650849071319937.0
15.0,5.0,-24.0,-25.0,-10.0,5.0,5.0,-8.0,1650849071334308.0
-23.0,-26.0,38.0,59.0,11.0,7.0,3.0,23.0,1650849071334308.0
4.0,-42.0,-45.0,-16.0,-11.0,-11.0,-4.0,-13.0,1650849071335307.0
16.0,7.0,-25.0,-6.0,3.0,-1.0,-1.0,5.0,1650849071335307.0
74.0,26.0,46.0,22.0,1.0,-3.0,-4.0,13.0,1650849071356438.0
-1.0,-15.0,-12.0,-7.0,-1.0,-1.0,2.0,-17.0,1650849071356438.0
-76.0,3.0,0.0,2.0,6.0,3.0,-1.0,-11.0,1650849071358386.0
7.0,13.0,21.0,-10.0,-5.0,-1.0,1.0,15.0,1650849071358386.0
-14.0,-3.0,-2.0,-9.0,0.0,-6.0,-1.0,-1.0,1650849071379514.0
3.0,4.0,-30.0,-24.0,-16.0,-11.0,-1.0,-7.0,1650849071379514.0
31.0,-18.0,46.0,49.0,12.0,21.0,1.0,0.0,1650849071380474.0
7.0,56.0,-5.0,20.0,23.0,22.0,8.0,1.0,1650849071380474.0
-21.0,-29.0,9.0,-6.0,-5.0,-9.0,-6.0,-4.0,1650849071393408.0
10.0,31.0,12.0,0.0,-7.0,-8.0,-2.0,2.0,1650849071393408.0
-30.0,-23.0,-32.0,-17.0,-7.0,-21.0,-2.0,7.0,1650849071400417.0
26.0,-21.0,-8.0,-25.0,-28.0,-8.0,-5.0,-16.0,1650849071400417.0
9.0,23.0,-17.0,-10.0,3.0,4.0,4.0,5.0,1650849071416541.0
-11.0,-1.0,13.0,20.0,14.0,4.0,-5.0,-13.0,1650849071416541.0
63.0,42.0,-6.0,-19.0,-7.0,-9.0,0.0,0.0,1650849071417551.0
26.0,-32.0,2.0,9.0,1.0,4.0,-4.0,4.0,1650849071417551.0
13.0,6.0,5.0,17.0,10.0,22.0,11.0,22.0,1650849071438678.0
-14.0,0.0,-25.0,-35.0,-10.0,2.0,0.0,-7.0,1650849071438678.0
-23.0,8.0,32.0,40.0,6.0,-4.0,-4.0,-19.0,1650849071440623.0
-8.0,-19.0,-46.0,-21.0,4.0,-8.0,0.0,4.0,1650849071440623.0
0.0,-17.0,16.0,-2.0,-1.0,-4.0,-2.0,-4.0,1650849071453590.0
-26.0,-4.0,10.0,3.0,-5.0,2.0,-2.0,6.0,1650849071453590.0
52.0,17.0,-24.0,-16.0,-4.0,-1.0,1.0,11.0,1650849071459601.0
-27.0,-28.0,5.0,6.0,0.0,-8.0,-5.0,-7.0,1650849071459601.0
-15.0,-2.0,-44.0,-19.0,-8.0,4.0,0.0,-2.0,1650849071475710.0
14.0,-4.0,28.0,26.0,3.0,7.0,6.0,19.0,1650849071475710.0
16.0,7.0,16.0,-6.0,6.0,-3.0,-2.0,1.0,1650849071483690.0
-43.0,0.0,-5.0,-13.0,-2.0,3.0,2.0,3.0,1650849071483690.0
-14.0,31.0,35.0,33.0,7.0,-12.0,-5.0,-14.0,1650849071499714.0
27.0,-12.0,-9.0,-15.0,0.0,7.0,-3.0,-3.0,1650849071499714.0
1.0,-12.0,-12.0,-4.0,1.0,7.0,5.0,8.0,1650849071500657.0
25.0,23.0,9.0,6.0,-1.0,-1.0,-1.0,1.0,1650849071500657.0
-8.0,-36.0,-4.0,-5.0,-7.0,-7.0,-5.0,9.0,1650849071513677.0
-60.0,3.0,-5.0,-9.0,0.0,-6.0,1.0,-6.0,1650849071513677.0
-9.0,-13.0,15.0,11.0,-2.0,-19.0,-2.0,1.0,1650849071519661.0
-10.0,16.0,-16.0,8.0,-1.0,32.0,-1.0,-5.0,1650849071519661.0
-11.0,14.0,30.0,2.0,15.0,3.0,3.0,-3.0,1650849071536607.0
11.0,-13.0,-6.0,12.0,-3.0,-9.0,-5.0,-14.0,1650849071536607.0
36.0,-2.0,-83.0,-42.0,-2.0,4.0,-1.0,4.0,1650849071537609.0
-37.0,-21.0,38.0,2.0,-18.0,-28.0,-5.0,-8.0,1650849071537609.0
-14.0,17.0,-2.0,15.0,-11.0,0.0,-6.0,-8.0,1650849071558578.0
9.0,2.0,1.0,28.0,23.0,16.0,2.0,-4.0,1650849071558578.0
-14.0,-34.0,-44.0,-47.0,-4.0,1.0,2.0,3.0,1650849071560547.0
-12.0,10.0,23.0,4.0,-10.0,-22.0,0.0,-1.0,1650849071560547.0
-27.0,-9.0,-21.0,-2.0,10.0,25.0,4.0,0.0,1650849071573554.0
19.0,0.0,-1.0,-23.0,-16.0,-10.0,2.0,-3.0,1650849071573554.0
-36.0,-11.0,3.0,13.0,-1.0,-5.0,-4.0,-5.0,1650849071580213.0
20.0,7.0,-2.0,1.0,1.0,19.0,1.0,7.0,1650849071580213.0
32.0,2.0,46.0,14.0,2.0,-13.0,-2.0,5.0,1650849071596280.0
-22.0,11.0,4.0,5.0,4.0,-2.0,-1.0,-3.0,1650849071596280.0
-49.0,-45.0,13.0,-5.0,-9.0,-4.0,-5.0,-7.0,1650849071598231.0
-12.0,-5.0,-34.0,-5.0,12.0,4.0,5.0,3.0,1650849071598231.0
18.0,-3.0,40.0,18.0,-11.0,-11.0,-2.0,18.0,1650849071619306.0
9.0,14.0,-37.0,-14.0,0.0,6.0,-5.0,-10.0,1650849071619306.0
5.0,7.0,-1.0,-12.0,3.0,8.0,4.0,1.0,1650849071621274.0
27.0,-5.0,39.0,26.0,13.0,5.0,5.0,8.0,1650849071621274.0
-56.0,-34.0,-43.0,-14.0,-10.0,-6.0,-1.0,-5.0,1650849071633357.0
4.0,-7.0,5.0,-5.0,-2.0,1.0,0.0,-3.0,1650849071633357.0
27.0,25.0,15.0,13.0,0.0,1.0,-2.0,3.0,1650849071640357.0
13.0,-3.0,-36.0,-34.0,-10.0,-4.0,-4.0,-6.0,1650849071640357.0
31.0,30.0,4.0,5.0,5.0,0.0,1.0,-3.0,1650849071656311.0
36.0,-26.0,16.0,12.0,3.0,-1.0,-1.0,4.0,1650849071656311.0
-24.0,0.0,-28.0,-6.0,1.0,2.0,0.0,-6.0,1650849071658279.0
-9.0,16.0,9.0,-7.0,-15.0,-24.0,-4.0,0.0,1650849071658279.0
5.0,-18.0,-5.0,11.0,10.0,33.0,3.0,-3.0,1650849071679222.0
-3.0,15.0,11.0,-1.0,0.0,0.0,3.0,0.0,1650849071679222.0
-2.0,-14.0,28.0,16.0,5.0,2.0,0.0,8.0,1650849071680221.0
-37.0,3.0,-25.0,-39.0,-4.0,-3.0,-4.0,-13.0,1650849071680221.0
25.0,-1.0,2.0,18.0,-8.0,-21.0,-5.0,-3.0,1650849071692216.0
-6.0,37.0,18.0,-4.0,-12.0,-22.0,-10.0,-5.0,1650849071692216.0
4.0,4.0,-1.0,17.0,-3.0,7.0,-2.0,-4.0,1650849071701163.0
12.0,6.0,-5.0,4.0,21.0,29.0,5.0,4.0,1650849071701163.0
-8.0,-2.0,-11.0,-18.0,2.0,-4.0,3.0,1.0,1650849071716193.0
1.0,-10.0,7.0,24.0,0.0,4.0,-3.0,-8.0,1650849071716193.0
23.0,11.0,25.0,12.0,-15.0,-22.0,-7.0,-6.0,1650849071718118.0
36.0,1.0,-17.0,-12.0,-13.0,-9.0,-2.0,-6.0,1650849071718118.0
-14.0,1.0,-3.0,-22.0,-4.0,4.0,1.0,-3.0,1650849071739090.0
-15.0,-12.0,-48.0,-29.0,12.0,7.0,4.0,2.0,1650849071739090.0
-24.0,-4.0,42.0,29.0,-3.0,-3.0,-2.0,2.0,1650849071740060.0
-53.0,-7.0,-4.0,3.0,2.0,-4.0,-2.0,-9.0,1650849071740060.0
5.0,-18.0,-36.0,-25.0,4.0,17.0,9.0,6.0,1650849071752055.0
4.0,14.0,29.0,17.0,-5.0,-7.0,2.0,1.0,1650849071752055.0
-15.0,-12.0,-6.0,-12.0,14.0,16.0,1.0,-6.0,1650849071761005.0
32.0,8.0,-6.0,-4.0,-11.0,-22.0,0.0,3.0,1650849071761005.0
62.0,28.0,53.0,40.0,13.0,13.0,-2.0,10.0,1650849071776988.0
-43.0,-50.0,-15.0,-32.0,-15.0,-2.0,-2.0,0.0,1650849071776988.0
7.0,-9.0,-33.0,18.0,1.0,-3.0,-1.0,-3.0,1650849071777959.0
4.0,-15.0,-1.0,-15.0,-7.0,0.0,-1.0,5.0,1650849071777959.0
-6.0,21.0,7.0,8.0,-3.0,-15.0,-5.0,-6.0,1650849071798970.0
10.0,-10.0,-26.0,-4.0,7.0,8.0,4.0,5.0,1650849071798970.0
16.0,1.0,34.0,-3.0,-6.0,-3.0,0.0,3.0,1650849071799920.0
14.0,21.0,0.0,-4.0,2.0,-8.0,-4.0,3.0,1650849071799920.0
-24.0,-3.0,9.0,3.0,2.0,23.0,7.0,-10.0,1650849071812865.0
4.0,8.0,12.0,10.0,-4.0,1.0,1.0,0.0,1650849071812865.0
-11.0,-8.0,-10.0,7.0,9.0,-1.0,-1.0,-4.0,1650849071821868.0
9.0,10.0,24.0,6.0,-6.0,-11.0,-2.0,7.0,1650849071821868.0
-6.0,-9.0,-28.0,-4.0,10.0,-5.0,-1.0,1.0,1650849071836020.0
-8.0,15.0,1.0,-9.0,-4.0,5.0,0.0,-3.0,1650849071836020.0
12.0,23.0,25.0,9.0,7.0,13.0,1.0,0.0,1650849071837925.0
11.0,-52.0,-6.0,3.0,1.0,11.0,-1.0,1.0,1650849071837925.0
-32.0,4.0,0.0,-4.0,-13.0,-25.0,-8.0,-13.0,1650849071858867.0
12.0,-15.0,-16.0,2.0,-2.0,-4.0,-1.0,2.0,1650849071858867.0
-1.0,5.0,-49.0,-22.0,-5.0,-11.0,-4.0,-4.0,1650849071859865.0
16.0,9.0,-2.0,-10.0,-12.0,-1.0,-1.0,1.0,1650849071859865.0
-11.0,-39.0,-16.0,-8.0,7.0,-4.0,-4.0,-6.0,1650849071872858.0
0.0,9.0,1.0,14.0,27.0,22.0,7.0,3.0,1650849071872858.0
21.0,13.0,15.0,-13.0,-12.0,1.0,2.0,6.0,1650849071881808.0
-16.0,-8.0,3.0,3.0,-1.0,-9.0,-2.0,-1.0,1650849071881808.0
15.0,12.0,-4.0,-2.0,-13.0,2.0,-5.0,4.0,1650849071895769.0
-40.0,-23.0,10.0,11.0,3.0,-8.0,-6.0,-14.0,1650849071895769.0
-1.0,1.0,-6.0,-3.0,6.0,-1.0,0.0,4.0,1650849071897765.0
-10.0,-31.0,-21.0,-1.0,0.0,10.0,3.0,-1.0,1650849071897765.0
19.0,47.0,12.0,-10.0,-19.0,-41.0,-8.0,3.0,1650849071918758.0
27.0,-10.0,-13.0,-2.0,10.0,40.0,12.0,4.0,1650849071918758.0
-58.0,-17.0,24.0,12.0,13.0,-2.0,0.0,2.0,1650849071920686.0
2.0,2.0,-6.0,11.0,-13.0,-2.0,0.0,-13.0,1650849071920686.0
26.0,-6.0,-20.0,0.0,1.0,-1.0,4.0,5.0,1650849071932717.0
6.0,19.0,29.0,15.0,8.0,-3.0,-1.0,8.0,1650849071932717.0
0.0,11.0,-12.0,-17.0,-6.0,-7.0,-7.0,-8.0,1650849071941630.0
-9.0,1.0,14.0,6.0,10.0,9.0,-2.0,-5.0,1650849071941630.0
-37.0,-11.0,-15.0,-14.0,-5.0,-2.0,-3.0,-9.0,1650849071956760.0
32.0,29.0,-26.0,-34.0,-13.0,-10.0,-3.0,7.0,1650849071956760.0
11.0,-27.0,36.0,35.0,-1.0,6.0,8.0,12.0,1650849071957772.0
4.0,14.0,14.0,-7.0,6.0,-2.0,-2.0,-2.0,1650849071957772.0
-8.0,-21.0,-9.0,14.0,-2.0,1.0,-1.0,-4.0,1650849071978702.0
-21.0,10.0,16.0,-15.0,-7.0,-7.0,-1.0,-5.0,1650849071978702.0
17.0,7.0,-30.0,4.0,15.0,5.0,2.0,0.0,1650849071980724.0
-20.0,-28.0,18.0,10.0,-12.0,0.0,-4.0,-4.0,1650849071980724.0
-4.0,-7.0,-61.0,-32.0,-15.0,4.0,4.0,5.0,1650849071992664.0
-23.0,14.0,23.0,34.0,6.0,-5.0,-2.0,1.0,1650849071992664.0
-14.0,9.0,84.0,39.0,12.0,3.0,-2.0,-10.0,1650849072001641.0
-8.0,4.0,20.0,9.0,1.0,-17.0,-3.0,8.0,1650849072001641.0
8.0,-17.0,-17.0,-34.0,-3.0,-5.0,-2.0,-2.0,1650849072016776.0
12.0,-10.0,-35.0,-7.0,4.0,38.0,1.0,0.0,1650849072016776.0
1.0,-31.0,-15.0,-24.0,-8.0,-16.0,-2.0,-4.0,1650849072017708.0
-2.0,41.0,13.0,6.0,9.0,30.0,9.0,22.0,1650849072017708.0
-17.0,-40.0,-20.0,-2.0,1.0,-20.0,-6.0,-8.0,1650849072038771.0
24.0,11.0,-4.0,-14.0,-16.0,-22.0,-5.0,-2.0,1650849072038771.0
36.0,12.0,-10.0,-19.0,-10.0,1.0,1.0,10.0,1650849072040767.0
-3.0,14.0,12.0,25.0,10.0,-3.0,-3.0,-3.0,1650849072040767.0
3.0,-22.0,-9.0,-27.0,-10.0,3.0,1.0,-1.0,1650849072052762.0
-5.0,38.0,36.0,36.0,-2.0,-12.0,-5.0,-6.0,1650849072052762.0
-3.0,6.0,6.0,17.0,24.0,14.0,3.0,3.0,1650849072061712.0
9.0,-15.0,-10.0,6.0,-5.0,0.0,4.0,-2.0,1650849072061712.0
-6.0,40.0,24.0,-3.0,13.0,14.0,2.0,1.0,1650849072076700.0
-14.0,-31.0,-26.0,-12.0,-12.0,-12.0,-6.0,-7.0,1650849072076700.0
-1.0,7.0,2.0,-11.0,-21.0,-8.0,1.0,-4.0,1650849072077683.0
-32.0,-5.0,-3.0,-20.0,5.0,-2.0,-3.0,-5.0,1650849072077683.0
13.0,5.0,14.0,24.0,-1.0,0.0,0.0,4.0,1650849072098679.0
25.0,-6.0,-3.0,3.0,-2.0,1.0,3.0,9.0,1650849072098679.0
-1.0,18.0,-29.0,-22.0,6.0,-3.0,-3.0,2.0,1650849072100607.0
3.0,-14.0,6.0,0.0,1.0,16.0,-1.0,-5.0,1650849072100607.0
-11.0,15.0,16.0,6.0,1.0,-13.0,4.0,1.0,1650849072112582.0
-10.0,-12.0,-18.0,-22.0,-13.0,-5.0,-7.0,-9.0,1650849072112582.0
5.0,2.0,12.0,27.0,12.0,7.0,3.0,-4.0,1650849072121550.0
14.0,-7.0,-22.0,-12.0,1.0,0.0,2.0,5.0,1650849072121550.0
2.0,9.0,7.0,2.0,-11.0,-25.0,-6.0,1.0,1650849072136510.0
-7.0,-2.0,-12.0,-12.0,7.0,29.0,7.0,2.0,1650849072136510.0
-7.0,-12.0,3.0,-8.0,-15.0,-15.0,-8.0,-7.0,1650849072137507.0
29.0,8.0,8.0,10.0,9.0,-3.0,-7.0,0.0,1650849072137507.0
-2.0,13.0,-1.0,2.0,3.0,9.0,0.0,-7.0,1650849072158451.0
-3.0,-18.0,-11.0,-10.0,-3.0,-19.0,0.0,-1.0,1650849072158451.0
-2.0,11.0,-24.0,-16.0,-18.0,-8.0,-7.0,-1.0,1650849072160446.0
16.0,2.0,1.0,12.0,4.0,6.0,-8.0,1.0,1650849072160446.0
0.0,1.0,11.0,-2.0,15.0,27.0,16.0,4.0,1650849072188461.0
9.0,-2.0,1.0,4.0,0.0,-8.0,-12.0,2.0,1650849072188461.0
-18.0,-15.0,-30.0,-24.0,-4.0,3.0,-2.0,-11.0,1650849072190456.0
-14.0,1.0,1.0,12.0,-2.0,-4.0,1.0,-3.0,1650849072190456.0
7.0,3.0,20.0,18.0,2.0,-1.0,1.0,9.0,1650849072196440.0
4.0,19.0,13.0,-8.0,1.0,0.0,4.0,0.0,1650849072196440.0
-9.0,-4.0,6.0,8.0,-2.0,-5.0,0.0,1.0,1650849072197466.0
1.0,-3.0,-21.0,-13.0,-8.0,-8.0,-9.0,-10.0,1650849072197466.0
-17.0,-14.0,-1.0,7.0,4.0,-4.0,-6.0,-7.0,1650849072218501.0
10.0,5.0,1.0,0.0,0.0,6.0,9.0,7.0,1650849072218501.0
3.0,-4.0,-9.0,-6.0,-6.0,6.0,1.0,5.0,1650849072220496.0
12.0,9.0,2.0,0.0,8.0,8.0,9.0,5.0,1650849072220496.0
-1.0,11.0,13.0,20.0,14.0,6.0,-7.0,-6.0,1650849072241504.0
-20.0,-2.0,11.0,0.0,-6.0,-18.0,-7.0,-9.0,1650849072241504.0
-6.0,-22.0,-11.0,-10.0,-6.0,0.0,0.0,-7.0,1650849072242502.0
-2.0,8.0,-24.0,-23.0,-12.0,-17.0,-3.0,-2.0,1650849072242502.0
17.0,5.0,2.0,12.0,-6.0,19.0,13.0,12.0,1650849072256491.0
8.0,0.0,-5.0,-2.0,12.0,5.0,3.0,3.0,1650849072256491.0
-2.0,0.0,-2.0,-2.0,-2.0,-6.0,-3.0,0.0,1650849072257462.0
-15.0,1.0,23.0,3.0,-3.0,-2.0,3.0,-3.0,1650849072257462.0
-12.0,-6.0,-5.0,2.0,-4.0,17.0,16.0,-6.0,1650849072278406.0
-5.0,-4.0,-8.0,5.0,2.0,-7.0,-16.0,-7.0,1650849072278406.0
28.0,10.0,2.0,-7.0,2.0,1.0,4.0,13.0,1650849072280401.0
3.0,-3.0,2.0,2.0,0.0,-10.0,-7.0,0.0,1650849072280401.0
-5.0,6.0,3.0,-3.0,15.0,7.0,-8.0,-7.0,1650849072301344.0
-27.0,-16.0,-1.0,0.0,-14.0,-6.0,-14.0,-13.0,1650849072301344.0
-2.0,5.0,-10.0,-4.0,3.0,-4.0,3.0,2.0,1650849072303347.0
15.0,3.0,10.0,4.0,-8.0,-8.0,-14.0,3.0,1650849072303347.0
11.0,5.0,1.0,0.0,1.0,-8.0,4.0,5.0,1650849072315519.0
0.0,-7.0,-1.0,-4.0,6.0,8.0,-1.0,-2.0,1650849072315519.0
1.0,2.0,2.0,13.0,-1.0,-6.0,-9.0,-4.0,1650849072322504.0
-11.0,1.0,-11.0,-4.0,-2.0,-1.0,-1.0,-3.0,1650849072322504.0
-11.0,-6.0,4.0,-1.0,1.0,-10.0,-6.0,-5.0,1650849072338803.0
8.0,-3.0,8.0,12.0,16.0,31.0,37.0,7.0,1650849072338803.0
-1.0,3.0,-17.0,-25.0,-10.0,-8.0,1.0,-5.0,1650849072340764.0
3.0,-5.0,8.0,18.0,5.0,7.0,7.0,4.0,1650849072340764.0
11.0,12.0,15.0,-5.0,-17.0,-23.0,-20.0,0.0,1650849072361708.0
3.0,-9.0,-27.0,-18.0,-6.0,-17.0,-6.0,-3.0,1650849072361708.0
-2.0,7.0,12.0,17.0,7.0,9.0,3.0,0.0,1650849072362706.0
-13.0,-10.0,1.0,5.0,7.0,27.0,11.0,-2.0,1650849072362706.0
47.0,-18.0,-10.0,-5.0,-6.0,-8.0,-10.0,1.0,1650849072375670.0
0.0,23.0,-11.0,-26.0,-4.0,-2.0,4.0,9.0,1650849072375670.0
13.0,26.0,22.0,19.0,10.0,7.0,2.0,2.0,1650849072382659.0
-5.0,-35.0,-13.0,-2.0,-7.0,-11.0,-2.0,-4.0,1650849072382659.0
6.0,-4.0,-11.0,0.0,-4.0,6.0,6.0,3.0,1650849072398623.0
0.0,1.0,-9.0,-13.0,-5.0,-5.0,-2.0,-5.0,1650849072398623.0
1.0,4.0,-5.0,-6.0,-3.0,0.0,3.0,3.0,1650849072400612.0
44.0,24.0,9.0,16.0,4.0,5.0,4.0,11.0,1650849072400612.0
-29.0,1.0,24.0,1.0,8.0,6.0,-3.0,-7.0,1650849072420859.0
10.0,-2.0,6.0,7.0,-7.0,-18.0,-10.0,-4.0,1650849072420859.0
-23.0,-13.0,-12.0,-8.0,-3.0,4.0,0.0,-4.0,1650849072422854.0
8.0,0.0,-12.0,-15.0,-8.0,-11.0,-17.0,-17.0,1650849072422854.0
8.0,5.0,-15.0,0.0,5.0,24.0,56.0,23.0,1650849072435854.0
-59.0,-1.0,0.0,-18.0,-5.0,-13.0,-15.0,-8.0,1650849072435854.0
44.0,10.0,14.0,27.0,-2.0,12.0,3.0,-9.0,1650849072449822.0
32.0,21.0,28.0,20.0,9.0,3.0,-4.0,5.0,1650849072449822.0
-16.0,-4.0,-3.0,9.0,-3.0,-19.0,-21.0,-18.0,1650849072458758.0
71.0,6.0,-13.0,-22.0,-12.0,1.0,25.0,7.0,1650849072458758.0
2.0,24.0,13.0,-4.0,15.0,16.0,2.0,15.0,1650849072464776.0
-35.0,-20.0,-28.0,-43.0,-7.0,-11.0,9.0,1.0,1650849072464776.0
-6.0,11.0,21.0,24.0,-3.0,-6.0,-21.0,-6.0,1650849072482736.0
7.0,-15.0,0.0,18.0,2.0,-1.0,-6.0,-10.0,1650849072482736.0
-4.0,-14.0,25.0,14.0,-3.0,-8.0,-10.0,-9.0,1650849072487681.0
-24.0,-9.0,-26.0,-4.0,8.0,16.0,24.0,13.0,1650849072487681.0
-39.0,19.0,18.0,-10.0,-1.0,-5.0,-7.0,-3.0,1650849072496658.0
-16.0,-7.0,-5.0,9.0,3.0,-5.0,-8.0,1.0,1650849072496658.0
-46.0,-17.0,-52.0,-38.0,-19.0,-7.0,10.0,-11.0,1650849072502675.0
11.0,11.0,27.0,2.0,25.0,6.0,-7.0,1.0,1650849072502675.0
33.0,-25.0,-28.0,-18.0,-11.0,5.0,7.0,11.0,1650849072518700.0
-14.0,-33.0,27.0,39.0,-1.0,-8.0,-7.0,-9.0,1650849072518700.0
16.0,21.0,-2.0,2.0,5.0,4.0,-4.0,11.0,1650849072520695.0
54.0,-49.0,-20.0,-17.0,-18.0,-11.0,-6.0,4.0,1650849072520695.0
21.0,61.0,26.0,7.0,-7.0,3.0,1.0,-8.0,1650849072540826.0
54.0,22.0,-28.0,2.0,1.0,-2.0,-2.0,6.0,1650849072540826.0
3.0,-34.0,12.0,12.0,17.0,-2.0,-10.0,-7.0,1650849072542792.0
-13.0,0.0,-5.0,-13.0,-4.0,-9.0,-5.0,0.0,1650849072542792.0
-27.0,-13.0,-15.0,-12.0,2.0,16.0,9.0,0.0,1650849072555787.0
-30.0,-16.0,-12.0,-5.0,3.0,6.0,-2.0,-8.0,1650849072555787.0
18.0,33.0,6.0,-12.0,-11.0,-6.0,-13.0,4.0,1650849072562761.0
-56.0,-47.0,-24.0,-13.0,0.0,-13.0,-22.0,-12.0,1650849072562761.0
26.0,35.0,26.0,25.0,9.0,1.0,2.0,2.0,1650849072578717.0
-13.0,14.0,27.0,25.0,4.0,1.0,-6.0,9.0,1650849072578717.0
-23.0,-19.0,11.0,-11.0,-11.0,-3.0,2.0,-12.0,1650849072580694.0
23.0,23.0,-32.0,-18.0,3.0,9.0,-1.0,2.0,1650849072580694.0
39.0,-6.0,-14.0,-23.0,-5.0,-10.0,-12.0,6.0,1650849072608644.0
-21.0,2.0,14.0,12.0,1.0,5.0,3.0,-4.0,1650849072608644.0
5.0,-3.0,6.0,4.0,-2.0,-13.0,6.0,3.0,1650849072610612.0
-12.0,17.0,15.0,22.0,-7.0,7.0,4.0,3.0,1650849072610612.0
-39.0,-18.0,-18.0,-6.0,17.0,7.0,5.0,-3.0,1650849072615626.0
5.0,20.0,6.0,-12.0,-4.0,-7.0,1.0,4.0,1650849072615626.0
-15.0,-36.0,-21.0,-12.0,-2.0,5.0,3.0,3.0,1650849072622600.0
-20.0,20.0,36.0,38.0,5.0,3.0,7.0,-9.0,1650849072622600.0
-29.0,-24.0,-23.0,-28.0,-7.0,-10.0,-6.0,-3.0,1650849072646628.0
-9.0,-26.0,47.0,13.0,-5.0,-8.0,-17.0,-8.0,1650849072646628.0
2.0,-6.0,-36.0,-7.0,0.0,6.0,17.0,3.0,1650849072647620.0
16.0,10.0,-26.0,-8.0,-5.0,-3.0,6.0,4.0,1650849072647620.0
6.0,14.0,-11.0,-30.0,4.0,4.0,-5.0,7.0,1650849072661612.0
-19.0,-4.0,-6.0,5.0,-7.0,-22.0,-17.0,-8.0,1650849072661612.0
14.0,13.0,31.0,27.0,10.0,59.0,34.0,9.0,1650849072663578.0
-4.0,-30.0,-15.0,-4.0,-6.0,-11.0,12.0,-4.0,1650849072663578.0
-14.0,7.0,23.0,12.0,5.0,-8.0,-11.0,-4.0,1650849072674548.0
58.0,8.0,-16.0,1.0,1.0,-2.0,6.0,-3.0,1650849072674548.0
64.0,33.0,12.0,-2.0,-4.0,-15.0,-12.0,1.0,1650849072683595.0
17.0,9.0,18.0,6.0,-6.0,-7.0,0.0,0.0,1650849072683595.0
14.0,-7.0,1.0,15.0,9.0,27.0,4.0,-2.0,1650849072698552.0
2.0,-8.0,-28.0,-33.0,-1.0,6.0,20.0,5.0,1650849072698552.0
-16.0,13.0,15.0,40.0,2.0,-19.0,-13.0,-2.0,1650849072700479.0
-2.0,3.0,21.0,11.0,3.0,10.0,-9.0,-1.0,1650849072700479.0
9.0,-16.0,-35.0,-27.0,-12.0,-17.0,9.0,1.0,1650849072721540.0
-16.0,17.0,27.0,28.0,7.0,12.0,14.0,9.0,1650849072721540.0
-30.0,-19.0,-25.0,-17.0,-7.0,-6.0,-7.0,1.0,1650849072722510.0
-8.0,13.0,-1.0,-16.0,6.0,-3.0,-6.0,-3.0,1650849072722510.0
-34.0,-13.0,1.0,7.0,-7.0,-3.0,-2.0,-8.0,1650849072735369.0
-4.0,-9.0,-13.0,-14.0,-6.0,-10.0,-9.0,2.0,1650849072735369.0
-3.0,-6.0,-3.0,-9.0,8.0,21.0,4.0,0.0,1650849072743499.0
-14.0,6.0,18.0,5.0,1.0,3.0,3.0,-3.0,1650849072743499.0
24.0,2.0,-5.0,3.0,-2.0,-3.0,-9.0,-4.0,1650849072766504.0
-55.0,-10.0,-1.0,1.0,3.0,0.0,4.0,-1.0,1650849072766504.0
20.0,3.0,15.0,-19.0,-4.0,-17.0,-5.0,1.0,1650849072767435.0
13.0,17.0,-49.0,7.0,-9.0,-16.0,-12.0,1.0,1650849072767435.0
-19.0,-36.0,33.0,24.0,-6.0,9.0,1.0,-11.0,1650849072781398.0
-1.0,9.0,-13.0,5.0,-4.0,-9.0,-9.0,0.0,1650849072781398.0
-30.0,15.0,-6.0,-1.0,26.0,40.0,28.0,-13.0,1650849072783393.0
-23.0,3.0,-15.0,-25.0,-7.0,4.0,7.0,10.0,1650849072783393.0
24.0,-5.0,-8.0,-8.0,-8.0,-24.0,-12.0,-3.0,1650849072803339.0
-50.0,-21.0,-7.0,5.0,1.0,-3.0,-10.0,4.0,1650849072803339.0
-20.0,1.0,3.0,-18.0,-11.0,-14.0,-14.0,-9.0,1650849072805335.0
50.0,2.0,27.0,21.0,0.0,2.0,-1.0,0.0,1650849072805335.0
-27.0,6.0,-15.0,7.0,-7.0,-16.0,7.0,-2.0,1650849072818299.0
35.0,4.0,8.0,2.0,4.0,18.0,-1.0,-1.0,1650849072818299.0
12.0,-7.0,-17.0,-12.0,3.0,13.0,0.0,4.0,1650849072820303.0
-26.0,8.0,26.0,6.0,10.0,1.0,8.0,-1.0,1650849072820303.0
8.0,-17.0,6.0,6.0,-5.0,-8.0,-6.0,3.0,1650849072841309.0
29.0,6.0,-10.0,-23.0,-1.0,3.0,4.0,3.0,1650849072841309.0
7.0,-5.0,-29.0,7.0,-8.0,-23.0,-12.0,1.0,1650849072843232.0
-12.0,7.0,29.0,-3.0,0.0,3.0,4.0,-4.0,1650849072843232.0
2.0,19.0,14.0,-1.0,4.0,2.0,-1.0,1.0,1650849072855227.0
8.0,-1.0,9.0,19.0,3.0,8.0,8.0,-3.0,1650849072855227.0
20.0,-4.0,-6.0,-4.0,3.0,-4.0,-3.0,5.0,1650849072864177.0
-16.0,-18.0,-18.0,-18.0,10.0,4.0,-2.0,0.0,1650849072864177.0
4.0,5.0,-3.0,2.0,-3.0,-1.0,-1.0,-3.0,1650849072879164.0
59.0,16.0,15.0,7.0,-3.0,3.0,1.0,10.0,1650849072879164.0
0.0,-15.0,6.0,-7.0,-6.0,-12.0,-2.0,-6.0,1650849072880134.0
11.0,-4.0,1.0,20.0,1.0,5.0,17.0,-1.0,1650849072880134.0
3.0,22.0,17.0,1.0,-3.0,1.0,-1.0,10.0,1650849072901145.0
16.0,4.0,-14.0,-10.0,-6.0,-7.0,-10.0,-5.0,1650849072901145.0
-16.0,-14.0,3.0,6.0,-11.0,-32.0,-9.0,-5.0,1650849072903073.0
-28.0,-4.0,-7.0,-5.0,16.0,36.0,1.0,-9.0,1650849072903073.0
58.0,3.0,-12.0,-12.0,19.0,21.0,11.0,22.0,1650849072924043.0
-19.0,-10.0,1.0,7.0,-8.0,-5.0,1.0,-7.0,1650849072924043.0
-55.0,-17.0,5.0,5.0,-12.0,-19.0,-21.0,-2.0,1650849072925014.0
13.0,18.0,-1.0,-8.0,-8.0,-22.0,23.0,9.0,1650849072925014.0
-28.0,-17.0,2.0,0.0,-5.0,-2.0,-17.0,-12.0,1650849072939064.0
22.0,22.0,6.0,1.0,13.0,11.0,10.0,-1.0,1650849072939064.0
69.0,-4.0,-18.0,-6.0,-5.0,-7.0,6.0,9.0,1650849072940062.0
14.0,-19.0,6.0,7.0,-19.0,-16.0,-19.0,-6.0,1650849072940062.0
-10.0,2.0,9.0,4.0,21.0,23.0,3.0,5.0,1650849072962030.0
7.0,-13.0,-3.0,2.0,3.0,-6.0,-1.0,0.0,1650849072962030.0
-2.0,6.0,9.0,-6.0,-7.0,4.0,-4.0,-4.0,1650849072963002.0
7.0,7.0,-2.0,7.0,11.0,5.0,-4.0,2.0,1650849072963002.0
15.0,2.0,-8.0,2.0,-3.0,-10.0,3.0,0.0,1650849072974996.0
-22.0,-11.0,-18.0,-26.0,-4.0,0.0,-4.0,-4.0,1650849072974996.0
-11.0,-2.0,-5.0,8.0,-6.0,-1.0,-5.0,1.0,1650849072983684.0
-12.0,-5.0,19.0,2.0,-7.0,-15.0,-2.0,-3.0,1650849072983684.0
-10.0,-6.0,-7.0,6.0,7.0,15.0,5.0,-2.0,1650849072998646.0
-3.0,5.0,3.0,-8.0,5.0,2.0,-2.0,2.0,1650849072998646.0
-10.0,0.0,-16.0,-19.0,8.0,29.0,12.0,-1.0,1650849073000669.0
7.0,7.0,-7.0,-11.0,-4.0,-3.0,-7.0,0.0,1650849073000669.0
14.0,-6.0,26.0,30.0,-4.0,-18.0,-4.0,-4.0,1650849073021613.0
-11.0,1.0,4.0,14.0,-4.0,-6.0,-4.0,1.0,1650849073021613.0
-11.0,-5.0,14.0,23.0,5.0,-2.0,2.0,-1.0,1650849073022582.0
-5.0,1.0,-3.0,-18.0,-9.0,-3.0,-3.0,-1.0,1650849073022582.0
-14.0,-8.0,-24.0,-19.0,0.0,6.0,1.0,-4.0,1650849073034645.0
-1.0,-8.0,-6.0,-10.0,0.0,3.0,3.0,-1.0,1650849073034645.0
-23.0,2.0,-1.0,5.0,6.0,-1.0,2.0,-11.0,1650849073043622.0
7.0,11.0,-17.0,-4.0,-3.0,-4.0,0.0,1.0,1650849073043622.0
6.0,6.0,20.0,14.0,-7.0,-16.0,-3.0,5.0,1650849073058611.0
0.0,3.0,11.0,0.0,-5.0,15.0,-2.0,0.0,1650849073058611.0
5.0,4.0,12.0,15.0,28.0,15.0,9.0,3.0,1650849073060597.0
-5.0,-7.0,-14.0,-10.0,-5.0,-2.0,-5.0,-5.0,1650849073060597.0
-10.0,6.0,-9.0,-19.0,-8.0,-7.0,-4.0,-8.0,1650849073081522.0
4.0,-1.0,-6.0,6.0,-9.0,-22.0,-1.0,4.0,1650849073081522.0
4.0,-3.0,18.0,14.0,6.0,31.0,-2.0,-2.0,1650849073082533.0
-2.0,8.0,-2.0,-7.0,-3.0,-1.0,7.0,3.0,1650849073082533.0
7.0,-1.0,-13.0,6.0,2.0,-13.0,-2.0,0.0,1650849073103489.0
18.0,-7.0,4.0,-20.0,2.0,22.0,6.0,-3.0,1650849073103489.0
-15.0,2.0,-15.0,-6.0,-9.0,-17.0,-9.0,2.0,1650849073105457.0
13.0,11.0,19.0,26.0,5.0,10.0,2.0,4.0,1650849073105457.0
-9.0,-29.0,-4.0,1.0,-5.0,-4.0,-9.0,-5.0,1650849073118496.0
-5.0,4.0,-13.0,-8.0,3.0,-4.0,17.0,-6.0,1650849073118496.0
33.0,-1.0,15.0,5.0,1.0,-1.0,-20.0,13.0,1650849073120418.0
-23.0,-5.0,-7.0,-8.0,-2.0,1.0,4.0,-1.0,1650849073120418.0
-11.0,3.0,-12.0,-4.0,-6.0,-5.0,-6.0,-5.0,1650849073141508.0
-5.0,-10.0,5.0,4.0,1.0,3.0,-6.0,1.0,1650849073141508.0
15.0,9.0,-13.0,-20.0,-13.0,-9.0,4.0,0.0,1650849073142513.0
3.0,-8.0,9.0,16.0,12.0,1.0,-4.0,-2.0,1650849073142513.0
-31.0,-5.0,-1.0,-7.0,-5.0,-14.0,-2.0,-1.0,1650849073164235.0
-10.0,4.0,8.0,5.0,3.0,11.0,0.0,0.0,1650849073164235.0
0.0,2.0,-6.0,-11.0,-15.0,-5.0,5.0,-4.0,1650849073165236.0
11.0,-6.0,-9.0,-1.0,6.0,3.0,-2.0,0.0,1650849073165236.0
11.0,10.0,15.0,3.0,11.0,24.0,9.0,3.0,1650849073178232.0
-5.0,-4.0,-18.0,-18.0,-5.0,-13.0,-4.0,0.0,1650849073178232.0
-11.0,-5.0,0.0,-1.0,-5.0,-17.0,-3.0,-3.0,1650849073185252.0
0.0,-4.0,24.0,19.0,-9.0,-6.0,-8.0,-5.0,1650849073185252.0
2.0,6.0,-24.0,-6.0,-5.0,-8.0,3.0,7.0,1650849073202204.0
-5.0,-4.0,2.0,-2.0,9.0,20.0,9.0,0.0,1650849073202204.0
0.0,0.0,0.0,2.0,1.0,-5.0,-2.0,-4.0,1650849073203135.0
-5.0,-8.0,-12.0,-12.0,-15.0,-20.0,-5.0,-4.0,1650849073203135.0
2.0,0.0,3.0,6.0,16.0,25.0,3.0,0.0,1650849073224078.0
33.0,7.0,0.0,-3.0,4.0,-8.0,-2.0,4.0,1650849073224078.0
-6.0,5.0,4.0,-2.0,-13.0,-8.0,-3.0,-4.0,1650849073225084.0
4.0,-9.0,-12.0,-1.0,-5.0,-7.0,8.0,2.0,1650849073225084.0
-3.0,0.0,15.0,9.0,-4.0,0.0,7.0,2.0,1650849073239065.0
4.0,4.0,7.0,9.0,15.0,12.0,0.0,-1.0,1650849073239065.0
-14.0,-3.0,-13.0,-11.0,0.0,-2.0,-2.0,-2.0,1650849073241032.0
-3.0,9.0,-1.0,0.0,-4.0,-10.0,-12.0,-2.0,1650849073241032.0
9.0,-3.0,-14.0,-16.0,-6.0,9.0,1.0,2.0,1650849073261006.0
-8.0,-6.0,10.0,11.0,-2.0,-5.0,-5.0,0.0,1650849073261006.0
0.0,-3.0,-24.0,-5.0,14.0,0.0,2.0,-2.0,1650849073262974.0
0.0,-7.0,-5.0,-3.0,2.0,3.0,2.0,2.0,1650849073262974.0
6.0,7.0,19.0,6.0,-8.0,-8.0,-1.0,-3.0,1650849073283985.0
-21.0,9.0,-10.0,4.0,8.0,22.0,17.0,0.0,1650849073283985.0
0.0,-26.0,2.0,-2.0,-4.0,-4.0,-4.0,0.0,1650849073285913.0
5.0,-4.0,-2.0,-2.0,-2.0,1.0,-4.0,-1.0,1650849073285913.0
-2.0,-4.0,-8.0,-6.0,2.0,-7.0,-4.0,-3.0,1650849073298890.0
-6.0,-11.0,3.0,0.0,-3.0,-1.0,-4.0,-1.0,1650849073298890.0
6.0,29.0,12.0,17.0,3.0,1.0,5.0,3.0,1650849073304888.0
-3.0,-2.0,-10.0,-15.0,-6.0,-10.0,-5.0,-6.0,1650849073304888.0
0.0,-2.0,4.0,7.0,1.0,14.0,4.0,4.0,1650849073320881.0
-5.0,3.0,10.0,0.0,2.0,-14.0,-3.0,1.0,1650849073320881.0
-3.0,-7.0,-15.0,-3.0,-4.0,11.0,1.0,-4.0,1650849073322877.0
2.0,17.0,22.0,3.0,9.0,7.0,-2.0,2.0,1650849073322877.0
-9.0,-40.0,-27.0,-18.0,-15.0,-14.0,-5.0,-7.0,1650849073343922.0
-2.0,-2.0,-10.0,-2.0,-3.0,-9.0,-2.0,1.0,1650849073343922.0
37.0,8.0,22.0,5.0,1.0,-3.0,-2.0,1.0,1650849073345888.0
7.0,14.0,12.0,6.0,-4.0,5.0,12.0,-1.0,1650849073345888.0
8.0,1.0,-15.0,-10.0,3.0,-10.0,-4.0,1.0,1650849073358881.0
-9.0,-2.0,-3.0,6.0,4.0,13.0,-1.0,1.0,1650849073358881.0
2.0,0.0,3.0,-5.0,-6.0,-13.0,-5.0,-1.0,1650849073364838.0
-4.0,-8.0,-3.0,3.0,4.0,-2.0,7.0,2.0,1650849073364838.0
10.0,3.0,-6.0,-4.0,-5.0,19.0,1.0,1.0,1650849073380795.0
4.0,0.0,-1.0,2.0,-12.0,-34.0,-11.0,-3.0,1650849073380795.0
-1.0,2.0,-2.0,-3.0,10.0,27.0,4.0,3.0,1650849073382801.0
-6.0,7.0,4.0,-3.0,10.0,9.0,-1.0,-1.0,1650849073382801.0
-15.0,-21.0,-2.0,5.0,0.0,-11.0,-1.0,-2.0,1650849073403733.0
-8.0,-1.0,15.0,-7.0,-13.0,-15.0,-7.0,-5.0,1650849073403733.0
-14.0,-9.0,-14.0,-5.0,-4.0,-6.0,0.0,-2.0,1650849073405748.0
5.0,-5.0,-9.0,-12.0,-9.0,-8.0,-6.0,-1.0,1650849073405748.0
0.0,9.0,-7.0,10.0,17.0,26.0,7.0,-1.0,1650849073417763.0
-7.0,-1.0,2.0,1.0,-6.0,1.0,-4.0,-2.0,1650849073417763.0
5.0,4.0,8.0,5.0,2.0,-2.0,1.0,4.0,1650849073424704.0
19.0,-14.0,-10.0,-2.0,1.0,2.0,-2.0,1.0,1650849073424704.0
2.0,32.0,25.0,-1.0,-15.0,-16.0,-3.0,-3.0,1650849073441794.0
-3.0,-12.0,-6.0,5.0,5.0,4.0,0.0,-3.0,1650849073441794.0
-5.0,-2.0,-6.0,-10.0,-6.0,-8.0,1.0,5.0,1650849073442790.0
-1.0,-7.0,-19.0,6.0,8.0,0.0,-10.0,-4.0,1650849073442790.0
-1.0,-1.0,-5.0,0.0,10.0,6.0,10.0,3.0,1650849073463861.0
10.0,5.0,11.0,2.0,6.0,31.0,0.0,0.0,1650849073463861.0
-12.0,0.0,-1.0,1.0,-13.0,-8.0,-1.0,-2.0,1650849073465885.0
-13.0,-17.0,-4.0,-6.0,5.0,1.0,6.0,-1.0,1650849073465885.0
12.0,8.0,19.0,3.0,-17.0,-31.0,-9.0,-2.0,1650849073478969.0
-16.0,-1.0,-15.0,-6.0,1.0,1.0,-3.0,0.0,1650849073478969.0
3.0,1.0,10.0,2.0,6.0,10.0,-1.0,-2.0,1650849073484930.0
-6.0,8.0,0.0,4.0,-1.0,5.0,1.0,1.0,1650849073484930.0
-3.0,1.0,0.0,-6.0,1.0,-7.0,-3.0,0.0,1650849073500950.0
14.0,9.0,9.0,-3.0,-8.0,-14.0,-3.0,2.0,1650849073500950.0
-8.0,-9.0,-12.0,-1.0,0.0,1.0,2.0,0.0,1650849073502878.0
1.0,9.0,8.0,6.0,-1.0,10.0,2.0,1.0,1650849073502878.0
3.0,-12.0,-15.0,-10.0,-1.0,-1.0,-2.0,0.0,1650849073523822.0
-1.0,12.0,4.0,4.0,3.0,-4.0,-2.0,0.0,1650849073523822.0
-4.0,-9.0,-3.0,-2.0,2.0,-7.0,5.0,-2.0,1650849073525816.0
-1.0,-3.0,-2.0,-1.0,-1.0,0.0,-6.0,-1.0,1650849073525816.0
4.0,-5.0,-2.0,2.0,1.0,20.0,5.0,0.0,1650849073537813.0
1.0,0.0,-4.0,1.0,-4.0,-6.0,1.0,1.0,1650849073537813.0
-5.0,4.0,13.0,4.0,6.0,11.0,2.0,0.0,1650849073544792.0
6.0,-7.0,-9.0,-5.0,-6.0,-12.0,-7.0,-1.0,1650849073544792.0
-10.0,6.0,28.0,7.0,-3.0,-13.0,-6.0,-3.0,1650849073561719.0
-4.0,-7.0,-15.0,-2.0,2.0,2.0,1.0,-2.0,1650849073561719.0
16.0,3.0,2.0,-11.0,-14.0,-7.0,-2.0,2.0,1650849073562717.0
-6.0,8.0,-7.0,-2.0,-4.0,-11.0,1.0,-1.0,1650849073562717.0
-2.0,0.0,4.0,13.0,30.0,36.0,7.0,2.0,1650849073584268.0
-15.0,-5.0,7.0,-2.0,-5.0,-6.0,-3.0,-9.0,1650849073584268.0
8.0,-3.0,-20.0,-1.0,-7.0,-6.0,-2.0,3.0,1650849073585775.0
-4.0,0.0,4.0,-4.0,-4.0,3.0,-1.0,3.0,1650849073585775.0
-7.0,-3.0,3.0,0.0,-12.0,-39.0,-7.0,-2.0,1650849073597713.0
9.0,10.0,4.0,0.0,13.0,33.0,3.0,4.0,1650849073597713.0
4.0,-2.0,0.0,-4.0,-5.0,-12.0,-2.0,-3.0,1650849073612673.0
-21.0,-3.0,8.0,8.0,2.0,16.0,1.0,-3.0,1650849073612673.0
24.0,9.0,-15.0,-14.0,-6.0,-7.0,1.0,2.0,1650849073621649.0
-7.0,-3.0,-7.0,2.0,-10.0,-21.0,-5.0,-5.0,1650849073621649.0
-46.0,6.0,11.0,7.0,5.0,-10.0,-2.0,-3.0,1650849073622646.0
8.0,-5.0,7.0,-2.0,10.0,17.0,3.0,5.0,1650849073622646.0
7.0,5.0,-4.0,-10.0,-7.0,-2.0,-2.0,0.0,1650849073643798.0
8.0,-7.0,-3.0,13.0,-5.0,-8.0,-1.0,-1.0,1650849073643798.0
-10.0,-7.0,-9.0,-13.0,-5.0,1.0,-2.0,-4.0,1650849073645782.0
12.0,10.0,-7.0,8.0,5.0,-8.0,-2.0,-5.0,1650849073645782.0
-25.0,11.0,18.0,-9.0,1.0,5.0,-1.0,0.0,1650849073657757.0
-6.0,-9.0,0.0,2.0,-4.0,2.0,1.0,2.0,1650849073657757.0
16.0,6.0,6.0,5.0,9.0,2.0,1.0,3.0,1650849073666707.0
5.0,-5.0,-6.0,-2.0,-3.0,2.0,-1.0,-1.0,1650849073666707.0
-12.0,-9.0,-11.0,-3.0,0.0,-1.0,-3.0,-4.0,1650849073681666.0
37.0,4.0,-1.0,-24.0,-17.0,-31.0,-2.0,2.0,1650849073681666.0
-69.0,-20.0,7.0,26.0,16.0,39.0,1.0,-4.0,1650849073682664.0
27.0,13.0,3.0,-4.0,-6.0,-4.0,2.0,0.0,1650849073682664.0
20.0,17.0,-13.0,-8.0,-3.0,-6.0,-4.0,-2.0,1650849073703631.0
-11.0,-12.0,-7.0,-6.0,4.0,1.0,2.0,-14.0,1650849073703631.0
-2.0,1.0,11.0,4.0,1.0,-10.0,-4.0,16.0,1650849073705602.0
-7.0,-8.0,-34.0,-14.0,-8.0,-10.0,-2.0,24.0,1650849073705602.0
-42.0,-16.0,-2.0,0.0,-6.0,9.0,7.0,-19.0,1650849073717638.0
-53.0,-5.0,-7.0,-10.0,-6.0,-8.0,-1.0,-4.0,1650849073717638.0
39.0,13.0,6.0,8.0,-1.0,-7.0,-9.0,-14.0,1650849073726547.0
-29.0,3.0,40.0,22.0,4.0,13.0,-5.0,-5.0,1650849073726547.0
-20.0,-11.0,-19.0,-7.0,-3.0,-7.0,10.0,11.0,1650849073741634.0
-8.0,-11.0,-22.0,-10.0,-2.0,9.0,-9.0,-9.0,1650849073741634.0
54.0,5.0,70.0,28.0,20.0,-3.0,4.0,14.0,1650849073742604.0
25.0,-8.0,-62.0,-30.0,-21.0,-8.0,-11.0,-16.0,1650849073742604.0
-47.0,7.0,56.0,36.0,14.0,12.0,1.0,4.0,1650849073763696.0
63.0,10.0,21.0,14.0,3.0,2.0,3.0,8.0,1650849073763696.0
-20.0,-14.0,-34.0,-35.0,-15.0,-5.0,-2.0,-4.0,1650849073765663.0
60.0,17.0,34.0,31.0,12.0,-2.0,1.0,7.0,1650849073765663.0
61.0,6.0,-20.0,3.0,-1.0,7.0,-26.0,-60.0,1650849073777658.0
84.0,27.0,11.0,10.0,22.0,0.0,32.0,8.0,1650849073777658.0
60.0,25.0,29.0,-29.0,-14.0,4.0,-3.0,8.0,1650849073786625.0
0.0,30.0,-10.0,-21.0,-16.0,2.0,10.0,-8.0,1650849073786625.0
34.0,-16.0,-30.0,7.0,-4.0,-9.0,-5.0,8.0,1650849073801654.0
-84.0,4.0,-6.0,31.0,7.0,-5.0,-26.0,-45.0,1650849073801654.0
-13.0,18.0,-4.0,-14.0,-3.0,-3.0,-2.0,-17.0,1650849073802591.0
-36.0,15.0,-30.0,-9.0,22.0,11.0,12.0,-9.0,1650849073802591.0
11.0,-85.0,10.0,-9.0,-6.0,-3.0,-1.0,29.0,1650849073839553.0
-56.0,27.0,-36.0,-67.0,5.0,3.0,2.0,19.0,1650849073839553.0
68.0,30.0,37.0,40.0,-3.0,9.0,12.0,34.0,1650849073841481.0
21.0,-35.0,-11.0,12.0,-7.0,-13.0,-17.0,-21.0,1650849073841481.0
-24.0,20.0,18.0,18.0,6.0,2.0,11.0,3.0,1650849073841481.0
73.0,-1.0,39.0,31.0,7.0,1.0,-10.0,12.0,1650849073841481.0
-114.0,-23.0,-31.0,-29.0,3.0,-4.0,4.0,-12.0,1650849073854446.0
73.0,9.0,35.0,4.0,4.0,18.0,4.0,37.0,1650849073854446.0
16.0,14.0,-10.0,-3.0,-6.0,-19.0,-2.0,1.0,1650849073861427.0
23.0,-24.0,43.0,21.0,-1.0,8.0,0.0,7.0,1650849073861427.0
-8.0,3.0,-50.0,-16.0,7.0,3.0,-4.0,2.0,1650849073862425.0
-48.0,1.0,38.0,21.0,-4.0,-12.0,-9.0,-29.0,1650849073862425.0
15.0,50.0,-19.0,-20.0,8.0,8.0,3.0,28.0,1650849073890852.0
-19.0,9.0,-11.0,-8.0,-15.0,-13.0,5.0,4.0,1650849073890852.0
25.0,-47.0,-24.0,6.0,-5.0,-9.0,-4.0,-5.0,1650849073892848.0
-72.0,-35.0,-19.0,-10.0,3.0,-2.0,2.0,9.0,1650849073892848.0
28.0,-8.0,-4.0,3.0,-3.0,1.0,8.0,8.0,1650849073897849.0
38.0,31.0,59.0,14.0,-1.0,1.0,-13.0,-19.0,1650849073897849.0
-25.0,-36.0,-44.0,-23.0,-27.0,-11.0,10.0,5.0,1650849073913791.0
27.0,-32.0,17.0,39.0,15.0,4.0,0.0,11.0,1650849073913791.0
4.0,-2.0,-38.0,-31.0,-12.0,-2.0,5.0,4.0,1650849073921778.0
-30.0,12.0,11.0,6.0,-8.0,-5.0,-9.0,-2.0,1650849073921778.0
-4.0,20.0,-10.0,19.0,13.0,7.0,3.0,-15.0,1650849073922767.0
-22.0,5.0,57.0,23.0,9.0,-9.0,-13.0,-28.0,1650849073922767.0
-45.0,-2.0,-11.0,1.0,1.0,-1.0,-4.0,-3.0,1650849073951690.0
-102.0,-7.0,-46.0,-53.0,-8.0,2.0,11.0,14.0,1650849073951690.0
-4.0,-17.0,-14.0,-5.0,2.0,9.0,-9.0,-14.0,1650849073952687.0
-59.0,3.0,-11.0,1.0,-11.0,-2.0,3.0,-16.0,1650849073952687.0
-1.0,35.0,23.0,2.0,10.0,3.0,8.0,24.0,1650849073957674.0
-5.0,-33.0,0.0,18.0,-3.0,-8.0,-3.0,-22.0,1650849073957674.0
91.0,80.0,18.0,10.0,0.0,-8.0,-6.0,11.0,1650849073966651.0
-24.0,-65.0,3.0,-41.0,-10.0,-6.0,-2.0,1.0,1650849073966651.0
-53.0,-5.0,-6.0,-26.0,7.0,10.0,7.0,-19.0,1650849073981611.0
-7.0,-31.0,-8.0,29.0,-10.0,-13.0,-5.0,8.0,1650849073981611.0
-12.0,-4.0,-3.0,16.0,2.0,13.0,1.0,12.0,1650849073982609.0
-15.0,15.0,27.0,-8.0,7.0,18.0,7.0,6.0,1650849073982609.0
43.0,5.0,3.0,-10.0,-5.0,-6.0,-7.0,-10.0,1650849074003719.0
9.0,-4.0,-53.0,-31.0,-12.0,-15.0,-5.0,-10.0,1650849074003719.0
-36.0,-30.0,26.0,6.0,3.0,14.0,10.0,1.0,1650849074005715.0
20.0,14.0,-25.0,-8.0,6.0,-7.0,3.0,19.0,1650849074005715.0
8.0,-20.0,24.0,6.0,-15.0,-2.0,-11.0,-17.0,1650849074017751.0
11.0,9.0,-1.0,22.0,11.0,13.0,6.0,10.0,1650849074017751.0
20.0,6.0,-10.0,-8.0,5.0,-8.0,0.0,-35.0,1650849074033641.0
65.0,8.0,-35.0,-25.0,-17.0,-7.0,-2.0,41.0,1650849074033641.0
48.0,6.0,18.0,29.0,13.0,11.0,22.0,10.0,1650849074040622.0
29.0,-28.0,28.0,24.0,4.0,0.0,-7.0,-12.0,1650849074040622.0
5.0,17.0,-38.0,-37.0,-18.0,-11.0,-6.0,-5.0,1650849074047630.0
-19.0,-16.0,-13.0,-2.0,13.0,-3.0,3.0,-7.0,1650849074047630.0
30.0,0.0,2.0,36.0,1.0,8.0,-12.0,7.0,1650849074071539.0
0.0,-14.0,-42.0,-45.0,-3.0,8.0,10.0,20.0,1650849074071539.0
-51.0,-11.0,40.0,18.0,16.0,7.0,0.0,-13.0,1650849074072550.0
33.0,39.0,27.0,18.0,10.0,13.0,3.0,-7.0,1650849074072550.0
5.0,-16.0,-27.0,-33.0,-19.0,-16.0,-6.0,4.0,1650849074086566.0
-4.0,-5.0,-5.0,11.0,-9.0,-13.0,-2.0,-13.0,1650849074086566.0
-14.0,6.0,84.0,58.0,16.0,7.0,-7.0,-13.0,1650849074087498.0
-4.0,9.0,-36.0,-56.0,-29.0,-9.0,-2.0,11.0,1650849074087498.0
-54.0,-26.0,1.0,-1.0,12.0,8.0,0.0,2.0,1650849074101460.0
48.0,36.0,-23.0,-13.0,3.0,5.0,1.0,-15.0,1650849074101460.0
-67.0,-56.0,-19.0,-16.0,-11.0,-8.0,4.0,16.0,1650849074102457.0
-63.0,10.0,-35.0,-17.0,-11.0,-1.0,0.0,-7.0,1650849074102457.0
12.0,-17.0,26.0,14.0,2.0,-2.0,-5.0,-14.0,1650849074131379.0
22.0,3.0,11.0,-2.0,4.0,-5.0,-6.0,-12.0,1650849074131379.0
4.0,11.0,4.0,12.0,0.0,5.0,-3.0,25.0,1650849074133374.0
40.0,-15.0,-26.0,-10.0,21.0,13.0,19.0,-3.0,1650849074133374.0
-3.0,8.0,-47.0,-21.0,-28.0,-22.0,-9.0,-11.0,1650849074146339.0
-6.0,10.0,22.0,19.0,2.0,-6.0,-4.0,22.0,1650849074146339.0
10.0,-6.0,-13.0,-16.0,-3.0,3.0,1.0,-20.0,1650849074152325.0
-17.0,2.0,51.0,49.0,17.0,10.0,-5.0,-10.0,1650849074152325.0
49.0,17.0,-8.0,-3.0,0.0,1.0,1.0,8.0,1650849074161307.0
3.0,-18.0,-17.0,-18.0,2.0,2.0,1.0,1.0,1650849074161307.0
15.0,-3.0,-9.0,-9.0,-17.0,-20.0,-6.0,12.0,1650849074163294.0
14.0,11.0,-20.0,-9.0,-4.0,-4.0,-3.0,-8.0,1650849074163294.0
1.0,-9.0,47.0,6.0,4.0,4.0,1.0,1.0,1650849074190917.0
-7.0,-16.0,-31.0,0.0,7.0,10.0,3.0,3.0,1650849074190917.0
33.0,22.0,38.0,14.0,5.0,2.0,0.0,1.0,1650849074192883.0
4.0,17.0,-19.0,-29.0,-28.0,-5.0,5.0,-1.0,1650849074192883.0
-9.0,-4.0,33.0,29.0,3.0,-6.0,0.0,-11.0,1650849074205876.0
-36.0,-44.0,29.0,15.0,4.0,14.0,2.0,16.0,1650849074205876.0
31.0,9.0,-28.0,-25.0,8.0,4.0,2.0,0.0,1650849074207843.0
0.0,3.0,-1.0,26.0,9.0,-8.0,-6.0,1.0,1650849074207843.0
1.0,10.0,-20.0,-36.0,-11.0,-17.0,-6.0,-1.0,1650849074228947.0
-8.0,1.0,19.0,8.0,2.0,16.0,-2.0,-7.0,1650849074228947.0
28.0,24.0,5.0,15.0,2.0,-3.0,10.0,6.0,1650849074230923.0
-3.0,-4.0,2.0,-14.0,-1.0,3.0,-3.0,11.0,1650849074230923.0
-42.0,-13.0,-11.0,3.0,12.0,4.0,-4.0,-1.0,1650849074243879.0
7.0,18.0,15.0,12.0,-17.0,-7.0,-3.0,-1.0,1650849074243879.0
-65.0,-8.0,11.0,16.0,4.0,3.0,-2.0,-32.0,1650849074245874.0
57.0,28.0,-56.0,-42.0,-19.0,-11.0,-1.0,19.0,1650849074245874.0
16.0,-19.0,36.0,48.0,13.0,3.0,4.0,12.0,1650849074265966.0
-69.0,-31.0,-52.0,-29.0,-6.0,-5.0,-1.0,-11.0,1650849074265966.0
2.0,16.0,-25.0,-17.0,-2.0,-3.0,-1.0,4.0,1650849074267961.0
-12.0,6.0,19.0,3.0,-11.0,-28.0,-11.0,-18.0,1650849074267961.0
2.0,9.0,-12.0,-8.0,13.0,44.0,13.0,12.0,1650849074288971.0
25.0,13.0,20.0,1.0,5.0,-14.0,-3.0,-21.0,1650849074288971.0
-10.0,-7.0,-2.0,1.0,7.0,37.0,12.0,13.0,1650849074289902.0
-22.0,-17.0,17.0,9.0,4.0,-8.0,-5.0,-9.0,1650849074289902.0
15.0,9.0,-24.0,-27.0,-19.0,-14.0,-5.0,-2.0,1650849074303954.0
-11.0,1.0,-12.0,12.0,2.0,-10.0,2.0,13.0,1650849074303954.0
15.0,17.0,4.0,-4.0,-12.0,-15.0,-3.0,3.0,1650849074305956.0
11.0,-4.0,26.0,18.0,4.0,3.0,-6.0,-18.0,1650849074305956.0
-61.0,-10.0,15.0,28.0,10.0,-6.0,-6.0,-9.0,1650849074325925.0
25.0,26.0,11.0,14.0,-7.0,4.0,5.0,-2.0,1650849074325925.0
-25.0,-16.0,-71.0,-36.0,-4.0,10.0,-1.0,11.0,1650849074327905.0
-6.0,-59.0,46.0,19.0,14.0,10.0,3.0,3.0,1650849074327905.0
-1.0,30.0,-11.0,-21.0,-6.0,-5.0,-4.0,-7.0,1650849074348836.0
-22.0,-4.0,44.0,24.0,13.0,5.0,4.0,11.0,1650849074348836.0
-27.0,-26.0,-10.0,-10.0,-15.0,-17.0,-10.0,-19.0,1650849074350871.0
24.0,-2.0,3.0,18.0,-4.0,4.0,7.0,12.0,1650849074350871.0
15.0,29.0,-7.0,-11.0,-2.0,-5.0,-4.0,-9.0,1650849074363823.0
13.0,-7.0,12.0,-12.0,0.0,1.0,-1.0,12.0,1650849074363823.0
30.0,-7.0,9.0,8.0,3.0,-6.0,-2.0,-3.0,1650849074365791.0
-27.0,-10.0,-21.0,-13.0,1.0,7.0,-1.0,10.0,1650849074365791.0
19.0,-1.0,11.0,0.0,-4.0,-3.0,0.0,-4.0,1650849074386796.0
-17.0,2.0,-4.0,7.0,2.0,-3.0,2.0,0.0,1650849074386796.0
45.0,-5.0,-11.0,10.0,1.0,8.0,-2.0,12.0,1650849074387733.0
1.0,-33.0,-22.0,-13.0,-10.0,-26.0,-2.0,-18.0,1650849074387733.0
2.0,3.0,30.0,42.0,20.0,38.0,8.0,34.0,1650849074400698.0
13.0,17.0,-18.0,-22.0,-7.0,-6.0,2.0,1.0,1650849074400698.0
-14.0,-1.0,3.0,-7.0,0.0,-11.0,-7.0,-3.0,1650849074407679.0
-44.0,18.0,3.0,-17.0,3.0,2.0,-2.0,9.0,1650849074407679.0
-23.0,-11.0,29.0,33.0,-7.0,-14.0,-6.0,-18.0,1650849074423663.0
23.0,-8.0,-10.0,-14.0,-5.0,-11.0,-2.0,14.0,1650849074423663.0
36.0,19.0,-4.0,-21.0,-14.0,9.0,6.0,-27.0,1650849074429648.0
-13.0,8.0,8.0,7.0,6.0,20.0,3.0,-5.0,1650849074429648.0
-39.0,-6.0,-55.0,-34.0,-15.0,-16.0,-6.0,0.0,1650849074454189.0
10.0,-7.0,14.0,10.0,25.0,13.0,2.0,9.0,1650849074454189.0
2.0,-14.0,14.0,-9.0,2.0,-10.0,-4.0,6.0,1650849074455881.0
-2.0,-3.0,-1.0,13.0,6.0,10.0,0.0,-11.0,1650849074455881.0
-54.0,-13.0,-28.0,-36.0,-15.0,-7.0,-1.0,-11.0,1650849074468913.0
2.0,-3.0,37.0,41.0,-11.0,-13.0,-4.0,-11.0,1650849074468913.0
-10.0,-3.0,-15.0,5.0,11.0,2.0,-3.0,3.0,1650849074470840.0
17.0,1.0,4.0,11.0,13.0,19.0,8.0,-4.0,1650849074470840.0
37.0,7.0,-23.0,-24.0,-3.0,-5.0,6.0,14.0,1650849074483833.0
-75.0,-29.0,-51.0,-57.0,-11.0,5.0,-1.0,-32.0,1650849074483833.0
3.0,49.0,59.0,78.0,5.0,-14.0,1.0,23.0,1650849074485800.0
8.0,-15.0,-15.0,13.0,-7.0,-7.0,-7.0,-2.0,1650849074485800.0
27.0,14.0,9.0,-6.0,3.0,1.0,-1.0,-5.0,1650849074506743.0
54.0,4.0,-28.0,-36.0,3.0,3.0,0.0,6.0,1650849074506743.0
-5.0,-18.0,6.0,7.0,-3.0,4.0,3.0,-8.0,1650849074508739.0
-4.0,-6.0,-26.0,-13.0,-10.0,-8.0,-2.0,-2.0,1650849074508739.0
-1.0,-27.0,-10.0,25.0,8.0,3.0,-3.0,-16.0,1650849074520770.0
23.0,47.0,34.0,16.0,-12.0,-21.0,-2.0,4.0,1650849074520770.0
-23.0,-6.0,-13.0,-30.0,8.0,19.0,-1.0,16.0,1650849074527715.0
27.0,25.0,68.0,37.0,4.0,0.0,1.0,-9.0,1650849074527715.0
6.0,-26.0,-69.0,-59.0,-10.0,-20.0,0.0,-1.0,1650849074543672.0
3.0,24.0,20.0,33.0,20.0,35.0,4.0,3.0,1650849074543672.0
-15.0,-1.0,4.0,4.0,-18.0,-20.0,-1.0,3.0,1650849074545640.0
-15.0,27.0,-17.0,-29.0,-5.0,-9.0,-6.0,-16.0,1650849074545640.0
17.0,-45.0,-12.0,3.0,0.0,3.0,-1.0,17.0,1650849074566585.0
-54.0,-7.0,19.0,9.0,-4.0,-1.0,-4.0,-14.0,1650849074566585.0
41.0,4.0,-14.0,6.0,9.0,-1.0,2.0,3.0,1650849074567582.0
-20.0,16.0,21.0,4.0,5.0,8.0,-1.0,1.0,1650849074567582.0
37.0,26.0,14.0,-20.0,7.0,5.0,6.0,0.0,1650849074588582.0
1.0,-9.0,23.0,34.0,3.0,1.0,-1.0,14.0,1650849074588582.0
-14.0,-9.0,-21.0,-1.0,0.0,1.0,-1.0,-14.0,1650849074590558.0
-2.0,-14.0,-5.0,-12.0,-18.0,-13.0,-4.0,1.0,1650849074590558.0
0.0,14.0,-23.0,2.0,-14.0,-4.0,-6.0,-6.0,1650849074604328.0
8.0,-25.0,-22.0,-7.0,4.0,1.0,4.0,5.0,1650849074604328.0
4.0,10.0,9.0,-27.0,8.0,0.0,-2.0,-3.0,1650849074605328.0
53.0,-11.0,-12.0,-4.0,0.0,2.0,-3.0,8.0,1650849074605328.0
-40.0,2.0,17.0,11.0,2.0,3.0,3.0,-16.0,1650849074626424.0
46.0,23.0,3.0,-6.0,-1.0,2.0,2.0,16.0,1650849074626424.0
-50.0,-14.0,21.0,11.0,-10.0,-15.0,-8.0,-19.0,1650849074628439.0
37.0,-35.0,-47.0,-6.0,-10.0,-24.0,-2.0,13.0,1650849074628439.0
-37.0,22.0,59.0,40.0,19.0,46.0,8.0,-10.0,1650849074640443.0
-11.0,-42.0,-38.0,-11.0,-2.0,-7.0,-1.0,-9.0,1650849074640443.0
7.0,18.0,14.0,-12.0,1.0,-5.0,-2.0,3.0,1650849074649363.0
8.0,12.0,10.0,3.0,-1.0,-3.0,-1.0,7.0,1650849074649363.0
43.0,14.0,4.0,5.0,-5.0,-20.0,-5.0,1.0,1650849074663904.0
7.0,-9.0,7.0,-7.0,3.0,12.0,2.0,7.0,1650849074663904.0
28.0,-11.0,-25.0,-29.0,-5.0,1.0,2.0,1.0,1650849074665872.0
-54.0,19.0,36.0,15.0,-2.0,4.0,4.0,-4.0,1650849074665872.0
48.0,-4.0,15.0,52.0,13.0,5.0,1.0,10.0,1650849074686882.0
-3.0,-3.0,-13.0,-19.0,-10.0,-9.0,-2.0,-7.0,1650849074686882.0
3.0,-30.0,-43.0,-18.0,0.0,-4.0,-1.0,0.0,1650849074688810.0
12.0,13.0,-15.0,-37.0,3.0,12.0,4.0,10.0,1650849074688810.0
-3.0,17.0,11.0,-12.0,-12.0,-6.0,-1.0,0.0,1650849074699781.0
1.0,11.0,17.0,16.0,-4.0,-8.0,-4.0,0.0,1650849074699781.0
-6.0,-2.0,4.0,10.0,4.0,2.0,-1.0,-2.0,1650849074708757.0
-21.0,-6.0,-15.0,-23.0,3.0,-4.0,2.0,1.0,1650849074708757.0
-10.0,5.0,-13.0,-5.0,-3.0,15.0,-2.0,2.0,1650849074723716.0
11.0,27.0,18.0,22.0,-1.0,-10.0,-3.0,-9.0,1650849074723716.0
-7.0,-44.0,-19.0,-18.0,-21.0,-19.0,-6.0,3.0,1650849074725711.0
-7.0,16.0,31.0,32.0,16.0,24.0,0.0,-9.0,1650849074725711.0
-6.0,-4.0,8.0,3.0,-1.0,-18.0,-1.0,-4.0,1650849074745803.0
36.0,-4.0,-19.0,-26.0,8.0,29.0,5.0,23.0,1650849074745803.0
57.0,15.0,1.0,12.0,4.0,-5.0,1.0,4.0,1650849074746770.0
-39.0,8.0,9.0,-14.0,-12.0,-15.0,-5.0,5.0,1650849074746770.0
0.0,0.0,5.0,13.0,-1.0,-8.0,-7.0,-36.0,1650849074768779.0
-9.0,-25.0,-20.0,-2.0,1.0,0.0,-2.0,-10.0,1650849074768779.0
13.0,34.0,11.0,-13.0,8.0,7.0,5.0,13.0,1650849074769735.0
9.0,-31.0,7.0,17.0,-1.0,0.0,-1.0,3.0,1650849074769735.0
-18.0,0.0,19.0,1.0,-10.0,-17.0,0.0,6.0,1650849074784676.0
-7.0,4.0,-38.0,-20.0,4.0,14.0,2.0,-5.0,1650849074784676.0
-13.0,4.0,9.0,1.0,-12.0,-12.0,0.0,-5.0,1650849074785697.0
10.0,12.0,-10.0,-1.0,14.0,26.0,4.0,1.0,1650849074785697.0
-14.0,1.0,25.0,8.0,5.0,-3.0,-2.0,4.0,1650849074805725.0
7.0,1.0,-1.0,-11.0,-12.0,-13.0,-3.0,-1.0,1650849074805725.0
-14.0,-22.0,3.0,21.0,2.0,1.0,-4.0,1.0,1650849074806715.0
-4.0,19.0,21.0,-11.0,2.0,-10.0,-7.0,-13.0,1650849074806715.0
-1.0,-22.0,-27.0,3.0,-6.0,-2.0,2.0,13.0,1650849074827638.0
5.0,4.0,-2.0,-9.0,-10.0,-9.0,-2.0,2.0,1650849074827638.0
-13.0,11.0,-2.0,-3.0,16.0,28.0,2.0,-7.0,1650849074828637.0
-10.0,-21.0,-13.0,5.0,2.0,4.0,0.0,-5.0,1650849074828637.0
6.0,-1.0,25.0,3.0,0.0,-3.0,-2.0,0.0,1650849074844598.0
14.0,36.0,-13.0,-2.0,-9.0,-13.0,-5.0,-15.0,1650849074844598.0
-6.0,-58.0,-12.0,-22.0,-13.0,-11.0,-3.0,15.0,1650849074845611.0
-5.0,-2.0,6.0,-9.0,1.0,-1.0,4.0,4.0,1650849074845611.0
24.0,11.0,8.0,32.0,9.0,6.0,-2.0,6.0,1650849074865739.0
-6.0,-12.0,-4.0,-1.0,-7.0,-4.0,4.0,7.0,1650849074865739.0
-3.0,16.0,10.0,5.0,4.0,6.0,3.0,-3.0,1650849074866710.0
1.0,-13.0,-38.0,-22.0,-3.0,-3.0,-1.0,-5.0,1650849074866710.0
5.0,-22.0,-5.0,-16.0,5.0,9.0,2.0,3.0,1650849074888653.0
-8.0,31.0,2.0,-13.0,-8.0,0.0,-1.0,-1.0,1650849074888653.0
1.0,-17.0,7.0,6.0,11.0,4.0,0.0,-6.0,1650849074888653.0
-4.0,5.0,5.0,3.0,-19.0,-18.0,-4.0,2.0,1650849074888653.0
1.0,22.0,23.0,34.0,6.0,-9.0,-2.0,3.0,1650849074904613.0
-13.0,-15.0,7.0,-3.0,11.0,28.0,5.0,-1.0,1650849074904613.0
-7.0,16.0,-5.0,0.0,1.0,-15.0,-2.0,-2.0,1650849074905605.0
-2.0,-14.0,0.0,-2.0,4.0,14.0,-2.0,-4.0,1650849074905605.0
-16.0,1.0,-10.0,-1.0,-7.0,-39.0,-7.0,-5.0,1650849074925551.0
-4.0,-14.0,-15.0,-35.0,-6.0,32.0,5.0,-1.0,1650849074925551.0
19.0,-14.0,12.0,9.0,-12.0,-10.0,0.0,2.0,1650849074926549.0
23.0,-5.0,-26.0,24.0,15.0,1.0,3.0,2.0,1650849074926549.0
-5.0,10.0,4.0,-19.0,-8.0,0.0,1.0,0.0,1650849074948506.0
-29.0,-3.0,7.0,24.0,11.0,-9.0,-4.0,-3.0,1650849074948506.0
-6.0,9.0,5.0,-25.0,-4.0,3.0,-1.0,-4.0,1650849074948506.0
-6.0,21.0,3.0,4.0,-23.0,-13.0,-3.0,-3.0,1650849074948506.0
8.0,-48.0,-43.0,-3.0,6.0,13.0,-1.0,1.0,1650849074963478.0
38.0,13.0,-4.0,3.0,8.0,-5.0,8.0,9.0,1650849074963478.0
15.0,15.0,2.0,8.0,1.0,7.0,-2.0,4.0,1650849074963478.0
0.0,-3.0,-5.0,-2.0,0.0,-6.0,0.0,1.0,1650849074963478.0
-26.0,5.0,3.0,-29.0,-8.0,6.0,-5.0,-10.0,1650849074985544.0
2.0,-13.0,9.0,-7.0,-6.0,-3.0,1.0,-4.0,1650849074985544.0
5.0,6.0,-18.0,24.0,-2.0,-5.0,-3.0,-19.0,1650849074986476.0
60.0,0.0,15.0,18.0,1.0,-16.0,-2.0,23.0,1650849074986476.0
20.0,21.0,11.0,-20.0,-6.0,16.0,6.0,9.0,1650849075008956.0
3.0,1.0,1.0,9.0,15.0,-3.0,-2.0,-1.0,1650849075008956.0
-90.0,-14.0,-13.0,-23.0,-3.0,15.0,1.0,0.0,1650849075010022.0
2.0,-9.0,-4.0,15.0,-1.0,-6.0,-2.0,-5.0,1650849075010022.0
-33.0,-8.0,-4.0,-22.0,18.0,19.0,8.0,-4.0,1650849075024845.0
-10.0,-7.0,1.0,14.0,-10.0,-18.0,0.0,3.0,1650849075024845.0
33.0,22.0,19.0,24.0,5.0,-5.0,1.0,10.0,1650849075025848.0
-21.0,0.0,19.0,15.0,1.0,-5.0,-5.0,-10.0,1650849075025848.0
-8.0,-6.0,-4.0,-9.0,-10.0,-9.0,-5.0,-2.0,1650849075045878.0
-9.0,0.0,10.0,0.0,-2.0,0.0,-1.0,-6.0,1650849075045878.0
-4.0,2.0,-9.0,-5.0,6.0,8.0,-4.0,-8.0,1650849075046878.0
-6.0,-36.0,-29.0,-15.0,-3.0,6.0,3.0,-1.0,1650849075046878.0
14.0,0.0,-4.0,-14.0,-1.0,-4.0,0.0,3.0,1650849075067821.0
7.0,7.0,11.0,11.0,0.0,0.0,-4.0,2.0,1650849075067821.0
6.0,4.0,8.0,5.0,-13.0,-19.0,-4.0,-2.0,1650849075068829.0
-12.0,9.0,4.0,1.0,11.0,27.0,2.0,-5.0,1650849075068829.0
2.0,-2.0,-7.0,1.0,2.0,-4.0,-1.0,-5.0,1650849075082779.0
-9.0,-9.0,-4.0,-2.0,-8.0,-13.0,-4.0,2.0,1650849075082779.0
1.0,-4.0,-1.0,-3.0,7.0,0.0,0.0,2.0,1650849075083777.0
-10.0,10.0,7.0,11.0,-8.0,-24.0,-3.0,-5.0,1650849075083777.0
0.0,-5.0,-4.0,-2.0,-2.0,18.0,-2.0,-1.0,1650849075105872.0
-2.0,0.0,-3.0,-4.0,3.0,11.0,2.0,3.0,1650849075105872.0
3.0,1.0,-7.0,-9.0,11.0,2.0,1.0,-3.0,1650849075106802.0
0.0,4.0,-15.0,-2.0,-2.0,1.0,1.0,2.0,1650849075106802.0
10.0,-2.0,41.0,26.0,-1.0,-12.0,-3.0,4.0,1650849075127766.0
0.0,9.0,-15.0,-18.0,-9.0,-13.0,-5.0,1.0,1650849075127766.0
5.0,0.0,2.0,12.0,4.0,7.0,-1.0,-1.0,1650849075128744.0
-4.0,-4.0,-3.0,-6.0,6.0,0.0,1.0,-2.0,1650849075128744.0
-7.0,-5.0,-22.0,-13.0,-7.0,-9.0,-1.0,0.0,1650849075142734.0
-10.0,-6.0,4.0,1.0,7.0,14.0,1.0,-4.0,1650849075142734.0
3.0,-1.0,6.0,0.0,-14.0,-19.0,-5.0,-1.0,1650849075143704.0
5.0,9.0,4.0,-2.0,11.0,30.0,11.0,5.0,1650849075143704.0
0.0,1.0,-10.0,-5.0,-3.0,-4.0,3.0,-2.0,1650849075165765.0
0.0,-5.0,3.0,3.0,-2.0,-6.0,-7.0,-6.0,1650849075165765.0
8.0,3.0,-1.0,-2.0,4.0,-2.0,5.0,9.0,1650849075166756.0
-7.0,-8.0,3.0,1.0,-1.0,-5.0,-8.0,-7.0,1650849075166756.0
-11.0,-4.0,-6.0,-1.0,-11.0,-14.0,-3.0,-3.0,1650849075187745.0
8.0,2.0,-5.0,0.0,9.0,30.0,6.0,3.0,1650849075187745.0
1.0,-4.0,2.0,5.0,0.0,-1.0,-2.0,2.0,1650849075188678.0
-1.0,4.0,3.0,-6.0,-8.0,-7.0,-5.0,-5.0,1650849075188678.0
1.0,-2.0,-8.0,-10.0,0.0,-1.0,1.0,2.0,1650849075203650.0
-8.0,-5.0,-4.0,-2.0,-12.0,-23.0,-6.0,-5.0,1650849075203650.0
-3.0,3.0,4.0,12.0,10.0,19.0,2.0,-2.0,1650849075203650.0
2.0,0.0,2.0,-5.0,0.0,5.0,0.0,-2.0,1650849075203650.0
1.0,-2.0,-9.0,-2.0,8.0,14.0,2.0,-1.0,1650849075225718.0
-2.0,-2.0,0.0,-4.0,-4.0,-14.0,-2.0,0.0,1650849075225718.0
0.0,0.0,1.0,0.0,-11.0,0.0,1.0,-2.0,1650849075226706.0
1.0,2.0,0.0,-3.0,-9.0,-22.0,-4.0,0.0,1650849075226706.0
2.0,-2.0,-4.0,-1.0,9.0,18.0,2.0,-1.0,1650849075247658.0
-2.0,1.0,0.0,2.0,8.0,7.0,1.0,0.0,1650849075247658.0
-1.0,1.0,2.0,6.0,11.0,1.0,0.0,-1.0,1650849075248629.0
2.0,-9.0,1.0,-13.0,-20.0,-13.0,-4.0,-3.0,1650849075248629.0
-1.0,5.0,-4.0,9.0,-1.0,-2.0,0.0,-1.0,1650849075262590.0
0.0,-2.0,4.0,0.0,3.0,-4.0,-1.0,-1.0,1650849075262590.0
1.0,-7.0,-5.0,3.0,-1.0,-1.0,2.0,-1.0,1650849075263588.0
-3.0,12.0,8.0,-2.0,7.0,22.0,-4.0,-3.0,1650849075263588.0
5.0,-2.0,-6.0,-9.0,-7.0,-4.0,3.0,3.0,1650849075285529.0
-2.0,-5.0,0.0,-5.0,-7.0,-8.0,-1.0,1.0,1650849075285529.0
-4.0,7.0,3.0,0.0,-5.0,-11.0,-4.0,-6.0,1650849075286527.0
4.0,1.0,7.0,6.0,4.0,6.0,2.0,2.0,1650849075286527.0
-4.0,-10.0,-33.0,-6.0,-5.0,-20.0,-8.0,-4.0,1650849075307779.0
1.0,-2.0,2.0,8.0,-3.0,2.0,-2.0,-2.0,1650849075307779.0
2.0,4.0,5.0,3.0,22.0,46.0,9.0,4.0,1650849075308709.0
-2.0,-1.0,1.0,-8.0,-5.0,-6.0,2.0,0.0,1650849075308709.0
-3.0,0.0,7.0,2.0,2.0,-4.0,-2.0,-2.0,1650849075331764.0
-4.0,-5.0,-3.0,-7.0,-11.0,-19.0,-1.0,1.0,1650849075331764.0
1.0,8.0,3.0,0.0,-12.0,-11.0,-6.0,-1.0,1650849075331764.0
0.0,-7.0,-11.0,6.0,7.0,3.0,2.0,1.0,1650849075331764.0
3.0,3.0,-3.0,-2.0,4.0,0.0,-3.0,1.0,1650849075345828.0
-5.0,10.0,-13.0,0.0,0.0,3.0,-2.0,-3.0,1650849075345828.0
-8.0,-27.0,2.0,-6.0,-5.0,-5.0,-2.0,-3.0,1650849075346813.0
1.0,8.0,3.0,5.0,5.0,8.0,3.0,-1.0,1650849075346813.0
-1.0,-6.0,7.0,-3.0,-8.0,-5.0,0.0,-1.0,1650849075367900.0
9.0,6.0,7.0,3.0,11.0,5.0,2.0,2.0,1650849075367900.0
-1.0,-2.0,-6.0,-6.0,-13.0,-7.0,1.0,1.0,1650849075368909.0
1.0,-2.0,-10.0,-3.0,4.0,-6.0,0.0,1.0,1650849075368909.0
0.0,-1.0,10.0,5.0,-5.0,7.0,0.0,-1.0,1650849075382889.0
-5.0,-5.0,1.0,-3.0,-2.0,-20.0,-3.0,-2.0,1650849075382889.0
2.0,5.0,-6.0,0.0,3.0,14.0,-4.0,-2.0,1650849075383857.0
0.0,3.0,5.0,-1.0,-4.0,-2.0,2.0,2.0,1650849075383857.0
-6.0,6.0,8.0,-8.0,5.0,10.0,5.0,-1.0,1650849075405819.0
5.0,-10.0,-5.0,5.0,3.0,2.0,1.0,0.0,1650849075405819.0
3.0,2.0,-1.0,6.0,-2.0,-19.0,-2.0,-1.0,1650849075406803.0
-3.0,3.0,-6.0,-5.0,-1.0,-11.0,-6.0,-3.0,1650849075406803.0
0.0,-7.0,-3.0,2.0,0.0,10.0,0.0,-1.0,1650849075427741.0
-1.0,20.0,13.0,-2.0,-1.0,4.0,1.0,0.0,1650849075427741.0
-3.0,1.0,7.0,4.0,4.0,0.0,0.0,-1.0,1650849075435738.0
-2.0,4.0,-3.0,-4.0,-3.0,-1.0,1.0,-1.0,1650849075435738.0
-1.0,-6.0,-5.0,4.0,-3.0,-5.0,0.0,-1.0,1650849075442727.0
3.0,-6.0,-10.0,-7.0,2.0,6.0,0.0,-1.0,1650849075442727.0
5.0,4.0,5.0,-6.0,-8.0,-8.0,0.0,1.0,1650849075443697.0
-2.0,-1.0,-3.0,5.0,7.0,4.0,1.0,-1.0,1650849075443697.0
-5.0,7.0,3.0,-1.0,-4.0,-5.0,-1.0,-2.0,1650849075465638.0
-1.0,-25.0,-6.0,-5.0,-1.0,1.0,2.0,1.0,1650849075465638.0
-9.0,-1.0,-4.0,-1.0,2.0,0.0,-3.0,-2.0,1650849075466635.0
4.0,-5.0,-2.0,-4.0,-12.0,-19.0,-4.0,-1.0,1650849075466635.0
15.0,21.0,11.0,7.0,12.0,19.0,5.0,7.0,1650849075487906.0
-5.0,0.0,9.0,6.0,11.0,17.0,1.0,-2.0,1650849075487906.0
-1.0,1.0,-6.0,-2.0,-6.0,-16.0,-2.0,0.0,1650849075488903.0
-6.0,-15.0,-5.0,-5.0,-4.0,22.0,-1.0,0.0,1650849075488903.0
0.0,-18.0,-11.0,-5.0,-6.0,-10.0,-5.0,-3.0,1650849075504861.0
3.0,32.0,17.0,6.0,-7.0,-16.0,-4.0,-2.0,1650849075504861.0
-2.0,-7.0,-8.0,1.0,2.0,16.0,2.0,1.0,1650849075505858.0
-3.0,3.0,6.0,4.0,14.0,-8.0,0.0,-2.0,1650849075505858.0
0.0,-4.0,-2.0,-4.0,-4.0,14.0,0.0,0.0,1650849075526042.0
-1.0,-6.0,-7.0,-5.0,-8.0,-6.0,1.0,1.0,1650849075526042.0
