EMG_s0,EMG_s1,EMG_s2,EMG_s3,EMG_s4,EMG_s5,EMG_s6,EMG_s7,timestamp
1.0,0.0,1.0,0.0,4.0,2.0,1.0,2.0,1650824236043879.0
-2.0,-1.0,1.0,-2.0,-1.0,-3.0,0.0,0.0,1650824236043879.0
-1.0,2.0,1.0,0.0,2.0,1.0,2.0,-1.0,1650824236044896.0
2.0,2.0,4.0,2.0,6.0,3.0,1.0,1.0,1650824236044896.0
2.0,1.0,1.0,1.0,2.0,4.0,0.0,1.0,1650824236044896.0
3.0,2.0,-1.0,0.0,-1.0,1.0,1.0,-2.0,1650824236044896.0
-1.0,0.0,-3.0,0.0,-3.0,-2.0,-1.0,-1.0,1650824236049858.0
1.0,0.0,5.0,0.0,-2.0,0.0,0.0,-1.0,1650824236049858.0
0.0,-1.0,-5.0,-3.0,0.0,0.0,0.0,-1.0,1650824236054844.0
1.0,2.0,4.0,0.0,1.0,-1.0,0.0,0.0,1650824236054844.0
0.0,1.0,2.0,-1.0,-2.0,-4.0,-1.0,-1.0,1650824236066813.0
1.0,-3.0,0.0,-3.0,-1.0,0.0,-2.0,-1.0,1650824236066813.0
-1.0,4.0,4.0,1.0,-3.0,0.0,0.0,1.0,1650824236069831.0
-3.0,-2.0,-2.0,-2.0,0.0,2.0,0.0,-1.0,1650824236069831.0
3.0,1.0,2.0,2.0,1.0,0.0,1.0,1.0,1650824236086759.0
0.0,-1.0,-2.0,0.0,0.0,0.0,-1.0,0.0,1650824236086759.0
2.0,-2.0,-4.0,-4.0,-3.0,-1.0,-2.0,-2.0,1650824236093575.0
0.0,-2.0,-3.0,-3.0,-1.0,-2.0,-2.0,0.0,1650824236093575.0
-1.0,1.0,-1.0,-1.0,0.0,2.0,-1.0,0.0,1650824236108537.0
-1.0,-1.0,-4.0,-2.0,9.0,2.0,1.0,-1.0,1650824236108537.0
-1.0,-1.0,2.0,2.0,-7.0,-6.0,0.0,-1.0,1650824236115564.0
0.0,2.0,1.0,0.0,0.0,0.0,-1.0,1.0,1650824236115564.0
-2.0,-4.0,0.0,-4.0,-4.0,-3.0,-3.0,-1.0,1650824236130464.0
0.0,1.0,-2.0,-5.0,-6.0,-3.0,-3.0,0.0,1650824236130464.0
-1.0,-2.0,1.0,-6.0,0.0,-1.0,-2.0,-1.0,1650824236171617.0
1.0,-2.0,0.0,-2.0,-3.0,-3.0,-2.0,1.0,1650824236171617.0
0.0,1.0,0.0,0.0,-1.0,-2.0,0.0,1.0,1650824236172606.0
0.0,-1.0,-1.0,1.0,-5.0,-7.0,0.0,0.0,1650824236172606.0
0.0,-1.0,0.0,2.0,0.0,0.0,-1.0,0.0,1650824236175598.0
-1.0,-1.0,-2.0,0.0,2.0,2.0,-1.0,-1.0,1650824236175598.0
-2.0,-2.0,-2.0,-6.0,-5.0,-2.0,-4.0,-1.0,1650824236176632.0
0.0,1.0,2.0,2.0,-1.0,1.0,1.0,-1.0,1650824236176632.0
-2.0,-1.0,-2.0,-2.0,-2.0,-3.0,0.0,1.0,1650824236183577.0
-1.0,1.0,2.0,5.0,4.0,-2.0,0.0,0.0,1650824236183577.0
1.0,2.0,-2.0,2.0,2.0,2.0,0.0,0.0,1650824236189591.0
0.0,-1.0,-2.0,-4.0,-2.0,1.0,-3.0,-1.0,1650824236189591.0
-1.0,-2.0,-4.0,0.0,-7.0,-2.0,-2.0,0.0,1650824236197538.0
-1.0,-4.0,-2.0,-3.0,-5.0,-3.0,-2.0,-1.0,1650824236197538.0
-2.0,-1.0,-10.0,-6.0,0.0,0.0,1.0,-1.0,1650824236212527.0
-2.0,-1.0,1.0,0.0,8.0,2.0,-2.0,-2.0,1650824236212527.0
0.0,2.0,3.0,4.0,-4.0,5.0,2.0,0.0,1650824236221928.0
-1.0,-1.0,-3.0,2.0,0.0,2.0,2.0,0.0,1650824236221928.0
0.0,1.0,2.0,3.0,1.0,-4.0,0.0,0.0,1650824236243880.0
1.0,0.0,-2.0,0.0,0.0,1.0,-1.0,2.0,1650824236243880.0
-1.0,1.0,0.0,3.0,3.0,-2.0,-2.0,0.0,1650824236244859.0
1.0,1.0,-3.0,-4.0,-3.0,-2.0,0.0,-2.0,1650824236244859.0
0.0,-2.0,2.0,-1.0,-5.0,-1.0,-1.0,-2.0,1650824236266791.0
-2.0,0.0,0.0,-1.0,-1.0,0.0,2.0,-1.0,1650824236266791.0
0.0,-2.0,-1.0,-1.0,0.0,0.0,-2.0,-2.0,1650824236267791.0
-2.0,0.0,-3.0,-1.0,-3.0,-3.0,-2.0,0.0,1650824236267791.0
0.0,-2.0,-1.0,-5.0,1.0,1.0,-1.0,-1.0,1650824236281815.0
0.0,0.0,0.0,0.0,0.0,-2.0,-2.0,-2.0,1650824236281815.0
-1.0,-1.0,0.0,-1.0,0.0,-2.0,0.0,-1.0,1650824236281815.0
-2.0,-1.0,1.0,0.0,0.0,-3.0,1.0,-1.0,1650824236281815.0
0.0,-2.0,0.0,-2.0,-5.0,-4.0,-1.0,1.0,1650824236304399.0
1.0,2.0,1.0,3.0,6.0,2.0,0.0,0.0,1650824236304399.0
0.0,0.0,0.0,0.0,3.0,3.0,3.0,-1.0,1650824236304707.0
-1.0,-1.0,1.0,0.0,-1.0,0.0,0.0,0.0,1650824236304707.0
-1.0,-1.0,4.0,3.0,2.0,4.0,1.0,-1.0,1650824236318673.0
-2.0,-2.0,-2.0,-3.0,-4.0,3.0,1.0,2.0,1650824236318673.0
1.0,-1.0,-4.0,-2.0,3.0,-5.0,0.0,-1.0,1650824236318673.0
1.0,-1.0,1.0,1.0,-1.0,0.0,-2.0,-1.0,1650824236318673.0
0.0,0.0,1.0,3.0,11.0,4.0,-2.0,0.0,1650824236341821.0
1.0,-2.0,-5.0,-4.0,-15.0,-7.0,-2.0,-1.0,1650824236341821.0
-2.0,-1.0,5.0,-2.0,-2.0,0.0,-1.0,-2.0,1650824236341821.0
-2.0,-2.0,-9.0,-5.0,-3.0,-2.0,-1.0,0.0,1650824236341821.0
0.0,1.0,3.0,3.0,1.0,0.0,3.0,0.0,1650824236363823.0
1.0,-1.0,1.0,3.0,7.0,4.0,2.0,0.0,1650824236363823.0
-2.0,0.0,4.0,2.0,1.0,2.0,1.0,2.0,1650824236365840.0
-2.0,-2.0,-2.0,-4.0,0.0,0.0,-1.0,-2.0,1650824236365840.0
-1.0,-1.0,2.0,-3.0,-8.0,-4.0,-4.0,0.0,1650824236377786.0
-2.0,-1.0,-5.0,-2.0,-4.0,-3.0,-2.0,1.0,1650824236377786.0
0.0,-3.0,-3.0,-2.0,-2.0,-2.0,-2.0,-1.0,1650824236386256.0
1.0,0.0,4.0,3.0,3.0,4.0,-1.0,0.0,1650824236386256.0
-1.0,0.0,-2.0,0.0,-1.0,0.0,-1.0,1.0,1650824236401108.0
-1.0,0.0,3.0,-1.0,-2.0,0.0,-1.0,-1.0,1650824236401108.0
3.0,0.0,-1.0,0.0,0.0,-4.0,-1.0,0.0,1650824236403109.0
1.0,2.0,-3.0,-2.0,-1.0,0.0,-1.0,0.0,1650824236403109.0
-4.0,-2.0,-3.0,-2.0,-3.0,-2.0,-1.0,-1.0,1650824236424173.0
1.0,-1.0,1.0,-3.0,0.0,-2.0,-1.0,-1.0,1650824236424173.0
0.0,-1.0,-5.0,-2.0,-1.0,1.0,0.0,-1.0,1650824236425144.0
0.0,-1.0,4.0,1.0,0.0,-1.0,0.0,1.0,1650824236425144.0
1.0,0.0,-1.0,-1.0,-4.0,-2.0,-1.0,-2.0,1650824236438107.0
0.0,-1.0,5.0,4.0,9.0,4.0,-1.0,-1.0,1650824236438107.0
-1.0,-4.0,-12.0,-7.0,-8.0,-3.0,2.0,-2.0,1650824236446566.0
0.0,0.0,4.0,2.0,3.0,-2.0,0.0,-2.0,1650824236446566.0
0.0,0.0,3.0,1.0,-2.0,-1.0,-1.0,1.0,1650824236461528.0
-3.0,1.0,-1.0,2.0,2.0,1.0,-1.0,-1.0,1650824236461528.0
1.0,2.0,1.0,4.0,2.0,2.0,-1.0,1.0,1650824236462518.0
0.0,-1.0,-2.0,-3.0,0.0,2.0,-1.0,2.0,1650824236462518.0
0.0,-2.0,-4.0,0.0,-4.0,-4.0,0.0,0.0,1650824236483441.0
0.0,-1.0,-3.0,-5.0,-9.0,-7.0,-3.0,-1.0,1650824236483441.0
-2.0,3.0,3.0,4.0,5.0,3.0,0.0,0.0,1650824236485449.0
-1.0,2.0,1.0,3.0,4.0,-2.0,3.0,0.0,1650824236485449.0
-2.0,-2.0,-2.0,-1.0,3.0,1.0,-1.0,-2.0,1650824236506497.0
0.0,-1.0,-4.0,-2.0,-4.0,-1.0,-2.0,1.0,1650824236506497.0
1.0,-2.0,0.0,-1.0,-5.0,-4.0,-2.0,0.0,1650824236507432.0
-1.0,0.0,2.0,1.0,2.0,4.0,0.0,-2.0,1650824236507432.0
1.0,2.0,-2.0,1.0,0.0,-1.0,-2.0,0.0,1650824236521903.0
-2.0,0.0,0.0,2.0,-1.0,0.0,3.0,-2.0,1650824236521903.0
-1.0,-1.0,-4.0,-2.0,1.0,1.0,-1.0,-2.0,1650824236522806.0
-2.0,-2.0,-5.0,-4.0,-2.0,0.0,-2.0,-2.0,1650824236522806.0
-2.0,-3.0,-2.0,-2.0,-5.0,-4.0,-2.0,0.0,1650824236544017.0
-1.0,1.0,3.0,2.0,7.0,2.0,0.0,-1.0,1650824236544017.0
0.0,1.0,7.0,4.0,-5.0,4.0,3.0,0.0,1650824236545026.0
1.0,-1.0,-2.0,-2.0,-5.0,-6.0,1.0,1.0,1650824236545026.0
-1.0,-3.0,-2.0,-2.0,-4.0,-7.0,-2.0,-1.0,1650824236558027.0
0.0,-3.0,-3.0,1.0,0.0,-1.0,-1.0,-1.0,1650824236558027.0
0.0,2.0,-1.0,0.0,0.0,1.0,-2.0,-1.0,1650824236566969.0
1.0,0.0,4.0,2.0,-2.0,2.0,-1.0,0.0,1650824236566969.0
0.0,0.0,0.0,-1.0,-2.0,2.0,1.0,-2.0,1650824236581554.0
1.0,-1.0,0.0,2.0,1.0,1.0,1.0,1.0,1650824236581554.0
0.0,-1.0,3.0,0.0,3.0,0.0,-1.0,-1.0,1650824236582552.0
0.0,-1.0,0.0,-3.0,-6.0,-1.0,-2.0,0.0,1650824236582552.0
1.0,4.0,0.0,-1.0,1.0,0.0,-1.0,-1.0,1650824236604462.0
0.0,-4.0,-6.0,-5.0,-6.0,-3.0,-5.0,-1.0,1650824236604462.0
-1.0,0.0,-2.0,-4.0,-1.0,-3.0,-1.0,1.0,1650824236605475.0
-2.0,-2.0,-2.0,1.0,-1.0,-2.0,1.0,-1.0,1650824236605475.0
-2.0,-1.0,1.0,1.0,3.0,2.0,0.0,0.0,1650824236617533.0
-1.0,5.0,3.0,0.0,-2.0,1.0,1.0,-2.0,1650824236617533.0
-2.0,-9.0,-5.0,0.0,0.0,-3.0,-2.0,-1.0,1650824236626480.0
-1.0,1.0,0.0,1.0,1.0,2.0,0.0,-1.0,1650824236626480.0
0.0,0.0,-1.0,-2.0,-1.0,-2.0,-3.0,-1.0,1650824236641648.0
2.0,-1.0,-2.0,-4.0,-3.0,-2.0,1.0,-1.0,1650824236641648.0
-1.0,0.0,1.0,1.0,9.0,2.0,1.0,1.0,1650824236642584.0
4.0,0.0,-2.0,-1.0,-9.0,-2.0,-1.0,-1.0,1650824236642584.0
-10.0,-6.0,5.0,2.0,0.0,0.0,0.0,-4.0,1650824236664396.0
-1.0,-1.0,-11.0,-5.0,-1.0,-7.0,-1.0,1.0,1650824236664396.0
1.0,1.0,-2.0,-1.0,-6.0,-3.0,-2.0,-1.0,1650824236665417.0
-1.0,0.0,2.0,-1.0,0.0,-2.0,-1.0,-1.0,1650824236665417.0
8.0,2.0,0.0,3.0,3.0,3.0,2.0,1.0,1650824236677430.0
-2.0,6.0,10.0,5.0,3.0,5.0,2.0,4.0,1650824236677430.0
4.0,3.0,-5.0,-4.0,-3.0,-1.0,-1.0,0.0,1650824236686346.0
-13.0,-2.0,2.0,-4.0,-4.0,-7.0,-4.0,-9.0,1650824236686346.0
6.0,-6.0,-5.0,-4.0,-4.0,-3.0,-1.0,0.0,1650824236701300.0
-4.0,2.0,3.0,2.0,-2.0,-2.0,0.0,-1.0,1650824236701300.0
0.0,-5.0,-1.0,-4.0,-5.0,-3.0,-2.0,2.0,1650824236703323.0
5.0,8.0,0.0,0.0,2.0,4.0,1.0,1.0,1650824236703323.0
-3.0,2.0,0.0,3.0,5.0,5.0,4.0,0.0,1650824236723675.0
6.0,-5.0,1.0,-1.0,-1.0,-2.0,-1.0,-1.0,1650824236723675.0
-2.0,6.0,6.0,0.0,-3.0,-1.0,0.0,0.0,1650824236725671.0
0.0,-4.0,-9.0,-7.0,-6.0,-7.0,-4.0,0.0,1650824236725671.0
0.0,-2.0,0.0,-1.0,1.0,-1.0,-1.0,0.0,1650824236737707.0
-1.0,0.0,0.0,3.0,6.0,4.0,1.0,2.0,1650824236737707.0
3.0,3.0,2.0,5.0,7.0,3.0,1.0,-2.0,1650824236746623.0
0.0,-4.0,2.0,3.0,7.0,1.0,-1.0,1.0,1650824236746623.0
1.0,1.0,-2.0,-5.0,-11.0,-3.0,-3.0,0.0,1650824236761827.0
1.0,-1.0,-6.0,-5.0,0.0,-3.0,0.0,0.0,1650824236761827.0
3.0,0.0,-1.0,-3.0,-4.0,-3.0,0.0,1.0,1650824236762760.0
14.0,6.0,-2.0,-1.0,-1.0,-1.0,0.0,2.0,1650824236762760.0
-2.0,9.0,3.0,2.0,3.0,2.0,-1.0,-2.0,1650824236783731.0
0.0,-4.0,-1.0,1.0,1.0,0.0,-2.0,-1.0,1650824236783731.0
-40.0,-22.0,-5.0,-2.0,1.0,-1.0,0.0,-2.0,1650824236785698.0
2.0,-16.0,0.0,0.0,3.0,2.0,2.0,-3.0,1650824236785698.0
-14.0,10.0,-2.0,-2.0,-2.0,-7.0,-2.0,-2.0,1650824236806645.0
-19.0,-3.0,3.0,0.0,-4.0,-1.0,1.0,-1.0,1650824236806645.0
37.0,29.0,2.0,-2.0,0.0,-4.0,-5.0,-1.0,1650824236807605.0
0.0,-20.0,-1.0,2.0,-1.0,3.0,1.0,1.0,1650824236807605.0
-7.0,-5.0,-5.0,0.0,4.0,3.0,-2.0,-3.0,1650824236821602.0
0.0,-16.0,-1.0,-7.0,-3.0,-5.0,-5.0,-3.0,1650824236821602.0
-1.0,2.0,1.0,0.0,1.0,3.0,4.0,2.0,1650824236823533.0
5.0,16.0,5.0,5.0,2.0,2.0,2.0,2.0,1650824236823533.0
11.0,1.0,-8.0,0.0,1.0,0.0,1.0,3.0,1650824236843489.0
6.0,5.0,-3.0,-2.0,4.0,2.0,-2.0,2.0,1650824236843489.0
-5.0,-8.0,1.0,-1.0,-16.0,-7.0,-3.0,-3.0,1650824236845474.0
0.0,7.0,3.0,0.0,1.0,-1.0,0.0,0.0,1650824236845474.0
-2.0,-6.0,2.0,2.0,1.0,0.0,0.0,1.0,1650824236866501.0
-3.0,0.0,0.0,-1.0,-5.0,-1.0,-3.0,-3.0,1650824236866501.0
-1.0,-5.0,-9.0,-4.0,4.0,2.0,-1.0,-2.0,1650824236868518.0
-8.0,2.0,1.0,3.0,9.0,5.0,1.0,2.0,1650824236868518.0
3.0,-1.0,4.0,0.0,-7.0,-2.0,1.0,1.0,1650824236880493.0
3.0,0.0,-2.0,-4.0,-3.0,-3.0,-3.0,-3.0,1650824236880493.0
1.0,-2.0,4.0,5.0,3.0,1.0,1.0,0.0,1650824236887514.0
-5.0,-3.0,-3.0,-4.0,-7.0,-5.0,-3.0,-2.0,1650824236887514.0
-4.0,-9.0,-3.0,-5.0,0.0,-1.0,-3.0,-4.0,1650824236904456.0
6.0,4.0,2.0,3.0,2.0,1.0,3.0,1.0,1650824236904456.0
3.0,0.0,-1.0,-1.0,-3.0,1.0,0.0,0.0,1650824236905462.0
-10.0,2.0,-2.0,-2.0,2.0,1.0,0.0,0.0,1650824236905462.0
6.0,-2.0,0.0,-2.0,-2.0,-2.0,-2.0,0.0,1650824236926468.0
-2.0,2.0,0.0,0.0,-7.0,-6.0,-2.0,-2.0,1650824236926468.0
-2.0,-3.0,-1.0,4.0,7.0,4.0,1.0,0.0,1650824236928421.0
2.0,7.0,8.0,3.0,-2.0,-1.0,-2.0,-1.0,1650824236928421.0
-3.0,-6.0,-7.0,-1.0,-1.0,1.0,1.0,-2.0,1650824236941426.0
6.0,1.0,-1.0,-1.0,-3.0,1.0,0.0,2.0,1650824236941426.0
-7.0,-3.0,-2.0,-1.0,-3.0,-4.0,-2.0,-2.0,1650824236947407.0
3.0,-1.0,2.0,-3.0,-5.0,-1.0,0.0,1.0,1650824236947407.0
-2.0,2.0,1.0,2.0,3.0,2.0,1.0,0.0,1650824236964324.0
0.0,1.0,-2.0,1.0,0.0,4.0,1.0,-2.0,1650824236964324.0
1.0,-2.0,6.0,1.0,1.0,-2.0,0.0,2.0,1650824236965295.0
-1.0,1.0,0.0,3.0,10.0,5.0,0.0,-2.0,1650824236965295.0
-4.0,5.0,4.0,-2.0,-8.0,-4.0,0.0,2.0,1650824236986239.0
-1.0,0.0,-3.0,-3.0,-2.0,-1.0,0.0,0.0,1650824236986239.0
2.0,-5.0,4.0,2.0,1.0,-3.0,-2.0,0.0,1650824236988233.0
-2.0,-1.0,-5.0,-1.0,1.0,-3.0,0.0,0.0,1650824236988233.0
-2.0,-4.0,2.0,0.0,3.0,3.0,0.0,-2.0,1650824237001206.0
0.0,1.0,-3.0,0.0,2.0,1.0,4.0,0.0,1650824237001206.0
-2.0,1.0,-1.0,-3.0,-5.0,-2.0,-1.0,0.0,1650824237007251.0
-4.0,-3.0,-1.0,0.0,-2.0,-4.0,-2.0,-2.0,1650824237007251.0
4.0,0.0,-6.0,0.0,-1.0,-2.0,-1.0,1.0,1650824237024310.0
-2.0,-4.0,6.0,-4.0,-5.0,-3.0,-2.0,0.0,1650824237024310.0
-3.0,-2.0,-8.0,-5.0,1.0,1.0,0.0,-1.0,1650824237025279.0
1.0,-1.0,0.0,2.0,-1.0,-2.0,2.0,0.0,1650824237025279.0
4.0,4.0,4.0,4.0,3.0,0.0,1.0,0.0,1650824237046289.0
-1.0,-4.0,-2.0,-2.0,0.0,-2.0,-3.0,-2.0,1650824237046289.0
2.0,-1.0,0.0,-4.0,-5.0,-1.0,-2.0,-1.0,1650824237048246.0
-2.0,0.0,-2.0,-3.0,-2.0,0.0,-3.0,-2.0,1650824237048246.0
-1.0,-2.0,0.0,-1.0,1.0,0.0,-1.0,-2.0,1650824237061182.0
-2.0,-1.0,0.0,2.0,-3.0,0.0,0.0,-1.0,1650824237061182.0
1.0,0.0,1.0,-1.0,3.0,2.0,-1.0,0.0,1650824237067232.0
-3.0,-1.0,-1.0,9.0,5.0,1.0,3.0,1.0,1650824237067232.0
-1.0,-3.0,-2.0,-10.0,-1.0,1.0,0.0,1.0,1650824237084270.0
0.0,-2.0,-4.0,-2.0,5.0,1.0,0.0,-1.0,1650824237084270.0
-1.0,0.0,1.0,-2.0,-14.0,-5.0,0.0,-3.0,1650824237085239.0
-1.0,-1.0,-2.0,-1.0,-5.0,-4.0,0.0,-1.0,1650824237085239.0
3.0,0.0,1.0,2.0,6.0,-1.0,-4.0,0.0,1650824237106249.0
-2.0,0.0,0.0,3.0,1.0,1.0,-1.0,-1.0,1650824237106249.0
-2.0,-4.0,-2.0,0.0,2.0,1.0,1.0,0.0,1650824237108178.0
-1.0,-3.0,-1.0,-3.0,-1.0,-1.0,0.0,-2.0,1650824237108178.0
-1.0,-2.0,-2.0,-2.0,-6.0,-3.0,-1.0,-1.0,1650824237121200.0
0.0,1.0,-1.0,-7.0,-7.0,-5.0,-2.0,0.0,1650824237121200.0
0.0,2.0,2.0,6.0,3.0,2.0,-1.0,-1.0,1650824237127153.0
1.0,-1.0,-5.0,-1.0,3.0,2.0,-1.0,1.0,1650824237127153.0
2.0,2.0,-4.0,6.0,2.0,-1.0,1.0,-2.0,1650824237142086.0
-4.0,-5.0,12.0,-5.0,-3.0,-1.0,-1.0,-2.0,1650824237142086.0
-1.0,0.0,1.0,-4.0,-1.0,-2.0,-1.0,1.0,1650824237151090.0
-2.0,-1.0,-1.0,-3.0,-4.0,1.0,0.0,-1.0,1650824237151090.0
2.0,2.0,1.0,4.0,4.0,2.0,1.0,2.0,1650824237166086.0
2.0,2.0,1.0,5.0,1.0,-2.0,-1.0,-1.0,1650824237166086.0
3.0,0.0,-5.0,-3.0,-1.0,-1.0,-3.0,-1.0,1650824237168018.0
-5.0,-2.0,0.0,-6.0,-7.0,-3.0,-1.0,-1.0,1650824237168018.0
-2.0,-2.0,1.0,1.0,-1.0,1.0,-2.0,-1.0,1650824237189027.0
-1.0,-2.0,-3.0,2.0,3.0,-2.0,0.0,-1.0,1650824237189027.0
2.0,1.0,2.0,5.0,9.0,4.0,1.0,0.0,1650824237190969.0
1.0,-1.0,-3.0,0.0,0.0,-1.0,-1.0,1.0,1650824237190969.0
-1.0,-2.0,-1.0,-4.0,-4.0,-1.0,-2.0,0.0,1650824237202925.0
0.0,-2.0,-4.0,-2.0,-4.0,-2.0,-2.0,-1.0,1650824237202925.0
-1.0,2.0,-2.0,-1.0,3.0,1.0,2.0,-1.0,1650824237211913.0
1.0,0.0,0.0,1.0,-6.0,-4.0,-2.0,0.0,1650824237211913.0
-3.0,-4.0,-2.0,-6.0,-5.0,-1.0,-1.0,-1.0,1650824237226643.0
2.0,0.0,-4.0,0.0,2.0,5.0,0.0,-1.0,1650824237226643.0
0.0,-1.0,1.0,3.0,11.0,4.0,0.0,0.0,1650824237227570.0
-1.0,-1.0,-1.0,-1.0,-12.0,-4.0,-1.0,1.0,1650824237227570.0
-1.0,0.0,3.0,-3.0,0.0,-2.0,1.0,-1.0,1650824237249512.0
1.0,2.0,-5.0,5.0,4.0,1.0,2.0,1.0,1650824237249512.0
-2.0,-6.0,1.0,-8.0,-6.0,-4.0,-4.0,-3.0,1650824237250510.0
-1.0,0.0,0.0,-5.0,-2.0,-4.0,-4.0,-3.0,1650824237250510.0
0.0,1.0,3.0,1.0,0.0,0.0,0.0,2.0,1650824237271656.0
-1.0,0.0,2.0,8.0,5.0,4.0,3.0,-1.0,1650824237271656.0
-1.0,1.0,2.0,3.0,-1.0,-1.0,0.0,2.0,1650824237272611.0
2.0,-2.0,-11.0,-6.0,-4.0,-3.0,-2.0,-1.0,1650824237272611.0
1.0,-4.0,-3.0,-4.0,-2.0,1.0,1.0,-3.0,1650824237286640.0
-3.0,1.0,5.0,6.0,1.0,-1.0,3.0,-1.0,1650824237286640.0
-2.0,-1.0,-4.0,-3.0,-5.0,-2.0,1.0,0.0,1650824237287641.0
1.0,1.0,3.0,-2.0,2.0,1.0,0.0,1.0,1650824237287641.0
0.0,-1.0,-3.0,-2.0,-4.0,-4.0,-2.0,-1.0,1650824237309116.0
0.0,1.0,1.0,-2.0,0.0,0.0,-3.0,0.0,1650824237309116.0
-1.0,1.0,-2.0,-2.0,-2.0,0.0,-1.0,0.0,1650824237310048.0
0.0,0.0,2.0,0.0,3.0,1.0,-2.0,0.0,1650824237310048.0
0.0,-2.0,-4.0,1.0,1.0,1.0,1.0,-1.0,1650824237331058.0
0.0,-2.0,-3.0,-3.0,-5.0,-3.0,-2.0,1.0,1650824237331058.0
1.0,0.0,0.0,1.0,-5.0,-1.0,-1.0,-3.0,1650824237337974.0
-1.0,0.0,2.0,-2.0,-3.0,0.0,-1.0,0.0,1650824237337974.0
0.0,2.0,6.0,5.0,3.0,1.0,1.0,1.0,1650824237345951.0
1.0,0.0,-2.0,-3.0,3.0,0.0,-2.0,0.0,1650824237345951.0
3.0,5.0,4.0,6.0,2.0,2.0,0.0,1.0,1650824237347946.0
-2.0,-16.0,-10.0,-4.0,2.0,1.0,3.0,-10.0,1650824237347946.0
-12.0,-2.0,-2.0,-3.0,-4.0,-1.0,-3.0,1.0,1650824237376896.0
3.0,0.0,-2.0,-6.0,-11.0,-6.0,-1.0,8.0,1650824237376896.0
7.0,-1.0,2.0,-3.0,-8.0,-6.0,2.0,-1.0,1650824237377867.0
-5.0,14.0,8.0,3.0,6.0,6.0,-1.0,5.0,1650824237377867.0
0.0,-8.0,-18.0,5.0,9.0,8.0,2.0,-9.0,1650824237391923.0
-13.0,-13.0,5.0,0.0,-2.0,-5.0,-10.0,-6.0,1650824237391923.0
0.0,-6.0,-1.0,-5.0,0.0,2.0,5.0,30.0,1650824237392935.0
46.0,43.0,4.0,-2.0,-11.0,-8.0,0.0,8.0,1650824237392935.0
-15.0,-14.0,11.0,1.0,2.0,-2.0,2.0,-5.0,1650824237406921.0
-53.0,-83.0,-48.0,-9.0,6.0,1.0,-7.0,-23.0,1650824237406921.0
-29.0,-11.0,-4.0,9.0,-3.0,2.0,-2.0,-19.0,1650824237407874.0
-2.0,18.0,18.0,-3.0,6.0,0.0,1.0,25.0,1650824237407874.0
29.0,13.0,-7.0,0.0,-1.0,-3.0,-11.0,-44.0,1650824237429456.0
34.0,36.0,31.0,4.0,-2.0,3.0,7.0,9.0,1650824237429456.0
-13.0,-25.0,-9.0,-5.0,2.0,6.0,8.0,23.0,1650824237430465.0
12.0,29.0,9.0,3.0,2.0,8.0,12.0,-1.0,1650824237430465.0
63.0,48.0,13.0,8.0,1.0,-6.0,8.0,14.0,1650824237450918.0
-41.0,1.0,-26.0,-2.0,-2.0,3.0,12.0,-24.0,1650824237450918.0
-34.0,-7.0,-22.0,-5.0,-4.0,-12.0,-6.0,2.0,1650824237452886.0
-38.0,6.0,10.0,-12.0,-13.0,-19.0,-35.0,-26.0,1650824237452886.0
-14.0,21.0,4.0,-1.0,2.0,8.0,14.0,62.0,1650824237465878.0
28.0,13.0,23.0,6.0,4.0,7.0,-8.0,-36.0,1650824237465878.0
26.0,12.0,8.0,10.0,7.0,2.0,-5.0,-18.0,1650824237473830.0
37.0,32.0,-25.0,15.0,14.0,23.0,52.0,72.0,1650824237473830.0
8.0,37.0,38.0,31.0,9.0,-17.0,-52.0,-89.0,1650824237488908.0
41.0,82.0,20.0,-19.0,-24.0,-17.0,14.0,109.0,1650824237488908.0
24.0,23.0,26.0,-19.0,-8.0,-10.0,-25.0,-41.0,1650824237490935.0
-15.0,-113.0,-82.0,-37.0,-11.0,-2.0,37.0,58.0,1650824237490935.0
0.0,77.0,34.0,8.0,3.0,4.0,-22.0,-16.0,1650824237511886.0
-43.0,-63.0,31.0,31.0,19.0,22.0,-25.0,-57.0,1650824237511886.0
41.0,64.0,4.0,-9.0,-10.0,-8.0,86.0,91.0,1650824237512849.0
-66.0,21.0,46.0,15.0,2.0,-3.0,-29.0,-61.0,1650824237512849.0
72.0,-34.0,-48.0,-3.0,1.0,7.0,11.0,42.0,1650824237525643.0
-16.0,-4.0,27.0,0.0,-1.0,-13.0,-29.0,-50.0,1650824237525643.0
-20.0,9.0,29.0,17.0,11.0,14.0,3.0,10.0,1650824237532627.0
33.0,-8.0,-2.0,7.0,6.0,19.0,24.0,-2.0,1650824237532627.0
-84.0,-76.0,-19.0,-15.0,-9.0,-15.0,-32.0,-76.0,1650824237548545.0
61.0,10.0,-6.0,11.0,0.0,4.0,16.0,15.0,1650824237548545.0
-40.0,-3.0,-25.0,-20.0,-4.0,-6.0,-33.0,-53.0,1650824237550513.0
16.0,46.0,32.0,42.0,1.0,-4.0,9.0,7.0,1650824237550513.0
0.0,-80.0,-18.0,13.0,11.0,16.0,25.0,46.0,1650824237571524.0
15.0,1.0,-33.0,-42.0,9.0,13.0,66.0,78.0,1650824237571524.0
1.0,27.0,-34.0,-7.0,6.0,-1.0,-24.0,-45.0,1650824237573481.0
0.0,26.0,62.0,6.0,6.0,17.0,5.0,-1.0,1650824237573481.0
2.0,-86.0,-80.0,-26.0,-30.0,-32.0,-5.0,-17.0,1650824237584691.0
-53.0,-22.0,21.0,26.0,-2.0,-8.0,0.0,33.0,1650824237584691.0
-70.0,-34.0,5.0,4.0,-6.0,-7.0,19.0,19.0,1650824237593704.0
10.0,26.0,23.0,-3.0,0.0,2.0,-21.0,-10.0,1650824237593704.0
51.0,27.0,31.0,-2.0,-7.0,-18.0,-76.0,-83.0,1650824237608742.0
-39.0,0.0,-13.0,-10.0,-3.0,-5.0,51.0,6.0,1650824237608742.0
3.0,-21.0,-16.0,0.0,1.0,-1.0,-61.0,-62.0,1650824237610746.0
-32.0,-82.0,-51.0,-6.0,-4.0,-21.0,-29.0,-48.0,1650824237610746.0
-49.0,13.0,45.0,-7.0,-5.0,10.0,30.0,77.0,1650824237631781.0
69.0,14.0,-2.0,-11.0,-8.0,10.0,29.0,54.0,1650824237631781.0
38.0,0.0,-15.0,9.0,-2.0,-4.0,-8.0,-24.0,1650824237632780.0
17.0,10.0,-31.0,-10.0,15.0,15.0,35.0,40.0,1650824237632780.0
-72.0,-60.0,-63.0,-59.0,-23.0,-24.0,-29.0,-42.0,1650824237653783.0
-14.0,12.0,-24.0,7.0,3.0,6.0,-23.0,-10.0,1650824237653783.0
57.0,56.0,-10.0,-20.0,10.0,17.0,51.0,53.0,1650824237655807.0
-13.0,-24.0,20.0,17.0,4.0,-11.0,-41.0,-30.0,1650824237655807.0
42.0,66.0,-9.0,-5.0,6.0,26.0,77.0,87.0,1650824237668773.0
-54.0,45.0,19.0,16.0,-4.0,-17.0,-94.0,-104.0,1650824237668773.0
3.0,-73.0,-21.0,-7.0,-21.0,-18.0,-8.0,23.0,1650824237670755.0
-31.0,11.0,-15.0,-31.0,-14.0,-13.0,-4.0,-49.0,1650824237670755.0
28.0,35.0,9.0,-2.0,3.0,5.0,75.0,90.0,1650824237692882.0
-54.0,-26.0,-16.0,-2.0,-8.0,-10.0,-50.0,-89.0,1650824237692882.0
2.0,26.0,27.0,11.0,6.0,2.0,-32.0,15.0,1650824237694875.0
1.0,-21.0,-20.0,1.0,-1.0,-11.0,-44.0,17.0,1650824237694875.0
24.0,28.0,25.0,8.0,-4.0,4.0,54.0,44.0,1650824237705910.0
61.0,40.0,23.0,-4.0,-1.0,-2.0,1.0,-30.0,1650824237705910.0
-24.0,-29.0,0.0,5.0,2.0,6.0,15.0,38.0,1650824237712855.0
-6.0,-40.0,-22.0,-8.0,-14.0,-10.0,23.0,-16.0,1650824237712855.0
54.0,75.0,32.0,22.0,18.0,31.0,23.0,62.0,1650824237728873.0
-13.0,-10.0,18.0,10.0,4.0,7.0,16.0,41.0,1650824237728873.0
-13.0,-75.0,35.0,0.0,2.0,-5.0,-30.0,-63.0,1650824237730798.0
14.0,-28.0,-60.0,-48.0,-16.0,3.0,13.0,17.0,1650824237730798.0
-46.0,-53.0,16.0,-11.0,6.0,-7.0,-42.0,-86.0,1650824237751866.0
16.0,-76.0,-55.0,-14.0,-3.0,-9.0,17.0,61.0,1650824237751866.0
2.0,50.0,36.0,26.0,2.0,-1.0,-7.0,6.0,1650824237752856.0
7.0,-8.0,18.0,28.0,11.0,13.0,50.0,30.0,1650824237752856.0
1.0,3.0,-26.0,-6.0,-7.0,-5.0,-44.0,5.0,1650824237765848.0
2.0,27.0,9.0,-17.0,-13.0,-11.0,14.0,32.0,1650824237765848.0
8.0,14.0,7.0,11.0,4.0,12.0,81.0,-88.0,1650824237773786.0
34.0,33.0,6.0,-9.0,-1.0,-14.0,-104.0,0.0,1650824237773786.0
-77.0,56.0,6.0,12.0,3.0,2.0,2.0,-75.0,1650824237788947.0
46.0,41.0,19.0,22.0,14.0,19.0,40.0,6.0,1650824237788947.0
0.0,44.0,10.0,2.0,2.0,-3.0,-12.0,0.0,1650824237790896.0
-4.0,-4.0,-33.0,7.0,2.0,-4.0,9.0,4.0,1650824237790896.0
47.0,25.0,32.0,1.0,-8.0,5.0,17.0,21.0,1650824237811940.0
0.0,-41.0,-16.0,5.0,-2.0,-8.0,-39.0,-14.0,1650824237811940.0
-66.0,-5.0,-27.0,-29.0,-5.0,-4.0,-29.0,-52.0,1650824237812937.0
3.0,38.0,68.0,24.0,4.0,14.0,27.0,18.0,1650824237812937.0
14.0,52.0,75.0,57.0,22.0,9.0,-6.0,50.0,1650824237825518.0
-10.0,-57.0,-83.0,-77.0,-10.0,-9.0,-15.0,-45.0,1650824237825518.0
40.0,37.0,62.0,-1.0,-11.0,0.0,16.0,87.0,1650824237834503.0
-42.0,-6.0,12.0,6.0,-1.0,-9.0,-34.0,-58.0,1650824237834503.0
5.0,5.0,17.0,7.0,-4.0,-4.0,17.0,29.0,1650824237849270.0
20.0,-20.0,4.0,26.0,6.0,2.0,43.0,5.0,1650824237849270.0
1.0,-27.0,-26.0,-5.0,4.0,9.0,-48.0,47.0,1650824237850238.0
41.0,36.0,3.0,2.0,8.0,17.0,81.0,81.0,1650824237850238.0
9.0,13.0,-3.0,15.0,8.0,3.0,-60.0,-25.0,1650824237871184.0
-36.0,18.0,20.0,-6.0,-4.0,-16.0,-21.0,-59.0,1650824237871184.0
-4.0,-32.0,-41.0,-12.0,-9.0,-4.0,-20.0,-6.0,1650824237873178.0
-33.0,3.0,8.0,13.0,6.0,2.0,7.0,19.0,1650824237873178.0
25.0,-8.0,-3.0,-16.0,-8.0,-6.0,29.0,25.0,1650824237885172.0
-12.0,-2.0,2.0,2.0,2.0,7.0,2.0,46.0,1650824237885172.0
-18.0,-7.0,9.0,7.0,3.0,3.0,34.0,32.0,1650824237894126.0
24.0,35.0,24.0,-3.0,-11.0,-7.0,-19.0,-18.0,1650824237894126.0
-33.0,-67.0,-58.0,-5.0,5.0,-7.0,-15.0,-50.0,1650824237909081.0
6.0,24.0,2.0,-10.0,-10.0,2.0,0.0,11.0,1650824237909081.0
18.0,1.0,29.0,18.0,13.0,7.0,13.0,-1.0,1650824237910078.0
-24.0,-71.0,-61.0,-50.0,-17.0,-5.0,8.0,-9.0,1650824237910078.0
-11.0,-26.0,-9.0,1.0,-7.0,-9.0,-21.0,2.0,1650824237932020.0
59.0,75.0,40.0,37.0,18.0,19.0,19.0,-13.0,1650824237932020.0
-55.0,-8.0,-4.0,-14.0,-11.0,-14.0,-8.0,30.0,1650824237933018.0
-5.0,-50.0,0.0,12.0,1.0,-14.0,-55.0,-75.0,1650824237933018.0
-42.0,-27.0,-9.0,-7.0,1.0,4.0,33.0,19.0,1650824237945006.0
88.0,73.0,7.0,15.0,2.0,-5.0,-49.0,-2.0,1650824237945006.0
-4.0,-35.0,15.0,12.0,4.0,7.0,75.0,28.0,1650824237953961.0
-23.0,33.0,29.0,0.0,1.0,-1.0,-45.0,-33.0,1650824237953961.0
4.0,-66.0,-80.0,-18.0,-6.0,-3.0,36.0,39.0,1650824237968946.0
-58.0,-47.0,9.0,-8.0,-2.0,2.0,46.0,24.0,1650824237968946.0
45.0,49.0,10.0,-6.0,0.0,-2.0,-50.0,6.0,1650824237970937.0
-24.0,-30.0,-26.0,-1.0,-4.0,-4.0,8.0,-22.0,1650824237970937.0
63.0,45.0,4.0,8.0,5.0,14.0,20.0,15.0,1650824237991901.0
-55.0,-19.0,31.0,11.0,11.0,2.0,-6.0,4.0,1650824237991901.0
21.0,-18.0,-59.0,-44.0,-5.0,-1.0,1.0,-8.0,1650824237992899.0
-19.0,-51.0,-29.0,-5.0,-16.0,-1.0,12.0,20.0,1650824237992899.0
4.0,-8.0,10.0,-1.0,0.0,-8.0,-13.0,-17.0,1650824238004866.0
-21.0,-6.0,1.0,11.0,9.0,11.0,-1.0,2.0,1650824238004866.0
29.0,62.0,21.0,13.0,1.0,-6.0,-22.0,-2.0,1650824238013843.0
6.0,-4.0,6.0,11.0,24.0,15.0,28.0,20.0,1650824238013843.0
-22.0,49.0,42.0,-19.0,-18.0,-4.0,-24.0,4.0,1650824238028862.0
37.0,-12.0,-7.0,-1.0,-9.0,-12.0,-29.0,-50.0,1650824238028862.0
-71.0,-50.0,-30.0,1.0,-3.0,-2.0,30.0,-34.0,1650824238030825.0
15.0,55.0,29.0,3.0,-3.0,-8.0,-50.0,-17.0,1650824238030825.0
1.0,41.0,16.0,5.0,0.0,-4.0,-6.0,-18.0,1650824238051876.0
-35.0,-48.0,-39.0,-20.0,-4.0,-1.0,36.0,39.0,1650824238051876.0
-9.0,-29.0,-14.0,5.0,-2.0,-5.0,-53.0,-29.0,1650824238052836.0
10.0,41.0,28.0,13.0,3.0,-2.0,38.0,7.0,1650824238052836.0
-34.0,-56.0,5.0,-7.0,4.0,11.0,2.0,-7.0,1650824238064823.0
72.0,75.0,13.0,2.0,-6.0,5.0,15.0,53.0,1650824238064823.0
23.0,-36.0,-48.0,9.0,-5.0,0.0,11.0,-7.0,1650824238074052.0
-13.0,19.0,29.0,-2.0,7.0,2.0,13.0,1.0,1650824238074052.0
-3.0,-35.0,-19.0,-35.0,-8.0,-8.0,-1.0,3.0,1650824238089169.0
23.0,61.0,8.0,-3.0,-7.0,-8.0,-26.0,-12.0,1650824238089169.0
-20.0,29.0,27.0,17.0,5.0,5.0,20.0,-5.0,1650824238090099.0
46.0,-28.0,1.0,7.0,4.0,9.0,9.0,62.0,1650824238090099.0
11.0,2.0,-1.0,6.0,0.0,-6.0,-26.0,-9.0,1650824238111629.0
-52.0,-14.0,0.0,0.0,-2.0,1.0,13.0,-32.0,1650824238111629.0
65.0,52.0,19.0,-5.0,-10.0,-4.0,0.0,-39.0,1650824238112585.0
6.0,16.0,-17.0,1.0,1.0,-9.0,-6.0,-41.0,1650824238112585.0
-65.0,-16.0,25.0,-1.0,-6.0,-10.0,9.0,-40.0,1650824238125579.0
17.0,7.0,-5.0,1.0,-3.0,-1.0,-7.0,81.0,1650824238125579.0
-10.0,-17.0,-8.0,0.0,0.0,-5.0,-29.0,35.0,1650824238133739.0
-42.0,-43.0,-2.0,-10.0,0.0,7.0,-14.0,-23.0,1650824238133739.0
-3.0,-4.0,-5.0,5.0,3.0,-8.0,9.0,-18.0,1650824238149480.0
33.0,40.0,-10.0,3.0,-4.0,3.0,23.0,29.0,1650824238149480.0
-53.0,-17.0,-3.0,-11.0,8.0,14.0,27.0,8.0,1650824238150464.0
10.0,1.0,-3.0,-4.0,-10.0,-12.0,1.0,23.0,1650824238150464.0
-17.0,-5.0,12.0,11.0,-1.0,1.0,-42.0,-21.0,1650824238171595.0
10.0,-41.0,-6.0,-16.0,-8.0,-11.0,4.0,1.0,1650824238171595.0
57.0,20.0,-3.0,-8.0,-5.0,-7.0,-2.0,28.0,1650824238173551.0
12.0,5.0,-20.0,4.0,4.0,5.0,15.0,-7.0,1650824238173551.0
-50.0,-60.0,-41.0,-23.0,-2.0,3.0,32.0,41.0,1650824238185603.0
-19.0,-5.0,-30.0,-3.0,1.0,3.0,-24.0,-31.0,1650824238185603.0
34.0,30.0,35.0,8.0,-7.0,-16.0,-9.0,-31.0,1650824238193581.0
-60.0,-69.0,-32.0,-11.0,-6.0,-3.0,-52.0,-17.0,1650824238193581.0
-3.0,-33.0,-10.0,-3.0,-8.0,-10.0,-10.0,27.0,1650824238208467.0
32.0,-12.0,6.0,1.0,10.0,20.0,61.0,32.0,1650824238208467.0
-44.0,-36.0,-5.0,0.0,0.0,-7.0,-43.0,-38.0,1650824238210400.0
45.0,58.0,12.0,7.0,1.0,-5.0,7.0,23.0,1650824238210400.0
33.0,67.0,22.0,16.0,12.0,16.0,-18.0,15.0,1650824238231683.0
-48.0,-49.0,-10.0,-3.0,-10.0,-13.0,-27.0,-27.0,1650824238231683.0
15.0,41.0,17.0,8.0,1.0,9.0,15.0,18.0,1650824238232662.0
15.0,9.0,21.0,1.0,0.0,-5.0,-3.0,-80.0,1650824238232662.0
-15.0,-20.0,-48.0,-31.0,-3.0,2.0,1.0,-44.0,1650824238253827.0
-23.0,-5.0,23.0,7.0,5.0,2.0,-10.0,-27.0,1650824238253827.0
47.0,-6.0,20.0,-1.0,1.0,3.0,20.0,27.0,1650824238255822.0
-36.0,-16.0,-32.0,12.0,-8.0,-6.0,-15.0,12.0,1650824238255822.0
23.0,30.0,-10.0,-2.0,1.0,1.0,30.0,13.0,1650824238268823.0
15.0,40.0,44.0,21.0,11.0,4.0,-35.0,-45.0,1650824238268823.0
-26.0,-96.0,-66.0,-8.0,-1.0,0.0,-22.0,-9.0,1650824238270772.0
26.0,53.0,49.0,3.0,4.0,6.0,6.0,-25.0,1650824238270772.0
-9.0,6.0,21.0,13.0,2.0,1.0,5.0,-6.0,1650824238292357.0
21.0,12.0,7.0,0.0,1.0,0.0,3.0,58.0,1650824238292357.0
-32.0,7.0,3.0,5.0,5.0,8.0,-14.0,-75.0,1650824238293357.0
-9.0,24.0,-14.0,-10.0,0.0,-2.0,-9.0,30.0,1650824238293357.0
27.0,20.0,2.0,4.0,-5.0,-1.0,8.0,-6.0,1650824238314001.0
-28.0,-8.0,-6.0,-5.0,-6.0,-8.0,2.0,-70.0,1650824238314001.0
34.0,75.0,42.0,14.0,11.0,5.0,2.0,46.0,1650824238315963.0
27.0,28.0,-7.0,1.0,6.0,11.0,30.0,5.0,1650824238315963.0
-19.0,-61.0,23.0,20.0,10.0,10.0,14.0,25.0,1650824238328960.0
-23.0,-31.0,-46.0,-19.0,-11.0,-13.0,-7.0,4.0,1650824238328960.0
6.0,16.0,-9.0,0.0,-11.0,-2.0,23.0,6.0,1650824238330915.0
21.0,59.0,88.0,13.0,1.0,-2.0,12.0,33.0,1650824238330915.0
-5.0,42.0,-22.0,-13.0,-10.0,-11.0,-21.0,-26.0,1650824238351917.0
-2.0,-42.0,-18.0,3.0,5.0,14.0,8.0,29.0,1650824238351917.0
-22.0,-74.0,-19.0,6.0,10.0,4.0,11.0,-29.0,1650824238352920.0
2.0,0.0,-17.0,-13.0,-12.0,-11.0,-8.0,44.0,1650824238352920.0
43.0,20.0,28.0,19.0,3.0,1.0,24.0,39.0,1650824238374455.0
-38.0,-29.0,-13.0,-22.0,-12.0,-11.0,-27.0,-51.0,1650824238374455.0
-21.0,21.0,-13.0,-5.0,-3.0,-8.0,-11.0,58.0,1650824238375455.0
-6.0,-16.0,7.0,-12.0,-6.0,7.0,41.0,2.0,1650824238375455.0
15.0,-10.0,-16.0,-3.0,-4.0,-4.0,-37.0,15.0,1650824238388420.0
-29.0,-51.0,-19.0,-2.0,-3.0,-7.0,62.0,29.0,1650824238388420.0
-14.0,15.0,22.0,3.0,4.0,-4.0,0.0,1.0,1650824238395408.0
-30.0,-49.0,-20.0,-6.0,0.0,0.0,-12.0,-24.0,1650824238395408.0
5.0,37.0,4.0,-2.0,-4.0,1.0,39.0,6.0,1650824238411426.0
35.0,23.0,3.0,11.0,-1.0,4.0,-38.0,17.0,1650824238411426.0
16.0,38.0,-5.0,-12.0,10.0,14.0,19.0,6.0,1650824238413373.0
-30.0,-36.0,9.0,4.0,0.0,2.0,3.0,-3.0,1650824238413373.0
-1.0,11.0,20.0,7.0,15.0,8.0,-1.0,-15.0,1650824238433512.0
10.0,-73.0,-63.0,-10.0,0.0,0.0,2.0,37.0,1650824238433512.0
2.0,6.0,-21.0,-21.0,-11.0,-10.0,-5.0,4.0,1650824238435510.0
26.0,11.0,-22.0,6.0,-2.0,0.0,-22.0,0.0,1650824238435510.0
9.0,11.0,15.0,-4.0,-7.0,2.0,15.0,-8.0,1650824238448475.0
25.0,28.0,18.0,5.0,-3.0,-7.0,-62.0,-9.0,1650824238448475.0
-45.0,-57.0,0.0,4.0,0.0,-1.0,-14.0,-42.0,1650824238455457.0
5.0,33.0,-13.0,-14.0,-6.0,-8.0,-25.0,-8.0,1650824238455457.0
-6.0,-33.0,5.0,-2.0,-5.0,-7.0,4.0,-20.0,1650824238471426.0
18.0,44.0,28.0,4.0,2.0,2.0,11.0,20.0,1650824238471426.0
31.0,-33.0,-15.0,10.0,9.0,9.0,-3.0,17.0,1650824238473435.0
36.0,36.0,0.0,-7.0,1.0,5.0,29.0,-15.0,1650824238473435.0
-7.0,-45.0,-24.0,-8.0,-4.0,-19.0,-71.0,-3.0,1650824238494542.0
9.0,51.0,49.0,5.0,1.0,-5.0,-2.0,-20.0,1650824238494542.0
26.0,9.0,-13.0,12.0,6.0,14.0,53.0,40.0,1650824238496453.0
-51.0,-71.0,-22.0,-1.0,-1.0,-11.0,-14.0,-18.0,1650824238496453.0
-16.0,4.0,18.0,14.0,-4.0,-3.0,-11.0,-18.0,1650824238508486.0
4.0,33.0,2.0,-16.0,6.0,11.0,13.0,-3.0,1650824238508486.0
32.0,45.0,5.0,5.0,1.0,-2.0,-17.0,-10.0,1650824238515521.0
3.0,-40.0,33.0,4.0,-6.0,-2.0,18.0,47.0,1650824238515521.0
-28.0,-23.0,0.0,0.0,-1.0,4.0,-2.0,-4.0,1650824238531623.0
-18.0,-20.0,-1.0,2.0,7.0,0.0,-11.0,0.0,1650824238531623.0
-10.0,-45.0,20.0,0.0,-5.0,3.0,40.0,42.0,1650824238532554.0
39.0,46.0,-4.0,7.0,10.0,5.0,-3.0,-6.0,1650824238532554.0
16.0,3.0,4.0,3.0,0.0,-1.0,-1.0,12.0,1650824238553527.0
-15.0,-57.0,-43.0,-12.0,-6.0,-8.0,29.0,-20.0,1650824238553527.0
-74.0,27.0,4.0,-9.0,-6.0,-3.0,-31.0,-20.0,1650824238555496.0
-28.0,-14.0,-16.0,-6.0,-6.0,-12.0,-30.0,-34.0,1650824238555496.0
0.0,-46.0,-29.0,-10.0,-2.0,-6.0,-11.0,-3.0,1650824238568485.0
62.0,73.0,38.0,8.0,1.0,10.0,52.0,43.0,1650824238568485.0
-21.0,-15.0,-32.0,-11.0,-7.0,-10.0,-39.0,-43.0,1650824238575499.0
-6.0,1.0,4.0,2.0,1.0,11.0,26.0,13.0,1650824238575499.0
13.0,40.0,-7.0,-7.0,-7.0,1.0,36.0,26.0,1650824238591526.0
12.0,15.0,53.0,21.0,9.0,-6.0,-45.0,-23.0,1650824238591526.0
24.0,-7.0,19.0,18.0,-4.0,-1.0,19.0,10.0,1650824238593462.0
34.0,9.0,-9.0,-16.0,4.0,4.0,7.0,3.0,1650824238593462.0
-9.0,-61.0,-54.0,-32.0,-12.0,3.0,4.0,5.0,1650824238614410.0
-7.0,45.0,26.0,6.0,-4.0,2.0,5.0,26.0,1650824238614410.0
8.0,22.0,11.0,2.0,-10.0,-8.0,-9.0,-20.0,1650824238615395.0
31.0,-12.0,-2.0,22.0,19.0,23.0,52.0,41.0,1650824238615395.0
-43.0,-23.0,-28.0,-26.0,0.0,-12.0,-22.0,-47.0,1650824238628359.0
-50.0,-72.0,-24.0,-12.0,-11.0,-16.0,-36.0,-64.0,1650824238628359.0
38.0,48.0,19.0,3.0,-5.0,-6.0,-58.0,10.0,1650824238635341.0
-63.0,11.0,19.0,4.0,-5.0,-10.0,-28.0,-10.0,1650824238635341.0
31.0,73.0,23.0,21.0,8.0,14.0,38.0,3.0,1650824238651494.0
-21.0,-62.0,18.0,7.0,5.0,2.0,-65.0,-8.0,1650824238651494.0
-11.0,-33.0,-46.0,-23.0,-2.0,2.0,17.0,11.0,1650824238652465.0
25.0,-36.0,-23.0,8.0,-1.0,-22.0,-39.0,-58.0,1650824238652465.0
7.0,12.0,44.0,10.0,14.0,13.0,-5.0,-1.0,1650824238674396.0
-80.0,14.0,8.0,8.0,-15.0,3.0,30.0,-15.0,1650824238674396.0
46.0,42.0,18.0,19.0,18.0,9.0,15.0,10.0,1650824238675401.0
8.0,-6.0,-31.0,-23.0,13.0,1.0,-1.0,27.0,1650824238675401.0
11.0,-13.0,-40.0,-33.0,22.0,23.0,7.0,8.0,1650824238688362.0
-51.0,-69.0,-34.0,-30.0,-20.0,-12.0,-8.0,-20.0,1650824238688362.0
-58.0,-71.0,-16.0,-20.0,-17.0,-13.0,4.0,-3.0,1650824238695371.0
28.0,32.0,42.0,31.0,-7.0,9.0,82.0,39.0,1650824238695371.0
-34.0,46.0,30.0,38.0,2.0,-4.0,-66.0,-71.0,1650824238711327.0
19.0,23.0,-4.0,4.0,12.0,7.0,22.0,-1.0,1650824238711327.0
33.0,-15.0,-11.0,8.0,4.0,-18.0,-87.0,-58.0,1650824238713315.0
6.0,-4.0,-12.0,-2.0,-5.0,-5.0,-8.0,-27.0,1650824238713315.0
49.0,18.0,1.0,1.0,-3.0,-3.0,13.0,18.0,1650824238733921.0
-23.0,-36.0,-50.0,-15.0,-3.0,6.0,92.0,77.0,1650824238733921.0
-3.0,79.0,34.0,-1.0,-4.0,-19.0,-48.0,-44.0,1650824238735904.0
-38.0,-31.0,-75.0,-30.0,-13.0,0.0,-6.0,5.0,1650824238735904.0
3.0,-21.0,-10.0,-1.0,-6.0,-1.0,25.0,37.0,1650824238747851.0
17.0,73.0,46.0,42.0,5.0,6.0,2.0,-5.0,1650824238747851.0
63.0,-1.0,-23.0,-21.0,6.0,11.0,49.0,36.0,1650824238763808.0
-14.0,13.0,-4.0,-25.0,-5.0,-3.0,-18.0,4.0,1650824238763808.0
-13.0,-9.0,-1.0,12.0,-5.0,-4.0,13.0,26.0,1650824238771787.0
54.0,-23.0,5.0,-5.0,5.0,-5.0,-10.0,-1.0,1650824238771787.0
-49.0,-32.0,2.0,16.0,-1.0,4.0,-8.0,-74.0,1650824238772793.0
-19.0,35.0,19.0,-6.0,-8.0,-2.0,-22.0,24.0,1650824238772793.0
5.0,-23.0,-36.0,-22.0,-13.0,-13.0,22.0,-32.0,1650824238793793.0
-22.0,53.0,-13.0,5.0,-1.0,-5.0,8.0,1.0,1650824238793793.0
39.0,16.0,17.0,3.0,2.0,14.0,10.0,57.0,1650824238795750.0
-43.0,-80.0,1.0,3.0,2.0,-9.0,-8.0,-23.0,1650824238795750.0
40.0,32.0,35.0,22.0,9.0,3.0,5.0,16.0,1650824238807759.0
17.0,19.0,-1.0,-8.0,0.0,-6.0,-27.0,-1.0,1650824238807759.0
16.0,39.0,-11.0,-13.0,-8.0,-4.0,67.0,-5.0,1650824238816667.0
-12.0,-65.0,0.0,7.0,8.0,3.0,-50.0,-9.0,1650824238816667.0
-23.0,-2.0,17.0,2.0,-8.0,3.0,-13.0,8.0,1650824238831661.0
8.0,18.0,5.0,4.0,2.0,5.0,-7.0,-25.0,1650824238831661.0
-10.0,8.0,6.0,-1.0,-16.0,-10.0,9.0,31.0,1650824238832633.0
30.0,34.0,9.0,1.0,20.0,11.0,14.0,16.0,1650824238832633.0
-13.0,-1.0,-10.0,-1.0,9.0,5.0,19.0,-20.0,1650824238853665.0
8.0,-13.0,-16.0,-5.0,1.0,-9.0,-24.0,19.0,1650824238853665.0
-10.0,-2.0,16.0,9.0,-6.0,-3.0,-1.0,-45.0,1650824238855626.0
7.0,10.0,1.0,-3.0,-14.0,-5.0,15.0,-3.0,1650824238855626.0
-18.0,-10.0,4.0,10.0,10.0,0.0,-51.0,-4.0,1650824238867621.0
24.0,21.0,6.0,-4.0,1.0,-1.0,5.0,10.0,1650824238867621.0
-14.0,-14.0,-3.0,-5.0,6.0,11.0,47.0,39.0,1650824238876570.0
8.0,14.0,-11.0,6.0,3.0,-3.0,-31.0,-37.0,1650824238876570.0
0.0,12.0,18.0,7.0,-3.0,-4.0,1.0,8.0,1650824238891568.0
12.0,2.0,1.0,-4.0,-9.0,0.0,-3.0,-5.0,1650824238891568.0
-20.0,-10.0,-5.0,-8.0,-1.0,-2.0,-7.0,8.0,1650824238892560.0
13.0,9.0,10.0,6.0,-1.0,5.0,21.0,3.0,1650824238892560.0
9.0,8.0,21.0,17.0,-3.0,-5.0,-12.0,3.0,1650824238912908.0
-2.0,-9.0,-14.0,-12.0,-1.0,2.0,-18.0,-6.0,1650824238912908.0
-4.0,-16.0,-32.0,-24.0,2.0,2.0,2.0,17.0,1650824238921863.0
3.0,14.0,13.0,-2.0,-3.0,0.0,7.0,1.0,1650824238921863.0
1.0,-12.0,-5.0,2.0,-6.0,-5.0,-7.0,24.0,1650824238927915.0
-2.0,2.0,9.0,20.0,11.0,5.0,11.0,9.0,1650824238927915.0
1.0,15.0,7.0,-10.0,4.0,0.0,-2.0,5.0,1650824238936912.0
-4.0,1.0,-5.0,-3.0,-6.0,-3.0,-4.0,0.0,1650824238936912.0
-20.0,-12.0,-33.0,-30.0,-10.0,-5.0,-1.0,-1.0,1650824238951821.0
21.0,-6.0,5.0,-6.0,0.0,-3.0,-4.0,-12.0,1650824238951821.0
7.0,-3.0,-17.0,-13.0,-2.0,-1.0,-3.0,0.0,1650824238952750.0
14.0,15.0,16.0,16.0,6.0,2.0,7.0,29.0,1650824238952750.0
0.0,0.0,5.0,-3.0,-2.0,-2.0,-1.0,-12.0,1650824238973694.0
-4.0,-2.0,1.0,-1.0,-6.0,-2.0,1.0,-7.0,1650824238973694.0
-2.0,-4.0,19.0,17.0,7.0,6.0,-2.0,14.0,1650824238975718.0
-10.0,-1.0,-12.0,6.0,1.0,0.0,1.0,-19.0,1650824238975718.0
1.0,-1.0,-7.0,-8.0,-1.0,-1.0,-2.0,-5.0,1650824238987723.0
17.0,7.0,1.0,3.0,21.0,9.0,1.0,-1.0,1650824238987723.0
-24.0,-11.0,-2.0,-14.0,-18.0,-5.0,-1.0,2.0,1650824238996632.0
-27.0,5.0,15.0,1.0,0.0,-3.0,0.0,0.0,1650824238996632.0
-7.0,-10.0,-40.0,-9.0,-11.0,-11.0,-5.0,-3.0,1650824239011591.0
-1.0,-5.0,-9.0,-22.0,-5.0,-2.0,-3.0,-5.0,1650824239011591.0
4.0,0.0,15.0,27.0,11.0,2.0,0.0,1.0,1650824239012605.0
11.0,2.0,-17.0,-27.0,-7.0,-1.0,1.0,2.0,1650824239012605.0
-3.0,-3.0,5.0,6.0,-3.0,-3.0,-3.0,-9.0,1650824239041579.0
-8.0,5.0,3.0,11.0,18.0,13.0,7.0,4.0,1650824239041579.0
-1.0,-5.0,-8.0,4.0,4.0,2.0,-1.0,-3.0,1650824239042536.0
0.0,2.0,7.0,0.0,-7.0,-8.0,-4.0,0.0,1650824239042536.0
-1.0,1.0,10.0,-5.0,-8.0,-4.0,-2.0,0.0,1650824239047523.0
-7.0,-7.0,-10.0,-13.0,-18.0,-8.0,-7.0,-8.0,1650824239047523.0
-2.0,2.0,16.0,7.0,3.0,2.0,0.0,-1.0,1650824239056483.0
14.0,-1.0,-10.0,2.0,3.0,-2.0,-1.0,4.0,1650824239056483.0
-13.0,1.0,7.0,-1.0,-2.0,-1.0,2.0,-4.0,1650824239071461.0
-3.0,2.0,7.0,6.0,0.0,-4.0,1.0,-2.0,1650824239071461.0
-2.0,-5.0,-3.0,-1.0,-3.0,-2.0,-6.0,-3.0,1650824239073427.0
6.0,26.0,20.0,8.0,10.0,4.0,5.0,8.0,1650824239073427.0
8.0,-6.0,5.0,4.0,7.0,3.0,-1.0,1.0,1650824239094452.0
-4.0,7.0,-7.0,-9.0,-9.0,-7.0,-2.0,-3.0,1650824239094452.0
-10.0,1.0,2.0,3.0,-2.0,-4.0,-1.0,-3.0,1650824239095443.0
3.0,7.0,18.0,5.0,3.0,6.0,3.0,2.0,1650824239095443.0
4.0,9.0,15.0,18.0,16.0,10.0,8.0,0.0,1650824239107583.0
1.0,-3.0,-16.0,-12.0,-8.0,-3.0,-4.0,2.0,1650824239107583.0
3.0,1.0,-1.0,-14.0,-5.0,-5.0,-2.0,-3.0,1650824239116495.0
4.0,-7.0,6.0,12.0,-3.0,-3.0,-1.0,1.0,1650824239116495.0
-5.0,-8.0,-32.0,-34.0,-7.0,-5.0,-6.0,-8.0,1650824239131665.0
-1.0,1.0,-2.0,5.0,0.0,0.0,-1.0,1.0,1650824239131665.0
-1.0,-3.0,-1.0,5.0,1.0,-1.0,1.0,-1.0,1650824239132625.0
1.0,2.0,-4.0,-1.0,1.0,2.0,0.0,1.0,1650824239132625.0
-3.0,-10.0,2.0,11.0,5.0,3.0,4.0,2.0,1650824239152545.0
-6.0,-9.0,6.0,3.0,-3.0,-2.0,-5.0,-10.0,1650824239152545.0
8.0,-9.0,-4.0,-3.0,-1.0,-4.0,0.0,-2.0,1650824239161521.0
-11.0,-8.0,-15.0,-6.0,-7.0,-4.0,-4.0,-3.0,1650824239161521.0
9.0,14.0,12.0,5.0,1.0,2.0,0.0,0.0,1650824239176674.0
-5.0,-21.0,-28.0,-9.0,2.0,2.0,0.0,1.0,1650824239176674.0
1.0,-6.0,0.0,10.0,-7.0,-3.0,-1.0,1.0,1650824239177631.0
1.0,-2.0,3.0,-7.0,-5.0,-2.0,-1.0,-3.0,1650824239177631.0
2.0,5.0,5.0,-2.0,1.0,5.0,2.0,3.0,1650824239199549.0
-1.0,-3.0,1.0,6.0,6.0,-1.0,0.0,3.0,1650824239199549.0
-4.0,9.0,4.0,-1.0,3.0,-2.0,-5.0,-2.0,1650824239200547.0
-2.0,-7.0,-20.0,-9.0,-5.0,-1.0,-1.0,-3.0,1650824239200547.0
-1.0,5.0,3.0,0.0,-9.0,-4.0,-1.0,0.0,1650824239213535.0
0.0,6.0,17.0,11.0,7.0,3.0,0.0,0.0,1650824239213535.0
3.0,3.0,-5.0,5.0,7.0,7.0,5.0,2.0,1650824239215507.0
6.0,32.0,-15.0,-16.0,-2.0,-3.0,-1.0,3.0,1650824239215507.0
-13.0,-24.0,24.0,3.0,-3.0,-1.0,-1.0,-7.0,1650824239236477.0
2.0,8.0,4.0,-2.0,-5.0,-3.0,1.0,0.0,1650824239236477.0
-4.0,-17.0,-21.0,-2.0,5.0,3.0,-1.0,-1.0,1650824239238452.0
3.0,4.0,8.0,4.0,1.0,3.0,1.0,1.0,1650824239238452.0
7.0,10.0,-8.0,0.0,-5.0,-10.0,-3.0,2.0,1650824239251949.0
0.0,-7.0,-6.0,-6.0,-3.0,1.0,0.0,1.0,1650824239251949.0
-4.0,13.0,6.0,0.0,1.0,0.0,0.0,-2.0,1650824239252957.0
-2.0,-11.0,2.0,7.0,8.0,2.0,3.0,-2.0,1650824239252957.0
2.0,4.0,-3.0,-3.0,-3.0,1.0,-1.0,-3.0,1650824239273903.0
-4.0,-9.0,2.0,0.0,-6.0,-6.0,-4.0,-1.0,1650824239273903.0
2.0,-1.0,1.0,-3.0,-5.0,-2.0,-4.0,1.0,1650824239275914.0
-1.0,-12.0,-5.0,-1.0,-2.0,-2.0,-2.0,-2.0,1650824239275914.0
1.0,7.0,5.0,2.0,2.0,0.0,0.0,1.0,1650824239295984.0
-1.0,9.0,1.0,3.0,0.0,4.0,1.0,-2.0,1650824239295984.0
0.0,3.0,8.0,2.0,3.0,3.0,0.0,0.0,1650824239297922.0
-3.0,-9.0,-2.0,0.0,-2.0,-2.0,-3.0,-3.0,1650824239297922.0
3.0,3.0,2.0,8.0,4.0,10.0,3.0,2.0,1650824239318881.0
-1.0,-7.0,-19.0,-9.0,1.0,-10.0,-1.0,0.0,1650824239318881.0
-2.0,-8.0,-4.0,-17.0,-12.0,-14.0,-6.0,-4.0,1650824239320877.0
1.0,-3.0,-1.0,5.0,-9.0,-8.0,0.0,1.0,1650824239320877.0
-3.0,2.0,-8.0,-7.0,8.0,5.0,2.0,-1.0,1650824239333815.0
1.0,6.0,5.0,5.0,1.0,5.0,3.0,-1.0,1650824239333815.0
0.0,-3.0,8.0,5.0,0.0,1.0,0.0,1.0,1650824239335830.0
-5.0,-3.0,5.0,-3.0,-6.0,-5.0,-4.0,-1.0,1650824239335830.0
3.0,6.0,-9.0,6.0,4.0,2.0,2.0,3.0,1650824239356876.0
-2.0,7.0,13.0,2.0,-3.0,-1.0,-1.0,-1.0,1650824239356876.0
-1.0,-1.0,-1.0,-6.0,-4.0,-3.0,0.0,-1.0,1650824239357875.0
-2.0,-4.0,-5.0,-1.0,1.0,2.0,-4.0,-2.0,1650824239357875.0
0.0,-5.0,-8.0,-3.0,-8.0,-5.0,1.0,0.0,1650824239370906.0
-1.0,-3.0,0.0,3.0,5.0,5.0,3.0,-1.0,1650824239370906.0
2.0,6.0,0.0,7.0,6.0,2.0,1.0,0.0,1650824239377850.0
1.0,2.0,0.0,-1.0,1.0,-1.0,-3.0,-2.0,1650824239377850.0
0.0,-7.0,-1.0,-4.0,-3.0,-4.0,-2.0,-2.0,1650824239393777.0
1.0,1.0,-1.0,3.0,-3.0,-1.0,0.0,1.0,1650824239393777.0
-2.0,9.0,29.0,3.0,-3.0,2.0,0.0,1.0,1650824239395772.0
0.0,0.0,-6.0,-1.0,0.0,2.0,2.0,0.0,1650824239395772.0
-4.0,-5.0,-4.0,-10.0,-7.0,-7.0,-2.0,-3.0,1650824239416743.0
-2.0,-2.0,1.0,9.0,-3.0,-4.0,-3.0,-1.0,1650824239416743.0
-1.0,2.0,11.0,-7.0,10.0,7.0,3.0,0.0,1650824239417713.0
-2.0,3.0,-1.0,-1.0,-1.0,0.0,0.0,-1.0,1650824239417713.0
1.0,8.0,6.0,0.0,-4.0,-2.0,-3.0,-1.0,1650824239430708.0
1.0,-10.0,-3.0,0.0,0.0,-1.0,0.0,0.0,1650824239430708.0
-2.0,3.0,-10.0,7.0,0.0,-2.0,-1.0,-2.0,1650824239437661.0
-1.0,5.0,13.0,2.0,-2.0,1.0,2.0,-1.0,1650824239437661.0
2.0,0.0,-5.0,0.0,-1.0,0.0,-1.0,2.0,1650824239454404.0
-1.0,-4.0,-5.0,-7.0,-2.0,2.0,-3.0,-3.0,1650824239454404.0
-2.0,-13.0,-22.0,-2.0,6.0,2.0,-2.0,-1.0,1650824239455190.0
-1.0,-3.0,-6.0,1.0,-7.0,-2.0,6.0,0.0,1650824239455190.0
-2.0,0.0,-2.0,0.0,3.0,1.0,1.0,0.0,1650824239476603.0
3.0,2.0,-2.0,-2.0,-3.0,-3.0,-2.0,1.0,1650824239476603.0
-2.0,-8.0,-2.0,0.0,-5.0,-2.0,0.0,-1.0,1650824239477560.0
0.0,2.0,0.0,11.0,7.0,-2.0,0.0,0.0,1650824239477560.0
-2.0,-10.0,-9.0,-18.0,0.0,1.0,0.0,1.0,1650824239490500.0
-2.0,1.0,9.0,2.0,0.0,1.0,0.0,-1.0,1650824239490500.0
0.0,2.0,6.0,3.0,-5.0,-4.0,-1.0,-2.0,1650824239497548.0
-3.0,-5.0,-7.0,-6.0,-2.0,-1.0,-2.0,-3.0,1650824239497548.0
2.0,5.0,3.0,8.0,2.0,1.0,0.0,-2.0,1650824239513751.0
2.0,1.0,-12.0,-6.0,0.0,-4.0,-1.0,0.0,1650824239513751.0
1.0,-6.0,-6.0,1.0,-3.0,-1.0,-3.0,1.0,1650824239515708.0
-2.0,-3.0,7.0,3.0,2.0,4.0,2.0,1.0,1650824239515708.0
-4.0,-5.0,8.0,1.0,-3.0,-6.0,-3.0,-2.0,1650824239536732.0
-4.0,1.0,-9.0,-11.0,-4.0,0.0,1.0,0.0,1650824239536732.0
5.0,0.0,-15.0,3.0,0.0,-2.0,2.0,2.0,1650824239537661.0
0.0,6.0,18.0,-2.0,0.0,1.0,-3.0,-2.0,1650824239537661.0
1.0,3.0,-2.0,7.0,6.0,4.0,0.0,1.0,1650824239551170.0
2.0,5.0,3.0,2.0,2.0,0.0,-2.0,1.0,1650824239551170.0
-2.0,-3.0,0.0,3.0,-6.0,-6.0,-2.0,-2.0,1650824239558124.0
-1.0,-7.0,-14.0,-5.0,-3.0,-1.0,-2.0,-1.0,1650824239558124.0
2.0,7.0,2.0,-5.0,-3.0,-1.0,0.0,0.0,1650824239574134.0
-1.0,-3.0,-4.0,1.0,2.0,3.0,0.0,-1.0,1650824239574134.0
-1.0,4.0,4.0,-6.0,-3.0,-1.0,0.0,-2.0,1650824239575071.0
0.0,-4.0,1.0,5.0,4.0,2.0,0.0,0.0,1650824239575071.0
0.0,-3.0,2.0,5.0,5.0,2.0,2.0,0.0,1650824239597172.0
1.0,-2.0,2.0,0.0,-2.0,-2.0,-1.0,0.0,1650824239597172.0
0.0,2.0,-1.0,1.0,0.0,-2.0,-1.0,-1.0,1650824239598107.0
-4.0,-8.0,-9.0,-11.0,-3.0,10.0,0.0,-3.0,1650824239598107.0
0.0,0.0,3.0,2.0,0.0,-13.0,1.0,2.0,1650824239611135.0
-1.0,1.0,-1.0,-7.0,-3.0,-3.0,0.0,0.0,1650824239611135.0
0.0,2.0,2.0,5.0,0.0,-2.0,-2.0,0.0,1650824239617057.0
1.0,4.0,3.0,-2.0,-2.0,-1.0,-2.0,-1.0,1650824239617057.0
-2.0,3.0,-7.0,-8.0,4.0,8.0,-2.0,-2.0,1650824239634012.0
-3.0,-8.0,-5.0,4.0,-3.0,-5.0,0.0,-3.0,1650824239634012.0
-1.0,2.0,6.0,-4.0,-1.0,1.0,-2.0,1.0,1650824239635009.0
-6.0,-32.0,-22.0,-7.0,-4.0,-5.0,-3.0,-4.0,1650824239635009.0
1.0,3.0,-2.0,3.0,2.0,7.0,2.0,0.0,1650824239656218.0
2.0,7.0,8.0,2.0,3.0,0.0,2.0,1.0,1650824239656218.0
-2.0,-5.0,2.0,1.0,1.0,-1.0,0.0,-1.0,1650824239658196.0
3.0,9.0,-1.0,-6.0,7.0,0.0,0.0,1.0,1650824239658196.0
-4.0,-20.0,-7.0,-2.0,-12.0,-4.0,-4.0,-4.0,1650824239670174.0
0.0,-1.0,1.0,8.0,0.0,-6.0,2.0,1.0,1650824239670174.0
-1.0,-4.0,-6.0,-8.0,-2.0,2.0,1.0,-1.0,1650824239679140.0
1.0,7.0,5.0,1.0,4.0,-3.0,0.0,2.0,1650824239679140.0
0.0,7.0,14.0,0.0,-3.0,-1.0,-3.0,-2.0,1650824239694396.0
-1.0,-6.0,-8.0,-1.0,0.0,5.0,0.0,0.0,1650824239694396.0
-1.0,0.0,6.0,2.0,-4.0,-2.0,-1.0,-2.0,1650824239695185.0
1.0,4.0,-3.0,-4.0,0.0,-4.0,1.0,3.0,1650824239695185.0
-4.0,-2.0,2.0,2.0,1.0,2.0,-1.0,-1.0,1650824239717196.0
-1.0,-1.0,-4.0,-2.0,6.0,9.0,3.0,-1.0,1650824239717196.0
0.0,-4.0,-6.0,-3.0,1.0,-2.0,1.0,0.0,1650824239718125.0
-1.0,-1.0,6.0,0.0,-10.0,-2.0,-3.0,-3.0,1650824239718125.0
4.0,5.0,-2.0,-2.0,-5.0,-8.0,-1.0,1.0,1650824239730496.0
-1.0,1.0,1.0,0.0,3.0,2.0,1.0,-1.0,1650824239730496.0
1.0,6.0,7.0,4.0,-2.0,0.0,2.0,0.0,1650824239738835.0
3.0,5.0,6.0,-1.0,1.0,-2.0,2.0,0.0,1650824239738835.0
-3.0,-6.0,-5.0,-2.0,-6.0,-9.0,-5.0,-3.0,1650824239753883.0
-1.0,12.0,23.0,2.0,-4.0,-4.0,-1.0,-1.0,1650824239753883.0
1.0,10.0,3.0,1.0,4.0,5.0,0.0,2.0,1650824239755841.0
-5.0,-33.0,-19.0,-5.0,-3.0,-2.0,-2.0,-3.0,1650824239755841.0
1.0,10.0,-2.0,-2.0,-3.0,-2.0,0.0,0.0,1650824239776829.0
0.0,5.0,8.0,0.0,0.0,-3.0,-2.0,0.0,1650824239776829.0
-6.0,-36.0,-16.0,1.0,6.0,3.0,0.0,-3.0,1650824239777771.0
2.0,7.0,-3.0,1.0,4.0,-1.0,1.0,2.0,1650824239777771.0
-1.0,-4.0,0.0,1.0,2.0,5.0,2.0,-2.0,1650824239789754.0
-1.0,-7.0,-10.0,-11.0,-6.0,-3.0,-3.0,-1.0,1650824239789754.0
0.0,7.0,5.0,-3.0,-11.0,-9.0,-3.0,-3.0,1650824239798739.0
-1.0,4.0,2.0,2.0,-7.0,-6.0,-3.0,0.0,1650824239798739.0
-6.0,-12.0,-19.0,-9.0,10.0,7.0,-1.0,-2.0,1650824239814226.0
1.0,7.0,10.0,5.0,6.0,4.0,4.0,2.0,1650824239814226.0
1.0,1.0,-6.0,-2.0,-4.0,1.0,0.0,-1.0,1650824239815790.0
-5.0,-4.0,-12.0,-3.0,5.0,2.0,-2.0,-1.0,1650824239815790.0
4.0,6.0,11.0,4.0,-8.0,-3.0,0.0,2.0,1650824239836777.0
-1.0,-1.0,-1.0,0.0,0.0,-1.0,-2.0,0.0,1650824239836777.0
-1.0,3.0,3.0,0.0,2.0,-1.0,2.0,1.0,1650824239837733.0
1.0,2.0,1.0,-1.0,-1.0,0.0,-1.0,-3.0,1650824239837733.0
3.0,3.0,-5.0,0.0,1.0,-3.0,-1.0,1.0,1650824239850271.0
-2.0,-21.0,-14.0,-2.0,0.0,1.0,-1.0,-3.0,1650824239850271.0
-1.0,2.0,4.0,-3.0,3.0,3.0,-2.0,-2.0,1650824239859183.0
0.0,4.0,7.0,-7.0,-5.0,-3.0,-1.0,-2.0,1650824239859183.0
0.0,5.0,7.0,0.0,-2.0,-2.0,2.0,0.0,1650824239874262.0
2.0,-2.0,-6.0,-2.0,0.0,0.0,1.0,0.0,1650824239874262.0
1.0,-4.0,-16.0,2.0,7.0,1.0,-1.0,0.0,1650824239876285.0
-1.0,1.0,-7.0,-1.0,-4.0,-2.0,-3.0,-2.0,1650824239876285.0
-1.0,-4.0,2.0,1.0,4.0,3.0,0.0,-1.0,1650824239896224.0
-1.0,-2.0,-5.0,-2.0,-3.0,-4.0,-2.0,0.0,1650824239896224.0
0.0,1.0,0.0,-6.0,-5.0,1.0,0.0,1.0,1650824239898198.0
0.0,1.0,2.0,5.0,5.0,5.0,3.0,1.0,1650824239898198.0
-3.0,-7.0,-1.0,0.0,-4.0,-7.0,-3.0,-2.0,1650824239910186.0
0.0,6.0,4.0,1.0,-3.0,-3.0,-3.0,-3.0,1650824239910186.0
0.0,3.0,-2.0,-1.0,0.0,0.0,-1.0,0.0,1650824239919141.0
2.0,0.0,2.0,-2.0,-1.0,-2.0,0.0,1.0,1650824239919141.0
-3.0,2.0,6.0,5.0,-3.0,1.0,1.0,1.0,1650824239934122.0
2.0,5.0,6.0,4.0,5.0,0.0,0.0,3.0,1650824239934122.0
0.0,1.0,0.0,-4.0,-5.0,-2.0,-3.0,0.0,1650824239935120.0
-2.0,2.0,1.0,2.0,3.0,1.0,0.0,0.0,1650824239935120.0
-1.0,-2.0,-2.0,-5.0,3.0,-2.0,-2.0,0.0,1650824239956064.0
0.0,2.0,-1.0,3.0,-5.0,-2.0,-1.0,1.0,1650824239956064.0
-2.0,1.0,3.0,1.0,-3.0,-2.0,-3.0,-2.0,1650824239958039.0
0.0,3.0,-3.0,9.0,-4.0,-3.0,-2.0,1.0,1650824239958039.0
-3.0,6.0,4.0,-4.0,5.0,5.0,1.0,-2.0,1650824239970496.0
-1.0,-4.0,-10.0,-3.0,0.0,1.0,1.0,0.0,1650824239970496.0
-4.0,2.0,-3.0,-1.0,5.0,3.0,1.0,-3.0,1650824239978828.0
1.0,4.0,6.0,4.0,1.0,2.0,0.0,2.0,1650824239978828.0
3.0,0.0,2.0,1.0,-3.0,0.0,0.0,1.0,1650824239994120.0
-3.0,-7.0,1.0,3.0,-3.0,-5.0,-2.0,-1.0,1650824239994120.0
-1.0,-1.0,-1.0,-12.0,0.0,1.0,0.0,1.0,1650824239996123.0
-2.0,-6.0,-4.0,-3.0,0.0,1.0,1.0,-2.0,1650824239996123.0
0.0,1.0,-2.0,0.0,-1.0,-2.0,-2.0,1.0,1650824240016204.0
-3.0,-3.0,-3.0,-6.0,8.0,5.0,-1.0,0.0,1650824240016204.0
-1.0,-2.0,1.0,5.0,-8.0,-3.0,0.0,0.0,1650824240018199.0
0.0,3.0,-1.0,1.0,1.0,-8.0,0.0,0.0,1650824240018199.0
-1.0,-6.0,-5.0,-10.0,-6.0,-2.0,1.0,-1.0,1650824240030498.0
-2.0,4.0,2.0,2.0,3.0,8.0,1.0,0.0,1650824240030498.0
0.0,3.0,14.0,0.0,-2.0,-8.0,-3.0,0.0,1650824240039519.0
-1.0,0.0,2.0,-4.0,-4.0,-3.0,-2.0,1.0,1650824240039519.0
-1.0,4.0,1.0,8.0,5.0,4.0,3.0,-1.0,1650824240053615.0
-1.0,-1.0,-1.0,3.0,0.0,-3.0,-2.0,-2.0,1650824240053615.0
0.0,-3.0,-10.0,-14.0,-3.0,2.0,0.0,0.0,1650824240055583.0
-1.0,-2.0,-4.0,6.0,5.0,5.0,3.0,-2.0,1650824240055583.0
1.0,-9.0,-5.0,-1.0,-3.0,-3.0,-3.0,0.0,1650824240076678.0
-1.0,9.0,17.0,-6.0,-9.0,-3.0,-1.0,0.0,1650824240076678.0
0.0,1.0,3.0,9.0,3.0,0.0,1.0,0.0,1650824240077635.0
0.0,-1.0,-2.0,-7.0,-11.0,-5.0,-1.0,0.0,1650824240077635.0
-3.0,-6.0,-9.0,0.0,4.0,3.0,0.0,0.0,1650824240098729.0
3.0,7.0,4.0,7.0,8.0,3.0,2.0,0.0,1650824240098729.0
2.0,1.0,1.0,0.0,12.0,3.0,1.0,0.0,1650824240100757.0
-1.0,3.0,-7.0,-3.0,-13.0,-4.0,0.0,-1.0,1650824240100757.0
-3.0,-15.0,0.0,-5.0,-7.0,-9.0,-5.0,-5.0,1650824240113692.0
-2.0,-1.0,-5.0,2.0,0.0,0.0,0.0,0.0,1650824240113692.0
0.0,-2.0,3.0,2.0,-1.0,0.0,0.0,0.0,1650824240115713.0
-1.0,2.0,4.0,5.0,9.0,8.0,0.0,-1.0,1650824240115713.0
2.0,5.0,-3.0,-1.0,-5.0,-8.0,-3.0,1.0,1650824240136784.0
-3.0,-4.0,-3.0,-4.0,-5.0,-6.0,-3.0,-2.0,1650824240136784.0
-1.0,0.0,4.0,7.0,2.0,4.0,4.0,1.0,1650824240137717.0
0.0,-4.0,3.0,-1.0,3.0,2.0,1.0,1.0,1650824240137717.0
2.0,4.0,-6.0,0.0,3.0,6.0,1.0,1.0,1650824240159231.0
-2.0,-8.0,0.0,-15.0,-5.0,-2.0,-2.0,-3.0,1650824240159231.0
-2.0,-1.0,-6.0,3.0,-1.0,-1.0,-1.0,0.0,1650824240160200.0
1.0,0.0,4.0,0.0,1.0,1.0,1.0,-1.0,1650824240160200.0
0.0,1.0,1.0,4.0,2.0,-1.0,3.0,2.0,1650824240174124.0
1.0,0.0,-1.0,3.0,-2.0,0.0,-1.0,2.0,1650824240174124.0
1.0,-7.0,-14.0,-7.0,-5.0,0.0,-1.0,0.0,1650824240175121.0
-3.0,2.0,7.0,-3.0,-5.0,-5.0,-5.0,-5.0,1650824240175121.0
1.0,7.0,11.0,8.0,2.0,2.0,2.0,-1.0,1650824240196128.0
-1.0,-1.0,-4.0,6.0,2.0,3.0,3.0,-1.0,1650824240196128.0
0.0,0.0,-8.0,2.0,-3.0,0.0,-1.0,-1.0,1650824240198060.0
-2.0,-12.0,-6.0,-13.0,0.0,-5.0,-4.0,-4.0,1650824240198060.0
-2.0,1.0,0.0,-3.0,2.0,6.0,1.0,-1.0,1650824240219431.0
1.0,0.0,-3.0,-4.0,-8.0,-4.0,-2.0,-1.0,1650824240219431.0
-2.0,0.0,0.0,0.0,-3.0,-5.0,-1.0,-3.0,1650824240220431.0
1.0,4.0,3.0,4.0,4.0,3.0,1.0,1.0,1650824240220431.0
-1.0,-1.0,0.0,-1.0,5.0,2.0,1.0,0.0,1650824240241396.0
1.0,-3.0,-6.0,-4.0,-5.0,-3.0,-3.0,-1.0,1650824240241396.0
-1.0,-1.0,3.0,-2.0,-7.0,-7.0,-6.0,-3.0,1650824240243370.0
-6.0,-3.0,-8.0,-8.0,-9.0,1.0,4.0,-2.0,1650824240243370.0
0.0,1.0,10.0,4.0,8.0,4.0,3.0,1.0,1650824240256403.0
2.0,-1.0,-7.0,1.0,5.0,3.0,3.0,4.0,1650824240256403.0
-1.0,1.0,6.0,-1.0,-1.0,-6.0,-1.0,0.0,1650824240258332.0
0.0,-2.0,-10.0,1.0,5.0,2.0,1.0,1.0,1650824240258332.0
0.0,-3.0,-3.0,-7.0,-3.0,-2.0,-5.0,-4.0,1650824240278963.0
-2.0,0.0,1.0,-3.0,-14.0,1.0,2.0,0.0,1650824240278963.0
-3.0,-2.0,-1.0,-4.0,0.0,-5.0,-3.0,-1.0,1650824240280918.0
0.0,1.0,0.0,6.0,0.0,7.0,-3.0,0.0,1650824240280918.0
-1.0,-2.0,-2.0,-3.0,-3.0,-12.0,-2.0,-3.0,1650824240293738.0
-2.0,-1.0,0.0,-4.0,-8.0,-7.0,-5.0,1.0,1650824240293738.0
-1.0,-1.0,-13.0,-16.0,11.0,11.0,2.0,-2.0,1650824240300475.0
4.0,-2.0,7.0,10.0,0.0,-1.0,1.0,0.0,1650824240300475.0
-6.0,4.0,8.0,7.0,3.0,11.0,2.0,3.0,1650824240316852.0
-5.0,5.0,-2.0,9.0,8.0,2.0,1.0,-7.0,1650824240316852.0
-9.0,-18.0,7.0,2.0,-13.0,-11.0,-2.0,-3.0,1650824240317818.0
-3.0,-9.0,-15.0,-13.0,-9.0,-10.0,-2.0,-1.0,1650824240317818.0
12.0,-4.0,-23.0,-18.0,-9.0,-1.0,-10.0,0.0,1650824240337926.0
24.0,15.0,20.0,11.0,2.0,8.0,2.0,6.0,1650824240337926.0
-50.0,-9.0,5.0,7.0,13.0,8.0,12.0,16.0,1650824240346875.0
19.0,10.0,14.0,-11.0,12.0,2.0,1.0,-8.0,1650824240346875.0
0.0,1.0,-5.0,18.0,-19.0,-9.0,21.0,3.0,1650824240353697.0
-12.0,-9.0,-22.0,-36.0,-5.0,-7.0,-34.0,15.0,1650824240353697.0
30.0,13.0,4.0,1.0,0.0,4.0,30.0,24.0,1650824240359890.0
31.0,11.0,6.0,4.0,-9.0,-12.0,-15.0,-3.0,1650824240359890.0
-60.0,-19.0,15.0,10.0,10.0,2.0,-41.0,-49.0,1650824240376904.0
-10.0,20.0,8.0,24.0,0.0,-7.0,-21.0,-20.0,1650824240376904.0
10.0,-10.0,-3.0,-19.0,2.0,7.0,6.0,27.0,1650824240377840.0
-23.0,-27.0,-45.0,-1.0,-6.0,1.0,8.0,1.0,1650824240377840.0
29.0,-7.0,-20.0,-9.0,-4.0,5.0,40.0,40.0,1650824240398851.0
-19.0,20.0,8.0,3.0,8.0,4.0,-1.0,-20.0,1650824240398851.0
-23.0,-20.0,9.0,9.0,7.0,6.0,12.0,14.0,1650824240400779.0
16.0,37.0,38.0,16.0,-1.0,0.0,45.0,23.0,1650824240400779.0
1.0,4.0,-3.0,-19.0,-18.0,-17.0,-70.0,-86.0,1650824240413776.0
16.0,77.0,43.0,15.0,19.0,20.0,41.0,84.0,1650824240413776.0
-39.0,-68.0,-75.0,-4.0,-12.0,-12.0,3.0,-36.0,1650824240427773.0
-4.0,-14.0,0.0,-14.0,3.0,6.0,-10.0,-48.0,1650824240427773.0
-13.0,-12.0,33.0,23.0,6.0,5.0,37.0,27.0,1650824240435712.0
43.0,-3.0,-28.0,-41.0,-13.0,-20.0,-37.0,-17.0,1650824240435712.0
-16.0,33.0,22.0,8.0,6.0,8.0,5.0,-26.0,1650824240442667.0
-29.0,18.0,-18.0,3.0,-3.0,-10.0,-65.0,-43.0,1650824240442667.0
8.0,-1.0,31.0,19.0,7.0,2.0,10.0,69.0,1650824240458631.0
-8.0,-58.0,-24.0,12.0,5.0,2.0,5.0,-49.0,1650824240458631.0
43.0,6.0,-10.0,-34.0,-14.0,-6.0,-7.0,-47.0,1650824240460646.0
22.0,38.0,46.0,0.0,-1.0,0.0,-7.0,24.0,1650824240460646.0
-5.0,-57.0,-81.0,-19.0,-5.0,-6.0,-18.0,0.0,1650824240472654.0
-26.0,-10.0,23.0,16.0,-3.0,1.0,28.0,37.0,1650824240472654.0
25.0,42.0,20.0,-4.0,0.0,-2.0,-10.0,-3.0,1650824240481562.0
-34.0,41.0,12.0,33.0,13.0,15.0,0.0,-6.0,1650824240481562.0
5.0,-30.0,-4.0,-40.0,11.0,9.0,27.0,7.0,1650824240496574.0
11.0,-30.0,1.0,12.0,-13.0,-2.0,-10.0,-56.0,1650824240496574.0
-9.0,1.0,1.0,25.0,-1.0,-9.0,-39.0,-14.0,1650824240497529.0
38.0,-13.0,5.0,-10.0,1.0,-2.0,16.0,27.0,1650824240497529.0
-23.0,2.0,25.0,9.0,1.0,7.0,18.0,50.0,1650824240518514.0
-31.0,-28.0,-81.0,-33.0,-16.0,-12.0,19.0,-38.0,1650824240518514.0
-4.0,17.0,35.0,-33.0,-14.0,-16.0,-80.0,-59.0,1650824240520441.0
-16.0,14.0,30.0,35.0,11.0,4.0,17.0,42.0,1650824240520441.0
4.0,-4.0,-20.0,3.0,-1.0,-3.0,-17.0,-52.0,1650824240532417.0
14.0,-4.0,4.0,-3.0,2.0,0.0,-6.0,-9.0,1650824240532417.0
14.0,21.0,-5.0,7.0,-5.0,-1.0,2.0,9.0,1650824240541385.0
15.0,-14.0,2.0,-4.0,-3.0,-2.0,15.0,21.0,1650824240541385.0
-8.0,35.0,-2.0,-11.0,-4.0,-3.0,-15.0,-29.0,1650824240556412.0
-12.0,-15.0,25.0,27.0,20.0,13.0,11.0,21.0,1650824240556412.0
15.0,25.0,-5.0,7.0,11.0,8.0,22.0,43.0,1650824240558341.0
-13.0,-12.0,0.0,-21.0,-15.0,-9.0,-21.0,-37.0,1650824240558341.0
23.0,44.0,2.0,4.0,-5.0,-5.0,9.0,2.0,1650824240579368.0
-6.0,-19.0,-16.0,-12.0,-6.0,-5.0,-10.0,-35.0,1650824240579368.0
3.0,3.0,18.0,17.0,14.0,10.0,14.0,18.0,1650824240586371.0
-10.0,-38.0,13.0,21.0,10.0,2.0,1.0,-15.0,1650824240586371.0
43.0,34.0,-8.0,3.0,0.0,4.0,8.0,9.0,1650824240592341.0
-39.0,-36.0,19.0,-8.0,-16.0,-9.0,-4.0,7.0,1650824240592341.0
-7.0,8.0,1.0,-1.0,-1.0,-5.0,-4.0,-4.0,1650824240601925.0
2.0,3.0,-7.0,9.0,-5.0,2.0,2.0,8.0,1650824240601925.0
11.0,24.0,-1.0,6.0,8.0,0.0,5.0,9.0,1650824240616883.0
13.0,4.0,-9.0,-14.0,2.0,-1.0,11.0,107.0,1650824240616883.0
14.0,-14.0,-11.0,-3.0,-11.0,-4.0,-5.0,-36.0,1650824240617875.0
-19.0,-9.0,-10.0,-5.0,5.0,2.0,-5.0,-15.0,1650824240617875.0
-22.0,-39.0,-4.0,12.0,8.0,2.0,15.0,58.0,1650824240638840.0
14.0,39.0,-24.0,-12.0,4.0,9.0,2.0,15.0,1650824240638840.0
-20.0,-3.0,-5.0,2.0,-6.0,-5.0,-13.0,-16.0,1650824240640808.0
8.0,-45.0,-37.0,-8.0,-5.0,-1.0,3.0,5.0,1650824240640808.0
0.0,49.0,45.0,6.0,0.0,2.0,-19.0,-42.0,1650824240652777.0
-8.0,-5.0,8.0,4.0,0.0,-7.0,2.0,-6.0,1650824240652777.0
58.0,6.0,-9.0,-11.0,-4.0,-1.0,20.0,32.0,1650824240661752.0
-12.0,-4.0,-30.0,-13.0,-2.0,3.0,-1.0,26.0,1650824240661752.0
-19.0,-15.0,3.0,-6.0,-7.0,-12.0,-13.0,-37.0,1650824240676732.0
12.0,9.0,18.0,7.0,6.0,5.0,4.0,-3.0,1650824240676732.0
-5.0,-4.0,13.0,29.0,6.0,3.0,4.0,-3.0,1650824240677709.0
-2.0,-9.0,-22.0,-10.0,3.0,-1.0,3.0,9.0,1650824240677709.0
-9.0,-17.0,-19.0,-19.0,-7.0,0.0,2.0,-6.0,1650824240706652.0
30.0,29.0,3.0,0.0,-3.0,-9.0,-18.0,-16.0,1650824240706652.0
-23.0,-29.0,-8.0,-2.0,-9.0,2.0,7.0,17.0,1650824240707638.0
-27.0,20.0,56.0,10.0,7.0,5.0,-1.0,19.0,1650824240707638.0
-8.0,-26.0,-29.0,4.0,-5.0,-5.0,-3.0,-3.0,1650824240712637.0
17.0,4.0,3.0,-11.0,-8.0,-2.0,-2.0,-4.0,1650824240712637.0
7.0,22.0,-1.0,5.0,3.0,4.0,16.0,30.0,1650824240721591.0
8.0,-49.0,-3.0,-18.0,-3.0,-5.0,1.0,24.0,1650824240721591.0
5.0,38.0,27.0,31.0,12.0,7.0,-2.0,-7.0,1650824240736618.0
-28.0,-38.0,-10.0,-3.0,-12.0,-8.0,8.0,-15.0,1650824240736618.0
-11.0,31.0,-17.0,-35.0,-11.0,-8.0,-2.0,24.0,1650824240737558.0
21.0,25.0,8.0,12.0,7.0,7.0,18.0,22.0,1650824240737558.0
-8.0,-8.0,-19.0,-16.0,-6.0,-3.0,-18.0,-25.0,1650824240758586.0
12.0,20.0,32.0,20.0,5.0,2.0,-9.0,-36.0,1650824240758586.0
-8.0,-21.0,2.0,14.0,8.0,6.0,10.0,6.0,1650824240760561.0
-4.0,14.0,-20.0,-15.0,-3.0,-3.0,-5.0,-20.0,1650824240760561.0
6.0,-7.0,-5.0,-7.0,-3.0,0.0,13.0,39.0,1650824240772595.0
-18.0,-8.0,0.0,2.0,4.0,2.0,-18.0,-19.0,1650824240772595.0
0.0,-19.0,-15.0,-10.0,-2.0,-5.0,-3.0,-6.0,1650824240781670.0
-6.0,12.0,-4.0,6.0,-1.0,-3.0,-17.0,-29.0,1650824240781670.0
-6.0,-20.0,-6.0,-10.0,-2.0,3.0,9.0,4.0,1650824240796185.0
-5.0,-15.0,-10.0,-6.0,-3.0,-1.0,9.0,-4.0,1650824240796185.0
3.0,-5.0,-3.0,4.0,9.0,4.0,-7.0,22.0,1650824240798115.0
2.0,-46.0,-28.0,-13.0,9.0,5.0,4.0,-17.0,1650824240798115.0
16.0,44.0,25.0,9.0,0.0,-1.0,-1.0,1.0,1650824240819274.0
15.0,13.0,9.0,-7.0,-6.0,2.0,9.0,23.0,1650824240819274.0
-22.0,-59.0,-44.0,1.0,-1.0,1.0,-5.0,-29.0,1650824240820205.0
-19.0,-17.0,5.0,0.0,-12.0,-11.0,-4.0,-18.0,1650824240820205.0
23.0,19.0,44.0,33.0,7.0,4.0,3.0,51.0,1650824240832207.0
-10.0,-52.0,-42.0,-27.0,-4.0,-4.0,-12.0,-13.0,1650824240832207.0
-24.0,7.0,21.0,9.0,-3.0,0.0,11.0,-38.0,1650824240841177.0
15.0,14.0,2.0,0.0,1.0,0.0,24.0,16.0,1650824240841177.0
2.0,-6.0,-2.0,4.0,4.0,7.0,-44.0,-11.0,1650824240856304.0
25.0,35.0,19.0,12.0,4.0,-4.0,5.0,-3.0,1650824240856304.0
-12.0,-11.0,-14.0,-18.0,2.0,-2.0,-7.0,0.0,1650824240862221.0
-5.0,5.0,13.0,-1.0,-11.0,-4.0,0.0,-10.0,1650824240862221.0
-11.0,-33.0,-32.0,-6.0,-4.0,-7.0,19.0,-12.0,1650824240879176.0
24.0,19.0,5.0,7.0,1.0,1.0,1.0,25.0,1650824240879176.0
-11.0,0.0,-19.0,-3.0,12.0,6.0,-2.0,-7.0,1650824240881103.0
1.0,16.0,-7.0,-9.0,-5.0,0.0,0.0,-14.0,1650824240881103.0
16.0,23.0,11.0,-13.0,-7.0,0.0,12.0,22.0,1650824240892074.0
-17.0,-10.0,2.0,2.0,8.0,3.0,-3.0,-7.0,1650824240892074.0
5.0,27.0,47.0,23.0,7.0,4.0,5.0,-20.0,1650824240901930.0
16.0,13.0,1.0,13.0,3.0,4.0,3.0,1.0,1650824240901930.0
1.0,25.0,11.0,-8.0,-5.0,-4.0,4.0,10.0,1650824240916032.0
-17.0,-6.0,1.0,1.0,-5.0,-9.0,-11.0,-14.0,1650824240916032.0
35.0,2.0,-2.0,-1.0,-8.0,-6.0,-8.0,-1.0,1650824240918000.0
12.0,22.0,16.0,8.0,3.0,6.0,2.0,24.0,1650824240918000.0
-29.0,2.0,-7.0,-1.0,6.0,5.0,3.0,-27.0,1650824240938626.0
-22.0,-17.0,11.0,10.0,5.0,2.0,-6.0,14.0,1650824240938626.0
19.0,13.0,5.0,19.0,-5.0,-4.0,30.0,36.0,1650824240940554.0
19.0,3.0,-9.0,-19.0,-6.0,-9.0,-15.0,23.0,1650824240940554.0
6.0,-47.0,-55.0,-24.0,-7.0,-6.0,-2.0,0.0,1650824240952588.0
-21.0,12.0,-16.0,14.0,12.0,13.0,14.0,35.0,1650824240952588.0
0.0,11.0,26.0,4.0,-1.0,-3.0,-13.0,-30.0,1650824240961499.0
-5.0,-13.0,-48.0,-23.0,-23.0,-18.0,-14.0,-21.0,1650824240961499.0
-1.0,7.0,24.0,10.0,2.0,5.0,0.0,-15.0,1650824240983814.0
13.0,42.0,8.0,-1.0,5.0,4.0,8.0,22.0,1650824240983814.0
-12.0,-46.0,-11.0,-32.0,-11.0,-6.0,-6.0,9.0,1650824240985742.0
1.0,35.0,17.0,13.0,18.0,4.0,2.0,2.0,1650824240985742.0
2.0,-6.0,-4.0,-8.0,-12.0,-2.0,-2.0,-1.0,1650824240998774.0
5.0,-7.0,-2.0,7.0,-7.0,1.0,4.0,17.0,1650824240998774.0
1.0,26.0,18.0,10.0,7.0,4.0,-7.0,-14.0,1650824241000730.0
2.0,-28.0,-17.0,-4.0,2.0,0.0,-2.0,-11.0,1650824241000730.0
-38.0,13.0,26.0,0.0,5.0,2.0,2.0,-29.0,1650824241012784.0
5.0,-28.0,-8.0,5.0,6.0,0.0,12.0,3.0,1650824241012784.0
11.0,31.0,14.0,0.0,-5.0,4.0,-19.0,17.0,1650824241021763.0
15.0,28.0,21.0,10.0,-1.0,3.0,32.0,65.0,1650824241021763.0
-40.0,-21.0,-1.0,-4.0,-1.0,-7.0,-26.0,-48.0,1650824241036923.0
-12.0,-6.0,5.0,-9.0,-3.0,-2.0,-6.0,-14.0,1650824241036923.0
-3.0,-2.0,-3.0,11.0,0.0,-1.0,5.0,1.0,1650824241037875.0
-3.0,-37.0,-26.0,-6.0,-1.0,2.0,-7.0,-8.0,1650824241037875.0
19.0,25.0,9.0,-6.0,0.0,3.0,5.0,22.0,1650824241058938.0
8.0,19.0,18.0,-4.0,-4.0,-1.0,1.0,-28.0,1650824241058938.0
6.0,-1.0,13.0,13.0,-1.0,-4.0,-5.0,9.0,1650824241060961.0
-3.0,22.0,17.0,20.0,6.0,7.0,-5.0,-15.0,1650824241060961.0
11.0,-24.0,-19.0,9.0,0.0,-5.0,3.0,7.0,1650824241081066.0
-13.0,-3.0,-14.0,-31.0,-10.0,-4.0,-16.0,-34.0,1650824241081066.0
6.0,18.0,6.0,-2.0,-3.0,-3.0,11.0,16.0,1650824241082999.0
-11.0,-44.0,-8.0,-4.0,-5.0,1.0,4.0,17.0,1650824241082999.0
3.0,2.0,-7.0,-7.0,-5.0,-15.0,-15.0,-25.0,1650824241096030.0
-23.0,-1.0,5.0,9.0,5.0,7.0,3.0,8.0,1650824241096030.0
-13.0,-36.0,-46.0,-9.0,2.0,-2.0,-21.0,-57.0,1650824241097959.0
12.0,22.0,17.0,-10.0,-1.0,-1.0,8.0,-2.0,1650824241097959.0
8.0,23.0,-13.0,-6.0,-6.0,1.0,7.0,26.0,1650824241118631.0
7.0,9.0,11.0,5.0,-4.0,-2.0,-6.0,-7.0,1650824241118631.0
7.0,-5.0,-10.0,9.0,-1.0,3.0,11.0,20.0,1650824241120586.0
-35.0,-14.0,-6.0,-5.0,2.0,0.0,-8.0,-14.0,1650824241120586.0
24.0,11.0,16.0,11.0,6.0,2.0,-5.0,4.0,1650824241141567.0
3.0,-28.0,-22.0,-6.0,4.0,1.0,3.0,2.0,1650824241141567.0
3.0,22.0,14.0,4.0,-5.0,2.0,5.0,4.0,1650824241143499.0
-2.0,-8.0,-49.0,-59.0,-21.0,-9.0,-7.0,-17.0,1650824241143499.0
-14.0,20.0,4.0,3.0,-3.0,-1.0,-11.0,-48.0,1650824241156461.0
3.0,-19.0,8.0,-13.0,-10.0,-9.0,5.0,-12.0,1650824241156461.0
-2.0,-2.0,15.0,17.0,14.0,5.0,-3.0,8.0,1650824241158456.0
2.0,9.0,14.0,17.0,4.0,1.0,-7.0,-9.0,1650824241158456.0
-14.0,22.0,10.0,7.0,3.0,1.0,2.0,32.0,1650824241178423.0
-1.0,11.0,1.0,-5.0,2.0,3.0,-6.0,-63.0,1650824241178423.0
-14.0,9.0,-13.0,-13.0,-5.0,-6.0,-15.0,-3.0,1650824241180403.0
-12.0,-13.0,1.0,16.0,0.0,-3.0,-1.0,-26.0,1650824241180403.0
12.0,-14.0,-2.0,-9.0,-1.0,3.0,2.0,-5.0,1650824241201914.0
12.0,-6.0,6.0,15.0,-1.0,-4.0,-3.0,18.0,1650824241201914.0
-2.0,1.0,2.0,-9.0,1.0,1.0,5.0,14.0,1650824241202912.0
13.0,10.0,11.0,-3.0,-11.0,-9.0,-3.0,-3.0,1650824241202912.0
11.0,-22.0,7.0,9.0,12.0,10.0,8.0,17.0,1650824241215942.0
3.0,16.0,25.0,36.0,9.0,10.0,11.0,10.0,1650824241215942.0
-4.0,-3.0,-26.0,-20.0,0.0,2.0,12.0,-4.0,1650824241223867.0
-5.0,11.0,21.0,-16.0,-1.0,-4.0,-15.0,15.0,1650824241223867.0
3.0,2.0,-4.0,-2.0,-6.0,-3.0,16.0,-3.0,1650824241239038.0
1.0,11.0,15.0,-3.0,-1.0,1.0,2.0,27.0,1650824241239038.0
-3.0,-12.0,-21.0,1.0,-1.0,-2.0,0.0,9.0,1650824241240969.0
-10.0,-10.0,-5.0,11.0,5.0,2.0,-7.0,-16.0,1650824241240969.0
-10.0,-4.0,0.0,-1.0,-1.0,-2.0,1.0,16.0,1650824241262131.0
7.0,2.0,-11.0,-6.0,-1.0,1.0,-7.0,4.0,1650824241262131.0
5.0,8.0,11.0,0.0,0.0,2.0,5.0,2.0,1650824241263084.0
-1.0,5.0,-19.0,-3.0,3.0,6.0,12.0,18.0,1650824241263084.0
4.0,-17.0,13.0,6.0,1.0,0.0,-19.0,-2.0,1650824241276027.0
17.0,12.0,0.0,3.0,2.0,4.0,2.0,46.0,1650824241276027.0
5.0,11.0,-21.0,-5.0,-5.0,-6.0,-20.0,-45.0,1650824241283017.0
-7.0,5.0,14.0,11.0,3.0,3.0,4.0,-3.0,1650824241283017.0
6.0,1.0,0.0,2.0,7.0,4.0,4.0,11.0,1650824241298992.0
-9.0,-47.0,-67.0,-40.0,-16.0,-11.0,-2.0,9.0,1650824241298992.0
15.0,13.0,28.0,-8.0,-2.0,4.0,16.0,40.0,1650824241300961.0
3.0,12.0,27.0,27.0,7.0,6.0,3.0,-9.0,1650824241300961.0
-9.0,-15.0,-20.0,3.0,-4.0,-6.0,-5.0,-12.0,1650824241321096.0
-9.0,-15.0,-25.0,-40.0,-17.0,-11.0,-4.0,-21.0,1650824241321096.0
-1.0,-2.0,2.0,7.0,-1.0,-2.0,5.0,3.0,1650824241323024.0
-7.0,8.0,20.0,0.0,8.0,1.0,-12.0,-17.0,1650824241323024.0
8.0,-6.0,14.0,15.0,5.0,3.0,4.0,27.0,1650824241336054.0
-2.0,13.0,4.0,17.0,8.0,-2.0,-8.0,-57.0,1650824241336054.0
-8.0,-4.0,4.0,-5.0,-3.0,-3.0,-7.0,-53.0,1650824241342974.0
-8.0,-10.0,-6.0,5.0,-6.0,-7.0,-10.0,-8.0,1650824241342974.0
17.0,-32.0,-38.0,-18.0,-9.0,0.0,13.0,5.0,1650824241359040.0
9.0,20.0,12.0,6.0,2.0,2.0,-16.0,18.0,1650824241359040.0
-10.0,19.0,2.0,2.0,5.0,0.0,9.0,39.0,1650824241361012.0
9.0,-10.0,-9.0,1.0,-3.0,-1.0,-19.0,-30.0,1650824241361012.0
-5.0,3.0,-8.0,-13.0,-3.0,-3.0,-5.0,-18.0,1650824241381954.0
-7.0,26.0,40.0,20.0,8.0,2.0,11.0,8.0,1650824241381954.0
-11.0,-62.0,-57.0,-2.0,-2.0,-3.0,-11.0,-12.0,1650824241382950.0
11.0,23.0,27.0,0.0,1.0,-1.0,5.0,32.0,1650824241382950.0
2.0,-1.0,-1.0,-16.0,-4.0,2.0,10.0,16.0,1650824241395915.0
-8.0,12.0,22.0,12.0,2.0,3.0,2.0,-16.0,1650824241395915.0
17.0,-3.0,16.0,16.0,7.0,5.0,4.0,26.0,1650824241402895.0
-44.0,-13.0,-45.0,-6.0,-9.0,-9.0,6.0,1.0,1650824241402895.0
-10.0,-27.0,-10.0,-12.0,-8.0,-7.0,-7.0,17.0,1650824241419014.0
11.0,-6.0,-29.0,2.0,0.0,3.0,1.0,5.0,1650824241419014.0
-9.0,0.0,23.0,0.0,3.0,5.0,3.0,4.0,1650824241420945.0
6.0,1.0,7.0,9.0,5.0,6.0,2.0,-23.0,1650824241420945.0
8.0,24.0,-12.0,-6.0,-2.0,-1.0,1.0,9.0,1650824241440890.0
-1.0,22.0,19.0,-1.0,-1.0,-4.0,-1.0,69.0,1650824241440890.0
-1.0,-4.0,5.0,3.0,-9.0,-3.0,-5.0,-21.0,1650824241442886.0
18.0,3.0,20.0,7.0,6.0,3.0,8.0,24.0,1650824241442886.0
-24.0,-18.0,-30.0,-11.0,-6.0,-6.0,-17.0,-83.0,1650824241455880.0
0.0,-2.0,-37.0,-18.0,-3.0,0.0,6.0,9.0,1650824241455880.0
3.0,9.0,12.0,-3.0,-1.0,-2.0,2.0,6.0,1650824241462899.0
16.0,35.0,33.0,27.0,4.0,4.0,-1.0,-2.0,1650824241462899.0
13.0,-54.0,-26.0,-1.0,5.0,7.0,7.0,25.0,1650824241479381.0
1.0,7.0,-15.0,-26.0,-17.0,-19.0,-11.0,-23.0,1650824241479381.0
-14.0,-35.0,-5.0,3.0,6.0,3.0,2.0,-10.0,1650824241480386.0
6.0,-10.0,-17.0,-1.0,9.0,6.0,3.0,9.0,1650824241480386.0
4.0,43.0,40.0,32.0,11.0,9.0,9.0,27.0,1650824241501352.0
5.0,-13.0,-11.0,9.0,-5.0,-1.0,-3.0,-10.0,1650824241501352.0
8.0,7.0,4.0,-9.0,-6.0,-3.0,1.0,27.0,1650824241503319.0
5.0,2.0,-9.0,-11.0,-3.0,-3.0,-4.0,-8.0,1650824241503319.0
-17.0,-23.0,2.0,-1.0,-1.0,-2.0,-7.0,-2.0,1650824241516250.0
16.0,43.0,30.0,21.0,0.0,-4.0,-3.0,-7.0,1650824241516250.0
-16.0,21.0,5.0,-2.0,0.0,2.0,13.0,35.0,1650824241522279.0
4.0,-27.0,-18.0,-8.0,-1.0,-3.0,-7.0,-26.0,1650824241522279.0
-5.0,19.0,6.0,-1.0,-4.0,-5.0,-10.0,-41.0,1650824241539380.0
10.0,17.0,15.0,5.0,8.0,8.0,20.0,1.0,1650824241539380.0
-31.0,-34.0,-7.0,-6.0,3.0,7.0,-8.0,-6.0,1650824241541308.0
17.0,14.0,-11.0,-13.0,-6.0,-5.0,11.0,43.0,1650824241541308.0
-12.0,-10.0,-22.0,-5.0,-12.0,-15.0,-21.0,3.0,1650824241561267.0
-6.0,-18.0,4.0,4.0,2.0,0.0,-3.0,4.0,1650824241561267.0
14.0,28.0,41.0,21.0,11.0,3.0,2.0,-3.0,1650824241563249.0
-1.0,6.0,-26.0,-43.0,-23.0,-10.0,3.0,4.0,1650824241563249.0
0.0,33.0,17.0,-1.0,-4.0,1.0,4.0,-7.0,1650824241575280.0
-8.0,-19.0,-7.0,5.0,-2.0,-4.0,2.0,7.0,1650824241575280.0
3.0,6.0,9.0,-4.0,9.0,5.0,1.0,0.0,1650824241584193.0
-10.0,-1.0,-8.0,-7.0,-5.0,-3.0,-6.0,-9.0,1650824241584193.0
13.0,-7.0,-9.0,9.0,0.0,-1.0,13.0,22.0,1650824241599219.0
-13.0,-13.0,0.0,-7.0,0.0,3.0,-9.0,-27.0,1650824241599219.0
7.0,18.0,-10.0,0.0,-10.0,-9.0,-6.0,-10.0,1650824241600150.0
3.0,-47.0,8.0,4.0,0.0,-4.0,-16.0,-5.0,1650824241600150.0
17.0,-9.0,-1.0,-4.0,0.0,1.0,13.0,4.0,1650824241621601.0
-30.0,-19.0,4.0,9.0,7.0,8.0,23.0,-46.0,1650824241621601.0
-11.0,3.0,-32.0,-11.0,-2.0,-4.0,-36.0,-18.0,1650824241622557.0
-15.0,-5.0,12.0,6.0,3.0,0.0,6.0,-18.0,1650824241622557.0
8.0,10.0,4.0,23.0,10.0,5.0,0.0,-1.0,1650824241634622.0
1.0,-2.0,-10.0,-33.0,-10.0,-6.0,1.0,4.0,1650824241634622.0
23.0,5.0,6.0,-4.0,-10.0,-4.0,15.0,26.0,1650824241643598.0
-13.0,5.0,13.0,10.0,1.0,5.0,-5.0,-9.0,1650824241643598.0
-4.0,-24.0,5.0,16.0,12.0,9.0,7.0,9.0,1650824241659628.0
-1.0,-14.0,-34.0,-11.0,-2.0,2.0,-4.0,-2.0,1650824241659628.0
2.0,7.0,10.0,8.0,-3.0,-1.0,-1.0,-9.0,1650824241660571.0
4.0,4.0,4.0,0.0,-2.0,0.0,-1.0,17.0,1650824241660571.0
-7.0,-7.0,8.0,-6.0,-4.0,-3.0,-3.0,-7.0,1650824241681927.0
6.0,-11.0,2.0,11.0,9.0,5.0,-4.0,19.0,1650824241681927.0
23.0,-13.0,-16.0,-9.0,-1.0,-4.0,2.0,-3.0,1650824241682926.0
-29.0,5.0,-2.0,13.0,5.0,4.0,6.0,8.0,1650824241682926.0
-7.0,-1.0,10.0,-9.0,-10.0,-6.0,-4.0,-19.0,1650824241694892.0
-30.0,-10.0,-19.0,-6.0,-2.0,-3.0,0.0,20.0,1650824241694892.0
4.0,11.0,8.0,4.0,-5.0,-6.0,-3.0,-16.0,1650824241703877.0
25.0,4.0,-9.0,-5.0,4.0,-3.0,-5.0,-10.0,1650824241703877.0
-6.0,22.0,5.0,-1.0,-10.0,2.0,3.0,2.0,1650824241718828.0
14.0,8.0,2.0,-6.0,6.0,6.0,5.0,12.0,1650824241718828.0
-2.0,-13.0,25.0,18.0,7.0,3.0,6.0,7.0,1650824241720823.0
-11.0,-14.0,-34.0,-17.0,-16.0,-10.0,-5.0,3.0,1650824241720823.0
0.0,9.0,-3.0,-20.0,-3.0,-4.0,-3.0,-8.0,1650824241741794.0
12.0,8.0,24.0,21.0,9.0,7.0,0.0,1.0,1650824241741794.0
-5.0,-8.0,-16.0,-7.0,3.0,1.0,2.0,-1.0,1650824241742766.0
1.0,-3.0,3.0,0.0,0.0,1.0,3.0,2.0,1650824241742766.0
-1.0,8.0,5.0,-5.0,5.0,3.0,2.0,9.0,1650824241755279.0
3.0,-5.0,-4.0,3.0,-4.0,-8.0,-7.0,-5.0,1650824241755279.0
-7.0,-2.0,-6.0,-4.0,-5.0,0.0,2.0,3.0,1650824241763765.0
-2.0,-2.0,-4.0,-7.0,-4.0,-3.0,2.0,0.0,1650824241763765.0
7.0,10.0,11.0,7.0,-1.0,-2.0,0.0,6.0,1650824241779384.0
0.0,1.0,3.0,4.0,7.0,7.0,-1.0,-1.0,1650824241779384.0
-2.0,-3.0,-9.0,2.0,-1.0,-6.0,-7.0,-9.0,1650824241780385.0
5.0,-2.0,10.0,-10.0,-13.0,-5.0,1.0,1.0,1650824241780385.0
-2.0,0.0,-19.0,-6.0,-3.0,-4.0,1.0,1.0,1650824241801395.0
2.0,3.0,14.0,10.0,6.0,0.0,-3.0,-2.0,1650824241801395.0
-2.0,5.0,18.0,-14.0,-10.0,-6.0,-1.0,-2.0,1650824241803350.0
0.0,-18.0,-28.0,-1.0,0.0,-1.0,0.0,-4.0,1650824241803350.0
0.0,15.0,16.0,1.0,-1.0,4.0,-4.0,2.0,1650824241815464.0
-3.0,-2.0,14.0,18.0,3.0,-1.0,0.0,-3.0,1650824241815464.0
6.0,7.0,-4.0,-14.0,6.0,9.0,5.0,5.0,1650824241824379.0
-5.0,-5.0,-23.0,-24.0,-13.0,-3.0,-4.0,-4.0,1650824241824379.0
1.0,-4.0,19.0,11.0,6.0,-5.0,-1.0,1.0,1650824241839423.0
3.0,1.0,-24.0,-7.0,8.0,6.0,2.0,0.0,1650824241839423.0
-1.0,1.0,20.0,14.0,-2.0,-8.0,-5.0,-4.0,1650824241840335.0
6.0,15.0,18.0,30.0,1.0,0.0,3.0,6.0,1650824241840335.0
-13.0,-31.0,-56.0,-66.0,-12.0,-3.0,-4.0,-7.0,1650824241861577.0
1.0,2.0,-1.0,-5.0,-9.0,-5.0,-2.0,-2.0,1650824241861577.0
-4.0,-6.0,-12.0,-7.0,1.0,-2.0,-4.0,0.0,1650824241862563.0
4.0,9.0,19.0,14.0,16.0,6.0,3.0,2.0,1650824241862563.0
6.0,13.0,12.0,20.0,-5.0,1.0,1.0,3.0,1650824241875582.0
0.0,-1.0,6.0,-1.0,-1.0,2.0,-1.0,0.0,1650824241875582.0
-6.0,2.0,-4.0,-2.0,1.0,1.0,-2.0,-8.0,1650824241883719.0
1.0,-8.0,17.0,11.0,0.0,2.0,-3.0,-2.0,1650824241883719.0
0.0,6.0,-19.0,-7.0,6.0,-1.0,0.0,1.0,1650824241899458.0
1.0,-6.0,-30.0,-6.0,0.0,-2.0,-5.0,-1.0,1650824241899458.0
-2.0,-16.0,-6.0,-5.0,-5.0,-3.0,-1.0,-1.0,1650824241900463.0
1.0,15.0,38.0,5.0,-7.0,-5.0,-3.0,-3.0,1650824241900463.0
-6.0,-25.0,-14.0,-7.0,-3.0,1.0,-2.0,-4.0,1650824241922498.0
0.0,2.0,-9.0,-19.0,-7.0,-4.0,2.0,2.0,1650824241922498.0
2.0,5.0,-13.0,10.0,8.0,6.0,4.0,0.0,1650824241924493.0
0.0,4.0,-5.0,3.0,6.0,3.0,2.0,3.0,1650824241924493.0
6.0,5.0,22.0,14.0,0.0,-1.0,-3.0,4.0,1650824241935462.0
-2.0,5.0,2.0,-2.0,-13.0,-5.0,-5.0,-10.0,1650824241935462.0
-4.0,-13.0,-22.0,-9.0,1.0,2.0,4.0,9.0,1650824241944439.0
-2.0,6.0,16.0,0.0,8.0,2.0,-3.0,-19.0,1650824241944439.0
1.0,13.0,13.0,19.0,9.0,4.0,0.0,1.0,1650824241958400.0
-2.0,-5.0,2.0,5.0,-10.0,-7.0,-4.0,-1.0,1650824241958400.0
-3.0,-6.0,-14.0,-12.0,-16.0,-7.0,-4.0,-7.0,1650824241965447.0
-4.0,-14.0,-18.0,-5.0,4.0,2.0,5.0,4.0,1650824241965447.0
4.0,13.0,14.0,11.0,8.0,6.0,4.0,6.0,1650824241981522.0
-2.0,4.0,11.0,0.0,2.0,3.0,-3.0,-5.0,1650824241981522.0
1.0,-5.0,10.0,0.0,-3.0,-3.0,2.0,1.0,1650824241983458.0
-1.0,-1.0,-3.0,1.0,-1.0,-4.0,-2.0,2.0,1650824241983458.0
-2.0,-7.0,0.0,1.0,3.0,-4.0,-2.0,-5.0,1650824242003422.0
2.0,1.0,16.0,8.0,-1.0,-2.0,-2.0,5.0,1650824242003422.0
1.0,-1.0,-22.0,-8.0,-3.0,-1.0,1.0,0.0,1650824242005390.0
-1.0,-2.0,-6.0,-11.0,-3.0,-3.0,0.0,0.0,1650824242005390.0
0.0,4.0,-15.0,0.0,2.0,4.0,0.0,0.0,1650824242018419.0
1.0,5.0,23.0,4.0,14.0,11.0,3.0,3.0,1650824242018419.0
1.0,7.0,10.0,14.0,1.0,-4.0,-1.0,-2.0,1650824242025405.0
2.0,1.0,-7.0,-12.0,-5.0,-2.0,-1.0,1.0,1650824242025405.0
-3.0,1.0,2.0,1.0,-12.0,-6.0,-4.0,-2.0,1650824242041328.0
2.0,19.0,2.0,-3.0,-8.0,-9.0,-2.0,1.0,1650824242041328.0
-3.0,-11.0,-1.0,-8.0,-3.0,-2.0,0.0,-4.0,1650824242043289.0
-1.0,2.0,-2.0,1.0,2.0,3.0,1.0,5.0,1650824242043289.0
10.0,2.0,1.0,2.0,-1.0,2.0,1.0,3.0,1650824242064232.0
-8.0,5.0,0.0,-2.0,-1.0,2.0,2.0,0.0,1650824242064232.0
4.0,7.0,13.0,11.0,4.0,-5.0,0.0,-1.0,1650824242065230.0
-5.0,-9.0,8.0,20.0,4.0,2.0,-2.0,-2.0,1650824242065230.0
-4.0,-6.0,-44.0,-46.0,-8.0,2.0,-1.0,-2.0,1650824242079219.0
0.0,-13.0,-2.0,1.0,2.0,-1.0,-2.0,-3.0,1650824242079219.0
2.0,3.0,-3.0,2.0,3.0,2.0,0.0,4.0,1650824242080190.0
-3.0,-1.0,4.0,-7.0,-6.0,-2.0,-3.0,-3.0,1650824242080190.0
0.0,-3.0,13.0,13.0,1.0,-4.0,-1.0,0.0,1650824242101195.0
-1.0,-14.0,-8.0,-2.0,0.0,-6.0,-1.0,1.0,1650824242101195.0
-5.0,-2.0,3.0,9.0,9.0,6.0,7.0,2.0,1650824242103153.0
6.0,6.0,-7.0,-7.0,2.0,3.0,3.0,10.0,1650824242103153.0
-3.0,-4.0,4.0,4.0,3.0,0.0,-2.0,-10.0,1650824242124351.0
-1.0,-2.0,-14.0,-5.0,-8.0,-3.0,-2.0,-1.0,1650824242124351.0
-1.0,-8.0,-3.0,-2.0,-8.0,-3.0,-4.0,-3.0,1650824242125279.0
-3.0,-14.0,-13.0,-1.0,6.0,3.0,0.0,-1.0,1650824242125279.0
-4.0,-2.0,6.0,5.0,-9.0,-3.0,0.0,3.0,1650824242138805.0
3.0,-2.0,-3.0,0.0,-4.0,-8.0,2.0,2.0,1650824242138805.0
-1.0,-1.0,-7.0,-16.0,1.0,4.0,0.0,-2.0,1650824242140762.0
-2.0,7.0,-6.0,-1.0,2.0,0.0,-1.0,-1.0,1650824242140762.0
3.0,2.0,10.0,9.0,6.0,4.0,3.0,2.0,1650824242161885.0
-2.0,-4.0,-4.0,2.0,-8.0,-5.0,-3.0,-2.0,1650824242161885.0
-1.0,2.0,-11.0,-5.0,-6.0,-2.0,-3.0,-1.0,1650824242162884.0
-1.0,2.0,-6.0,6.0,8.0,5.0,2.0,0.0,1650824242162884.0
-1.0,-3.0,18.0,-5.0,3.0,1.0,0.0,-2.0,1650824242183894.0
0.0,-2.0,-5.0,-8.0,-1.0,-2.0,-1.0,1.0,1650824242183894.0
-1.0,4.0,3.0,-6.0,-5.0,-1.0,-2.0,-2.0,1650824242185822.0
-4.0,-9.0,-9.0,-7.0,-7.0,-8.0,-5.0,-2.0,1650824242185822.0
2.0,4.0,2.0,9.0,5.0,0.0,0.0,1.0,1650824242198786.0
1.0,2.0,10.0,2.0,6.0,7.0,4.0,1.0,1650824242198786.0
-1.0,1.0,-2.0,8.0,16.0,11.0,4.0,1.0,1650824242212750.0
2.0,0.0,-2.0,7.0,-13.0,-7.0,-3.0,0.0,1650824242212750.0
-2.0,0.0,-1.0,-11.0,-10.0,-8.0,-2.0,0.0,1650824242221793.0
0.0,0.0,-3.0,-7.0,-6.0,-5.0,-6.0,-3.0,1650824242221793.0
-2.0,-7.0,-8.0,3.0,1.0,1.0,0.0,-2.0,1650824242222723.0
0.0,3.0,4.0,-1.0,7.0,5.0,3.0,1.0,1650824242222723.0
-2.0,0.0,0.0,0.0,-3.0,0.0,-1.0,0.0,1650824242243773.0
-2.0,-2.0,-3.0,-2.0,-5.0,-1.0,-2.0,-1.0,1650824242243773.0
4.0,2.0,1.0,1.0,6.0,5.0,2.0,-4.0,1650824242249796.0
1.0,5.0,8.0,-1.0,0.0,-3.0,0.0,-1.0,1650824242249796.0
1.0,0.0,3.0,2.0,3.0,3.0,1.0,1.0,1650824242258705.0
0.0,-3.0,-4.0,2.0,2.0,1.0,-3.0,0.0,1650824242258705.0
-1.0,1.0,3.0,-12.0,-21.0,-15.0,-7.0,0.0,1650824242264689.0
-3.0,-5.0,-2.0,3.0,-4.0,1.0,1.0,-2.0,1650824242264689.0
1.0,2.0,-3.0,7.0,13.0,10.0,3.0,1.0,1650824242281711.0
-1.0,0.0,6.0,2.0,14.0,6.0,2.0,-2.0,1650824242281711.0
0.0,-2.0,-10.0,-8.0,-2.0,-2.0,-1.0,-1.0,1650824242282642.0
-1.0,0.0,-3.0,-7.0,1.0,-2.0,-1.0,-1.0,1650824242282642.0
-2.0,0.0,-2.0,0.0,-9.0,-8.0,0.0,1.0,1650824242303784.0
0.0,4.0,13.0,7.0,0.0,3.0,1.0,1.0,1650824242303784.0
2.0,5.0,10.0,8.0,3.0,1.0,1.0,1.0,1650824242305802.0
0.0,-5.0,-14.0,-1.0,0.0,0.0,0.0,0.0,1650824242305802.0
-2.0,3.0,2.0,0.0,-4.0,-1.0,-5.0,-4.0,1650824242317813.0
0.0,-5.0,-6.0,-9.0,-5.0,2.0,1.0,1.0,1650824242317813.0
-1.0,5.0,9.0,2.0,2.0,-1.0,-3.0,0.0,1650824242324731.0
2.0,5.0,0.0,-1.0,-3.0,-1.0,-1.0,1.0,1650824242324731.0
-1.0,-1.0,1.0,2.0,4.0,-1.0,2.0,2.0,1650824242341773.0
0.0,-2.0,-9.0,0.0,-1.0,-1.0,1.0,-1.0,1650824242341773.0
-2.0,-3.0,0.0,-2.0,1.0,1.0,-3.0,-2.0,1650824242342704.0
-2.0,0.0,1.0,-6.0,-14.0,-11.0,-4.0,-1.0,1650824242342704.0
2.0,4.0,-1.0,8.0,15.0,14.0,5.0,1.0,1650824242371654.0
-6.0,-12.0,-20.0,-16.0,-10.0,-3.0,-1.0,-1.0,1650824242371654.0
-1.0,-3.0,2.0,6.0,3.0,-2.0,0.0,-1.0,1650824242372651.0
-1.0,-4.0,-12.0,-16.0,-1.0,2.0,0.0,-2.0,1650824242372651.0
-1.0,0.0,3.0,0.0,-3.0,-8.0,-3.0,-2.0,1650824242378608.0
0.0,4.0,8.0,10.0,7.0,5.0,1.0,0.0,1650824242378608.0
0.0,-2.0,-8.0,-2.0,6.0,0.0,1.0,3.0,1650824242384592.0
-1.0,-1.0,0.0,-4.0,-11.0,-6.0,-5.0,-1.0,1650824242384592.0
1.0,-3.0,-4.0,-10.0,-15.0,-8.0,-5.0,0.0,1650824242401701.0
1.0,0.0,-1.0,2.0,8.0,4.0,1.0,-1.0,1650824242401701.0
0.0,3.0,6.0,13.0,-9.0,-6.0,0.0,0.0,1650824242402670.0
-3.0,-7.0,-1.0,1.0,11.0,4.0,0.0,-1.0,1650824242402670.0
-2.0,-4.0,-8.0,-24.0,-2.0,1.0,-1.0,0.0,1650824242423682.0
0.0,-4.0,0.0,-3.0,-5.0,-4.0,-2.0,-1.0,1650824242423682.0
-1.0,-1.0,-1.0,-3.0,-3.0,0.0,-1.0,-1.0,1650824242425637.0
0.0,4.0,6.0,9.0,3.0,5.0,4.0,1.0,1650824242425637.0
-1.0,-2.0,1.0,7.0,-1.0,-2.0,-1.0,-2.0,1650824242438602.0
-2.0,-2.0,-3.0,-2.0,-4.0,-6.0,-3.0,-1.0,1650824242438602.0
-2.0,-3.0,-2.0,-12.0,-1.0,-5.0,-7.0,-2.0,1650824242444558.0
-1.0,-2.0,3.0,2.0,-10.0,-4.0,0.0,-2.0,1650824242444558.0
2.0,5.0,9.0,15.0,24.0,16.0,12.0,5.0,1650824242461512.0
-1.0,-11.0,-12.0,1.0,2.0,1.0,2.0,-1.0,1650824242461512.0
-1.0,-1.0,-3.0,-3.0,-5.0,-2.0,-1.0,-2.0,1650824242462511.0
0.0,-1.0,-6.0,-2.0,-3.0,-6.0,-5.0,-1.0,1650824242462511.0
-3.0,-5.0,-9.0,-3.0,-7.0,-6.0,-5.0,-4.0,1650824242483487.0
0.0,6.0,8.0,5.0,4.0,5.0,3.0,1.0,1650824242483487.0
-1.0,-1.0,-3.0,-3.0,-3.0,0.0,-1.0,1.0,1650824242491433.0
0.0,-2.0,0.0,-6.0,-3.0,-2.0,-1.0,-2.0,1650824242491433.0
-1.0,-1.0,0.0,-1.0,-4.0,-2.0,0.0,0.0,1650824242497418.0
1.0,2.0,1.0,-2.0,-3.0,-6.0,-1.0,1.0,1650824242497418.0
0.0,-3.0,-3.0,-3.0,-6.0,-2.0,-2.0,-2.0,1650824242506393.0
1.0,6.0,10.0,7.0,11.0,7.0,3.0,0.0,1650824242506393.0
-1.0,0.0,0.0,8.0,6.0,7.0,2.0,0.0,1650824242521490.0
4.0,-4.0,2.0,3.0,3.0,2.0,-3.0,-2.0,1650824242521490.0
-2.0,-2.0,0.0,-7.0,-4.0,-3.0,-2.0,-1.0,1650824242523469.0
-1.0,1.0,-5.0,-2.0,4.0,3.0,4.0,-1.0,1650824242523469.0
2.0,0.0,8.0,0.0,-2.0,-4.0,-1.0,0.0,1650824242544381.0
-2.0,1.0,-11.0,-5.0,-5.0,-2.0,-1.0,-2.0,1650824242544381.0
-2.0,1.0,2.0,5.0,-1.0,-1.0,0.0,1.0,1650824242545381.0
0.0,-2.0,-3.0,-6.0,-2.0,-3.0,-5.0,-1.0,1650824242545381.0
0.0,-3.0,-6.0,-6.0,-16.0,-12.0,-8.0,-2.0,1650824242557376.0
-2.0,7.0,9.0,8.0,3.0,8.0,9.0,0.0,1650824242557376.0
1.0,0.0,0.0,5.0,6.0,6.0,4.0,2.0,1650824242567324.0
0.0,2.0,2.0,2.0,7.0,3.0,1.0,1.0,1650824242567324.0
-1.0,-1.0,-4.0,0.0,1.0,1.0,0.0,-1.0,1650824242580873.0
1.0,5.0,10.0,0.0,0.0,-4.0,-4.0,-1.0,1650824242580873.0
-5.0,-12.0,-14.0,-6.0,-1.0,1.0,1.0,-1.0,1650824242581803.0
-3.0,-1.0,-4.0,0.0,-1.0,2.0,1.0,1.0,1650824242581803.0
0.0,1.0,3.0,0.0,-5.0,-6.0,-4.0,-4.0,1650824242602774.0
-3.0,-3.0,-10.0,-11.0,-4.0,-2.0,0.0,-1.0,1650824242602774.0
-1.0,4.0,5.0,1.0,-2.0,5.0,0.0,-1.0,1650824242603744.0
1.0,0.0,-3.0,-3.0,-1.0,-8.0,-3.0,-2.0,1650824242603744.0
-1.0,-2.0,1.0,-1.0,-8.0,-4.0,1.0,1.0,1650824242625830.0
1.0,1.0,5.0,5.0,0.0,-5.0,-1.0,1.0,1650824242625830.0
3.0,3.0,4.0,9.0,7.0,8.0,1.0,0.0,1650824242626761.0
-1.0,-2.0,1.0,1.0,13.0,8.0,1.0,1.0,1650824242626761.0
1.0,3.0,1.0,1.0,4.0,3.0,-1.0,0.0,1650824242649395.0
-1.0,-4.0,-7.0,-6.0,-3.0,-4.0,-3.0,-1.0,1650824242649395.0
-2.0,-1.0,0.0,-6.0,-9.0,-7.0,-2.0,-2.0,1650824242650051.0
0.0,0.0,1.0,1.0,-8.0,-2.0,-1.0,-1.0,1650824242650051.0
1.0,-2.0,1.0,-1.0,-1.0,-2.0,-2.0,-1.0,1650824242663053.0
1.0,4.0,7.0,12.0,5.0,6.0,4.0,0.0,1650824242663053.0
-1.0,1.0,1.0,3.0,12.0,0.0,1.0,2.0,1650824242664057.0
-1.0,-1.0,0.0,-3.0,-3.0,-2.0,-2.0,0.0,1650824242664057.0
-1.0,1.0,0.0,1.0,-3.0,-3.0,-1.0,-2.0,1650824242685647.0
0.0,-1.0,-3.0,-5.0,-6.0,-5.0,-4.0,-2.0,1650824242685647.0
1.0,-1.0,-2.0,-5.0,-5.0,-2.0,-1.0,-2.0,1650824242686673.0
0.0,2.0,-2.0,-2.0,-8.0,-8.0,-2.0,-2.0,1650824242686673.0
-3.0,-7.0,-10.0,-7.0,-4.0,-3.0,1.0,-1.0,1650824242702534.0
5.0,1.0,3.0,6.0,5.0,6.0,4.0,1.0,1650824242702534.0
2.0,0.0,1.0,5.0,10.0,3.0,2.0,0.0,1650824242702534.0
-1.0,-2.0,0.0,0.0,-5.0,0.0,-2.0,2.0,1650824242702534.0
-1.0,1.0,0.0,0.0,-1.0,2.0,-2.0,-2.0,1650824242723546.0
-3.0,-3.0,-5.0,-6.0,-5.0,-4.0,-2.0,0.0,1650824242723546.0
1.0,-2.0,-4.0,-6.0,-4.0,-3.0,-3.0,-2.0,1650824242724488.0
2.0,-1.0,2.0,-2.0,-2.0,1.0,-1.0,0.0,1650824242724488.0
-1.0,-3.0,-1.0,-1.0,-3.0,-3.0,-2.0,-2.0,1650824242745420.0
-1.0,1.0,-4.0,0.0,-4.0,-1.0,-1.0,-1.0,1650824242745420.0
2.0,4.0,4.0,12.0,7.0,4.0,2.0,1.0,1650824242746417.0
-2.0,-4.0,3.0,-11.0,13.0,9.0,6.0,-1.0,1650824242746417.0
-4.0,-3.0,-8.0,-7.0,-1.0,-1.0,0.0,-2.0,1650824242760446.0
-2.0,-2.0,0.0,-4.0,-6.0,-5.0,-4.0,-2.0,1650824242760446.0
0.0,-1.0,-6.0,-4.0,-9.0,-7.0,-2.0,-1.0,1650824242761377.0
0.0,1.0,2.0,6.0,-5.0,0.0,-1.0,-1.0,1650824242761377.0
1.0,-1.0,1.0,0.0,7.0,0.0,-4.0,1.0,1650824242783646.0
-1.0,0.0,2.0,-4.0,-19.0,-12.0,-4.0,0.0,1650824242783646.0
-2.0,1.0,-3.0,5.0,5.0,2.0,2.0,0.0,1650824242784364.0
1.0,1.0,0.0,3.0,9.0,5.0,4.0,1.0,1650824242784364.0
1.0,3.0,3.0,5.0,11.0,4.0,3.0,3.0,1650824242805369.0
-1.0,-2.0,0.0,1.0,1.0,-1.0,-5.0,-1.0,1650824242805369.0
-1.0,-1.0,-1.0,-6.0,-7.0,-2.0,-2.0,-2.0,1650824242806307.0
-3.0,0.0,-4.0,-1.0,-9.0,-3.0,0.0,0.0,1650824242806307.0
-1.0,0.0,-3.0,-3.0,-4.0,-3.0,-2.0,0.0,1650824242822264.0
-1.0,-2.0,-3.0,-2.0,-1.0,-6.0,-2.0,-3.0,1650824242822264.0
2.0,1.0,-1.0,-3.0,-8.0,3.0,2.0,-1.0,1650824242823283.0
-2.0,-5.0,6.0,9.0,17.0,8.0,1.0,-3.0,1650824242823283.0
-1.0,8.0,12.0,11.0,4.0,0.0,2.0,1.0,1650824242843512.0
1.0,-4.0,-2.0,-2.0,4.0,5.0,2.0,2.0,1650824242843512.0
-4.0,-2.0,-4.0,-5.0,-3.0,-2.0,-2.0,-2.0,1650824242844462.0
1.0,1.0,-3.0,-1.0,-11.0,-8.0,-2.0,1.0,1650824242844462.0
-2.0,-3.0,-11.0,-6.0,-2.0,-1.0,-2.0,-1.0,1650824242865452.0
-1.0,-2.0,0.0,-6.0,3.0,-5.0,-4.0,-3.0,1650824242865452.0
3.0,5.0,9.0,2.0,-19.0,-5.0,1.0,0.0,1650824242866382.0
-3.0,0.0,-11.0,1.0,13.0,10.0,1.0,-1.0,1650824242866382.0
1.0,-3.0,-2.0,0.0,5.0,4.0,2.0,-1.0,1650824242880354.0
0.0,2.0,0.0,2.0,6.0,4.0,1.0,1.0,1650824242880354.0
-1.0,-2.0,-2.0,-2.0,0.0,-3.0,-2.0,-1.0,1650824242881354.0
1.0,-2.0,0.0,0.0,-8.0,-6.0,-1.0,0.0,1650824242881354.0
1.0,-3.0,1.0,0.0,-6.0,-1.0,-3.0,-2.0,1650824242903312.0
-2.0,-2.0,-2.0,-3.0,-7.0,-4.0,-3.0,-2.0,1650824242903312.0
-2.0,-1.0,-1.0,3.0,1.0,-2.0,-3.0,-2.0,1650824242904301.0
2.0,8.0,10.0,6.0,3.0,1.0,3.0,1.0,1650824242904301.0
-3.0,-3.0,0.0,-3.0,4.0,7.0,2.0,0.0,1650824242926223.0
-1.0,1.0,4.0,1.0,2.0,0.0,-1.0,0.0,1650824242926223.0
-3.0,-6.0,-5.0,-9.0,6.0,2.0,0.0,0.0,1650824242927220.0
0.0,1.0,-3.0,-4.0,-6.0,-6.0,-5.0,-3.0,1650824242927220.0
0.0,-2.0,0.0,0.0,-5.0,-3.0,-3.0,-1.0,1650824242941210.0
0.0,1.0,-3.0,-3.0,-6.0,-8.0,-4.0,-1.0,1650824242941210.0
-2.0,-3.0,1.0,-1.0,-8.0,1.0,1.0,-1.0,1650824242941210.0
1.0,-1.0,0.0,7.0,9.0,4.0,1.0,3.0,1650824242941210.0
0.0,1.0,6.0,4.0,9.0,7.0,4.0,0.0,1650824242963123.0
-2.0,0.0,-1.0,4.0,0.0,2.0,1.0,1.0,1650824242963123.0
0.0,-7.0,-5.0,-6.0,1.0,-5.0,-5.0,0.0,1650824242964132.0
-2.0,1.0,-5.0,-11.0,-14.0,-6.0,-4.0,-2.0,1650824242964132.0
0.0,0.0,-3.0,-2.0,-5.0,-5.0,-4.0,-3.0,1650824242985761.0
3.0,0.0,-3.0,-3.0,2.0,1.0,-2.0,0.0,1650824242985761.0
-1.0,0.0,-1.0,-3.0,-3.0,-3.0,0.0,-3.0,1650824242986788.0
-1.0,-2.0,3.0,6.0,0.0,1.0,2.0,-1.0,1650824242986788.0
4.0,7.0,6.0,7.0,9.0,1.0,1.0,2.0,1650824243000786.0
-3.0,-2.0,0.0,1.0,8.0,8.0,3.0,0.0,1650824243000786.0
-3.0,-4.0,-10.0,-3.0,3.0,2.0,0.0,0.0,1650824243001787.0
0.0,-2.0,-2.0,-6.0,-9.0,-6.0,-4.0,-1.0,1650824243001787.0
-2.0,-2.0,-2.0,-5.0,-9.0,-4.0,-2.0,-1.0,1650824243022730.0
0.0,1.0,0.0,2.0,-1.0,4.0,0.0,-1.0,1650824243022730.0
-1.0,2.0,4.0,3.0,1.0,-3.0,-2.0,-2.0,1650824243023728.0
1.0,1.0,0.0,-1.0,-11.0,-6.0,-1.0,0.0,1650824243023728.0
-5.0,-12.0,-3.0,3.0,2.0,1.0,3.0,-1.0,1650824243045699.0
0.0,1.0,7.0,10.0,10.0,10.0,5.0,0.0,1650824243045699.0
0.0,-2.0,-3.0,-11.0,5.0,4.0,-1.0,0.0,1650824243046667.0
1.0,-3.0,-2.0,-3.0,-1.0,-2.0,-4.0,-4.0,1650824243046667.0
1.0,2.0,-2.0,-3.0,-7.0,-5.0,0.0,0.0,1650824243060659.0
-1.0,0.0,-2.0,1.0,-6.0,-4.0,1.0,1.0,1650824243060659.0
2.0,2.0,0.0,3.0,3.0,-3.0,-2.0,-1.0,1650824243061627.0
3.0,1.0,-1.0,-3.0,-8.0,-5.0,-1.0,0.0,1650824243061627.0
-3.0,-2.0,1.0,2.0,6.0,2.0,-2.0,-3.0,1650824243083645.0
-2.0,0.0,0.0,1.0,11.0,7.0,3.0,1.0,1650824243083645.0
1.0,3.0,1.0,1.0,0.0,0.0,-1.0,1.0,1650824243083645.0
-1.0,-4.0,-6.0,-3.0,2.0,-2.0,-2.0,-5.0,1650824243083645.0
1.0,-3.0,-3.0,-5.0,-13.0,-4.0,-2.0,-1.0,1650824243105529.0
0.0,-2.0,-3.0,-2.0,7.0,-3.0,-1.0,-1.0,1650824243105529.0
1.0,2.0,7.0,5.0,-13.0,-6.0,0.0,1.0,1650824243106528.0
-1.0,-2.0,-5.0,0.0,5.0,3.0,-1.0,2.0,1650824243106528.0
-2.0,-1.0,-2.0,-8.0,3.0,4.0,1.0,1.0,1650824243120489.0
0.0,0.0,0.0,-4.0,-6.0,-6.0,-4.0,-1.0,1650824243120489.0
-1.0,-1.0,-1.0,0.0,2.0,1.0,-3.0,-1.0,1650824243121486.0
-1.0,-4.0,-5.0,1.0,2.0,4.0,1.0,-2.0,1650824243121486.0
1.0,3.0,-1.0,5.0,0.0,-1.0,3.0,2.0,1650824243143496.0
0.0,-3.0,-2.0,-8.0,-5.0,-3.0,-2.0,-2.0,1650824243143496.0
0.0,3.0,2.0,14.0,10.0,1.0,0.0,-1.0,1650824243144435.0
0.0,2.0,4.0,-7.0,-4.0,-4.0,-3.0,0.0,1650824243144435.0
0.0,0.0,0.0,-9.0,-6.0,-2.0,-2.0,-2.0,1650824243165372.0
-2.0,-1.0,-1.0,-1.0,-1.0,6.0,1.0,-2.0,1650824243165372.0
2.0,-3.0,-1.0,-1.0,3.0,1.0,0.0,0.0,1650824243166367.0
0.0,2.0,4.0,8.0,3.0,0.0,1.0,1.0,1650824243166367.0
-1.0,-2.0,-5.0,-3.0,-7.0,-5.0,-2.0,0.0,1650824243180330.0
0.0,2.0,1.0,1.0,-8.0,-2.0,0.0,0.0,1650824243180330.0
-1.0,-4.0,-5.0,-1.0,0.0,-3.0,-1.0,1.0,1650824243181328.0
-1.0,0.0,0.0,2.0,6.0,5.0,4.0,1.0,1650824243181328.0
0.0,0.0,6.0,-3.0,-5.0,-7.0,-4.0,-3.0,1650824243211510.0
-2.0,-4.0,-7.0,-3.0,-14.0,-8.0,-4.0,-4.0,1650824243211510.0
0.0,1.0,2.0,1.0,10.0,11.0,3.0,2.0,1650824243212443.0
-1.0,1.0,3.0,6.0,8.0,5.0,4.0,1.0,1650824243212443.0
0.0,2.0,0.0,4.0,1.0,-1.0,1.0,1.0,1650824243225436.0
1.0,-1.0,0.0,-4.0,-3.0,-7.0,-3.0,-2.0,1650824243225436.0
-2.0,-1.0,1.0,-5.0,-7.0,-2.0,-2.0,-3.0,1650824243226406.0
0.0,2.0,2.0,1.0,-3.0,-5.0,-2.0,0.0,1650824243226406.0
1.0,1.0,-1.0,2.0,6.0,-3.0,-1.0,0.0,1650824243240395.0
3.0,0.0,1.0,-1.0,2.0,4.0,9.0,37.0,1650824243240395.0
-1.0,2.0,1.0,0.0,11.0,7.0,-3.0,-26.0,1650824243241366.0
-2.0,-5.0,-5.0,-3.0,-8.0,-7.0,-5.0,-6.0,1650824243241366.0
0.0,-2.0,-9.0,4.0,-8.0,-7.0,-3.0,-9.0,1650824243263307.0
3.0,6.0,7.0,2.0,1.0,7.0,19.0,19.0,1650824243263307.0
-7.0,4.0,16.0,18.0,9.0,-4.0,-15.0,-26.0,1650824243264312.0
-4.0,-3.0,-18.0,-18.0,-10.0,-7.0,-5.0,-14.0,1650824243264312.0
16.0,-9.0,-30.0,-1.0,5.0,13.0,6.0,47.0,1650824243286246.0
-24.0,-23.0,-42.0,-59.0,-16.0,-12.0,-18.0,-70.0,1650824243286246.0
3.0,4.0,-2.0,-13.0,-14.0,-6.0,6.0,21.0,1650824243286246.0
-20.0,5.0,20.0,11.0,1.0,-8.0,-12.0,-24.0,1650824243286246.0
0.0,3.0,22.0,22.0,3.0,6.0,19.0,38.0,1650824243300953.0
-2.0,12.0,-20.0,1.0,6.0,4.0,-7.0,15.0,1650824243300953.0
-5.0,-21.0,-28.0,-13.0,6.0,6.0,9.0,-34.0,1650824243301960.0
18.0,-19.0,-63.0,-44.0,-10.0,1.0,-6.0,0.0,1650824243301960.0
5.0,11.0,30.0,6.0,-1.0,-4.0,-2.0,-3.0,1650824243324220.0
3.0,25.0,83.0,71.0,16.0,14.0,37.0,23.0,1650824243324220.0
1.0,-20.0,-76.0,-67.0,-17.0,-10.0,-24.0,-5.0,1650824243324220.0
-14.0,-17.0,-33.0,-7.0,0.0,-5.0,-17.0,-18.0,1650824243324220.0
2.0,3.0,-1.0,-23.0,2.0,-1.0,-4.0,-15.0,1650824243345265.0
-13.0,8.0,33.0,29.0,2.0,8.0,-10.0,1.0,1650824243345265.0
2.0,10.0,9.0,5.0,-1.0,-15.0,51.0,11.0,1650824243346234.0
-10.0,3.0,51.0,20.0,-6.0,-5.0,-33.0,-9.0,1650824243346234.0
-10.0,0.0,-21.0,1.0,11.0,7.0,7.0,-26.0,1650824243360264.0
17.0,-4.0,-8.0,18.0,31.0,21.0,-12.0,8.0,1650824243360264.0
16.0,25.0,-8.0,8.0,-5.0,4.0,10.0,38.0,1650824243368243.0
-7.0,-25.0,15.0,-24.0,-1.0,4.0,18.0,11.0,1650824243368243.0
-12.0,-9.0,-1.0,6.0,-7.0,-4.0,-13.0,-32.0,1650824243383688.0
24.0,49.0,24.0,0.0,-5.0,0.0,14.0,14.0,1650824243383688.0
-27.0,-98.0,-16.0,18.0,5.0,0.0,-20.0,-4.0,1650824243383688.0
-2.0,35.0,14.0,1.0,7.0,3.0,6.0,4.0,1650824243383688.0
13.0,42.0,44.0,28.0,5.0,5.0,3.0,-2.0,1650824243405631.0
-19.0,-60.0,-67.0,-31.0,-22.0,-22.0,-13.0,-22.0,1650824243405631.0
1.0,26.0,43.0,14.0,8.0,0.0,-11.0,11.0,1650824243413627.0
14.0,5.0,-16.0,-21.0,0.0,6.0,14.0,19.0,1650824243413627.0
0.0,-16.0,-35.0,-30.0,-1.0,-2.0,-7.0,4.0,1650824243419661.0
-29.0,-7.0,-4.0,9.0,-4.0,-4.0,-3.0,-16.0,1650824243419661.0
-7.0,22.0,21.0,0.0,-13.0,-4.0,-4.0,-18.0,1650824243428635.0
5.0,6.0,26.0,45.0,0.0,-3.0,-4.0,16.0,1650824243428635.0
1.0,-12.0,2.0,-15.0,-3.0,0.0,2.0,-18.0,1650824243443557.0
17.0,26.0,-60.0,-2.0,32.0,13.0,2.0,-7.0,1650824243443557.0
-2.0,-13.0,4.0,-38.0,-25.0,-12.0,6.0,69.0,1650824243444535.0
-15.0,2.0,25.0,27.0,-3.0,1.0,28.0,-31.0,1650824243444535.0
-1.0,-11.0,-9.0,-9.0,-11.0,-12.0,-85.0,-87.0,1650824243465498.0
8.0,12.0,33.0,27.0,7.0,-3.0,14.0,40.0,1650824243465498.0
20.0,10.0,8.0,22.0,7.0,2.0,11.0,44.0,1650824243466475.0
-15.0,-17.0,-46.0,-26.0,-9.0,-11.0,-20.0,-53.0,1650824243466475.0
-19.0,-9.0,39.0,12.0,-5.0,-7.0,3.0,10.0,1650824243488568.0
6.0,-20.0,-1.0,-7.0,-5.0,-2.0,2.0,-3.0,1650824243488568.0
28.0,50.0,55.0,73.0,36.0,24.0,9.0,-19.0,1650824243489501.0
-29.0,-49.0,-12.0,-81.0,-39.0,-20.0,-2.0,10.0,1650824243489501.0
3.0,18.0,-16.0,12.0,5.0,8.0,20.0,23.0,1650824243505108.0
2.0,9.0,-1.0,-47.0,-11.0,-7.0,-17.0,-9.0,1650824243505108.0
2.0,16.0,10.0,32.0,18.0,13.0,13.0,10.0,1650824243505108.0
23.0,9.0,7.0,61.0,13.0,3.0,-9.0,-3.0,1650824243505108.0
-1.0,6.0,0.0,-12.0,3.0,4.0,25.0,38.0,1650824243526032.0
-10.0,-15.0,6.0,-36.0,-30.0,-17.0,-25.0,-58.0,1650824243526032.0
-9.0,4.0,-12.0,-2.0,-10.0,-9.0,-15.0,-15.0,1650824243526032.0
-2.0,-14.0,-15.0,11.0,17.0,15.0,14.0,34.0,1650824243526032.0
9.0,27.0,35.0,33.0,7.0,6.0,3.0,33.0,1650824243539966.0
-8.0,-30.0,-20.0,-16.0,-1.0,-3.0,8.0,-26.0,1650824243539966.0
-24.0,-14.0,-19.0,-39.0,-15.0,-11.0,-34.0,-70.0,1650824243547945.0
18.0,23.0,18.0,17.0,2.0,3.0,9.0,21.0,1650824243547945.0
2.0,1.0,-11.0,-6.0,-10.0,-11.0,9.0,8.0,1650824243562906.0
12.0,1.0,7.0,29.0,2.0,-2.0,-6.0,20.0,1650824243562906.0
-17.0,-6.0,7.0,3.0,21.0,21.0,4.0,-11.0,1650824243563904.0
9.0,33.0,14.0,-19.0,10.0,5.0,5.0,37.0,1650824243563904.0
-14.0,-66.0,-11.0,-10.0,-17.0,-11.0,-6.0,-20.0,1650824243585865.0
-5.0,-19.0,2.0,-8.0,-10.0,-7.0,-4.0,-11.0,1650824243585865.0
-4.0,-28.0,-14.0,-25.0,-20.0,-11.0,-8.0,-6.0,1650824243586862.0
22.0,43.0,33.0,37.0,13.0,6.0,8.0,16.0,1650824243586862.0
-17.0,-26.0,-54.0,-7.0,21.0,10.0,9.0,5.0,1650824243599827.0
9.0,-7.0,5.0,-7.0,-7.0,-10.0,-16.0,-1.0,1650824243599827.0
-13.0,6.0,26.0,10.0,-11.0,-3.0,13.0,53.0,1650824243607785.0
17.0,-11.0,-11.0,2.0,6.0,5.0,0.0,5.0,1650824243607785.0
-16.0,4.0,0.0,-14.0,-6.0,-5.0,11.0,-20.0,1650824243623712.0
7.0,5.0,-19.0,7.0,0.0,1.0,-23.0,-2.0,1650824243623712.0
2.0,7.0,-4.0,5.0,5.0,4.0,16.0,1.0,1650824243623712.0
-1.0,-1.0,11.0,5.0,-2.0,-6.0,-19.0,-20.0,1650824243623712.0
4.0,2.0,-23.0,-15.0,-13.0,-7.0,5.0,17.0,1650824243645970.0
-7.0,12.0,20.0,7.0,1.0,-1.0,10.0,14.0,1650824243645970.0
12.0,8.0,-6.0,-20.0,-19.0,-8.0,7.0,33.0,1650824243646933.0
-7.0,-12.0,-41.0,-19.0,3.0,6.0,1.0,-25.0,1650824243646933.0
-10.0,-18.0,-5.0,-42.0,-22.0,-5.0,-20.0,-21.0,1650824243659929.0
-14.0,-40.0,45.0,57.0,40.0,17.0,15.0,18.0,1650824243659929.0
-2.0,-32.0,-49.0,-54.0,-12.0,-12.0,-13.0,-13.0,1650824243667911.0
-10.0,-1.0,14.0,6.0,-15.0,-13.0,-2.0,-18.0,1650824243667911.0
-2.0,20.0,-5.0,17.0,3.0,-3.0,-16.0,-29.0,1650824243683706.0
17.0,19.0,-3.0,-2.0,-6.0,1.0,13.0,71.0,1650824243683706.0
18.0,26.0,30.0,36.0,9.0,5.0,-13.0,-85.0,1650824243683706.0
-9.0,-40.0,-21.0,-6.0,3.0,2.0,-8.0,1.0,1650824243683706.0
19.0,5.0,5.0,-1.0,3.0,5.0,2.0,11.0,1650824243705762.0
-12.0,16.0,8.0,4.0,3.0,8.0,37.0,59.0,1650824243705762.0
-13.0,-8.0,-13.0,-7.0,-2.0,-12.0,-54.0,-78.0,1650824243706693.0
5.0,0.0,-8.0,-14.0,-11.0,-3.0,7.0,23.0,1650824243706693.0
20.0,7.0,4.0,18.0,5.0,3.0,9.0,17.0,1650824243719717.0
3.0,13.0,5.0,11.0,0.0,-1.0,-1.0,-25.0,1650824243719717.0
16.0,33.0,51.0,36.0,21.0,12.0,19.0,34.0,1650824243728633.0
-16.0,13.0,-52.0,-53.0,-8.0,-1.0,2.0,-3.0,1650824243728633.0
-12.0,-10.0,24.0,-25.0,3.0,-4.0,-11.0,-21.0,1650824243743720.0
-11.0,-25.0,-33.0,-46.0,-30.0,-13.0,-17.0,-24.0,1650824243743720.0
3.0,18.0,1.0,-2.0,12.0,12.0,16.0,18.0,1650824243743720.0
7.0,16.0,32.0,40.0,10.0,-2.0,-5.0,17.0,1650824243743720.0
24.0,44.0,14.0,36.0,13.0,9.0,17.0,40.0,1650824243765878.0
1.0,11.0,-16.0,-16.0,1.0,3.0,-6.0,-19.0,1650824243765878.0
-7.0,-16.0,3.0,7.0,-16.0,-12.0,6.0,11.0,1650824243766814.0
16.0,20.0,13.0,-1.0,2.0,6.0,9.0,2.0,1650824243766814.0
-10.0,-20.0,-22.0,-14.0,-11.0,-10.0,-15.0,-14.0,1650824243779920.0
-6.0,-7.0,-8.0,5.0,0.0,1.0,-8.0,-14.0,1650824243779920.0
-8.0,-10.0,-15.0,-2.0,0.0,-1.0,-9.0,-2.0,1650824243787969.0
-4.0,-11.0,9.0,8.0,-1.0,-1.0,8.0,12.0,1650824243787969.0
1.0,10.0,22.0,29.0,10.0,6.0,17.0,52.0,1650824243802929.0
-4.0,-16.0,-2.0,-19.0,1.0,-5.0,-25.0,-57.0,1650824243802929.0
8.0,5.0,-26.0,-29.0,-11.0,-7.0,-3.0,-37.0,1650824243803861.0
-16.0,-25.0,-7.0,13.0,-12.0,-1.0,-6.0,-17.0,1650824243803861.0
9.0,3.0,-2.0,0.0,12.0,5.0,6.0,6.0,1650824243825923.0
14.0,19.0,40.0,38.0,-6.0,-6.0,7.0,9.0,1650824243825923.0
-6.0,-10.0,25.0,-8.0,7.0,1.0,5.0,28.0,1650824243826911.0
2.0,-3.0,-11.0,-10.0,2.0,-3.0,-3.0,-9.0,1650824243826911.0
-7.0,1.0,4.0,21.0,-1.0,2.0,-7.0,-36.0,1650824243839942.0
7.0,8.0,-5.0,-3.0,7.0,6.0,10.0,21.0,1650824243839942.0
-6.0,3.0,7.0,23.0,-9.0,-11.0,-1.0,-9.0,1650824243848860.0
7.0,10.0,3.0,15.0,6.0,7.0,4.0,16.0,1650824243848860.0
0.0,-7.0,-43.0,-37.0,-5.0,0.0,-5.0,3.0,1650824243862987.0
-7.0,-11.0,-19.0,-9.0,-8.0,-10.0,-20.0,-7.0,1650824243862987.0
6.0,-2.0,2.0,3.0,-3.0,-1.0,16.0,25.0,1650824243863918.0
4.0,-5.0,14.0,8.0,8.0,6.0,18.0,28.0,1650824243863918.0
-9.0,8.0,-10.0,-13.0,-3.0,-7.0,6.0,0.0,1650824243885628.0
11.0,23.0,-17.0,-24.0,2.0,9.0,-1.0,-1.0,1650824243885628.0
5.0,-18.0,-14.0,-11.0,-7.0,-4.0,-7.0,-7.0,1650824243886643.0
-44.0,-11.0,10.0,2.0,1.0,4.0,-10.0,-7.0,1650824243886643.0
-15.0,13.0,22.0,10.0,5.0,3.0,5.0,-5.0,1650824243908812.0
-2.0,-26.0,11.0,49.0,7.0,1.0,9.0,12.0,1650824243908812.0
-3.0,21.0,14.0,-15.0,-7.0,6.0,-1.0,14.0,1650824243909743.0
13.0,7.0,34.0,-4.0,16.0,7.0,5.0,10.0,1650824243909743.0
-1.0,-12.0,-7.0,-13.0,0.0,-5.0,-8.0,-21.0,1650824243923711.0
3.0,37.0,40.0,22.0,0.0,2.0,11.0,1.0,1650824243923711.0
-2.0,-22.0,-50.0,-5.0,0.0,-2.0,-7.0,7.0,1650824243923711.0
-4.0,-21.0,5.0,-16.0,-21.0,-19.0,-13.0,-21.0,1650824243923711.0
9.0,16.0,31.0,19.0,-3.0,-1.0,3.0,32.0,1650824243945638.0
-6.0,-22.0,-16.0,-16.0,-4.0,-8.0,-11.0,-39.0,1650824243945638.0
1.0,-24.0,-7.0,5.0,4.0,5.0,5.0,41.0,1650824243946574.0
4.0,16.0,6.0,4.0,5.0,8.0,1.0,-73.0,1650824243946574.0
3.0,-10.0,-4.0,0.0,5.0,1.0,-7.0,3.0,1650824243969506.0
-4.0,2.0,-22.0,-23.0,-16.0,-10.0,8.0,18.0,1650824243969506.0
12.0,17.0,11.0,11.0,-2.0,4.0,6.0,8.0,1650824243969506.0
-4.0,-38.0,-10.0,19.0,-6.0,-5.0,8.0,19.0,1650824243969506.0
1.0,7.0,-5.0,-25.0,0.0,2.0,1.0,-4.0,1650824243983530.0
-6.0,-6.0,9.0,30.0,13.0,1.0,-2.0,-2.0,1650824243983530.0
6.0,0.0,-35.0,-42.0,1.0,1.0,3.0,-6.0,1650824243983530.0
-3.0,49.0,40.0,14.0,0.0,3.0,-1.0,21.0,1650824243983530.0
-23.0,-76.0,-21.0,-9.0,-9.0,-1.0,-3.0,-10.0,1650824244005527.0
3.0,-8.0,-7.0,2.0,3.0,4.0,9.0,15.0,1650824244005527.0
-8.0,16.0,21.0,-1.0,-9.0,-17.0,-22.0,-20.0,1650824244006497.0
17.0,59.0,43.0,41.0,3.0,0.0,1.0,32.0,1650824244006497.0
-5.0,-24.0,-46.0,-28.0,-14.0,-9.0,-15.0,-43.0,1650824244036609.0
-13.0,-7.0,-8.0,-20.0,-4.0,-3.0,6.0,-2.0,1650824244036609.0
-6.0,0.0,21.0,45.0,7.0,0.0,1.0,-12.0,1650824244037540.0
-5.0,-5.0,-40.0,-64.0,-10.0,-1.0,0.0,-3.0,1650824244037540.0
-8.0,20.0,29.0,32.0,2.0,4.0,-3.0,-10.0,1650824244043552.0
16.0,6.0,5.0,-16.0,-2.0,2.0,-1.0,24.0,1650824244043552.0
-3.0,-5.0,2.0,4.0,-4.0,-5.0,1.0,1.0,1650824244043552.0
3.0,-3.0,-14.0,13.0,3.0,-3.0,-19.0,-27.0,1650824244043552.0
12.0,12.0,0.0,-7.0,-13.0,-7.0,-6.0,-48.0,1650824244065636.0
-9.0,8.0,-1.0,-2.0,13.0,7.0,2.0,2.0,1650824244065636.0
-5.0,-13.0,-9.0,7.0,6.0,13.0,2.0,1.0,1650824244066623.0
16.0,4.0,11.0,23.0,31.0,12.0,5.0,14.0,1650824244066623.0
12.0,3.0,-16.0,-14.0,-14.0,-3.0,2.0,24.0,1650824244088564.0
6.0,31.0,-2.0,-16.0,7.0,0.0,-3.0,-18.0,1650824244088564.0
-8.0,-53.0,8.0,-8.0,-14.0,-3.0,1.0,-4.0,1650824244089566.0
-1.0,-14.0,-17.0,-18.0,-13.0,-8.0,-3.0,-3.0,1650824244089566.0
10.0,26.0,47.0,36.0,6.0,0.0,2.0,8.0,1650824244103620.0
9.0,5.0,4.0,13.0,-2.0,-1.0,-2.0,2.0,1650824244103620.0
-16.0,-18.0,-24.0,-16.0,8.0,1.0,2.0,-3.0,1650824244103620.0
-1.0,6.0,-4.0,-6.0,-9.0,-1.0,3.0,-1.0,1650824244103620.0
0.0,12.0,24.0,9.0,4.0,-3.0,-6.0,19.0,1650824244125425.0
-5.0,-14.0,-8.0,3.0,-7.0,4.0,-5.0,-23.0,1650824244125425.0
2.0,12.0,3.0,-1.0,1.0,-1.0,12.0,-5.0,1650824244126419.0
8.0,-11.0,-22.0,-12.0,-4.0,-2.0,-28.0,-14.0,1650824244126419.0
-40.0,-6.0,5.0,12.0,3.0,-2.0,21.0,16.0,1650824244148900.0
9.0,-2.0,-4.0,-13.0,-14.0,-13.0,-6.0,28.0,1650824244148900.0
14.0,9.0,-13.0,-12.0,-18.0,-11.0,-23.0,-30.0,1650824244149887.0
-4.0,4.0,-4.0,13.0,26.0,13.0,9.0,-3.0,1650824244149887.0
17.0,9.0,-14.0,0.0,14.0,11.0,13.0,32.0,1650824244162879.0
-14.0,-35.0,-19.0,-29.0,-5.0,6.0,-1.0,9.0,1650824244162879.0
10.0,-1.0,16.0,-17.0,-2.0,-2.0,4.0,3.0,1650824244163848.0
6.0,-6.0,-17.0,-7.0,-14.0,-7.0,9.0,6.0,1650824244163848.0
3.0,19.0,34.0,26.0,4.0,6.0,-1.0,6.0,1650824244186259.0
-14.0,-34.0,-80.0,-35.0,-3.0,-5.0,-3.0,-48.0,1650824244186259.0
-4.0,-4.0,11.0,-7.0,-13.0,-12.0,-6.0,6.0,1650824244186259.0
3.0,23.0,4.0,-4.0,-3.0,-4.0,4.0,0.0,1650824244186259.0
-9.0,-14.0,-11.0,-2.0,-3.0,-3.0,-11.0,-13.0,1650824244209357.0
0.0,26.0,59.0,35.0,7.0,2.0,3.0,-4.0,1650824244209357.0
5.0,39.0,-19.0,5.0,14.0,12.0,10.0,22.0,1650824244209357.0
20.0,-15.0,14.0,-3.0,-6.0,-7.0,-18.0,-8.0,1650824244209357.0
-6.0,-3.0,-4.0,-3.0,-1.0,2.0,3.0,9.0,1650824244223377.0
2.0,12.0,-1.0,-1.0,-5.0,-6.0,7.0,6.0,1650824244223377.0
-13.0,11.0,28.0,16.0,8.0,1.0,3.0,2.0,1650824244224337.0
-4.0,-16.0,-34.0,-4.0,-5.0,-5.0,14.0,23.0,1650824244224337.0
16.0,-6.0,-5.0,5.0,-24.0,-6.0,-2.0,-4.0,1650824244245612.0
-4.0,-2.0,44.0,32.0,30.0,20.0,-4.0,-7.0,1650824244245612.0
4.0,0.0,-71.0,-69.0,2.0,6.0,6.0,9.0,1650824244246541.0
-13.0,-2.0,6.0,19.0,-10.0,-9.0,-3.0,-3.0,1650824244246541.0
-4.0,-20.0,10.0,-21.0,3.0,-6.0,-4.0,-14.0,1650824244268543.0
-7.0,-20.0,-43.0,-65.0,-31.0,-13.0,-5.0,-19.0,1650824244268543.0
7.0,19.0,15.0,46.0,16.0,9.0,4.0,5.0,1650824244269491.0
-5.0,7.0,4.0,18.0,20.0,9.0,3.0,-10.0,1650824244269491.0
8.0,58.0,51.0,39.0,6.0,4.0,0.0,4.0,1650824244283462.0
-2.0,-20.0,-54.0,-57.0,-17.0,-9.0,11.0,33.0,1650824244283462.0
13.0,2.0,14.0,16.0,5.0,4.0,2.0,32.0,1650824244284440.0
-14.0,-20.0,-21.0,-20.0,-9.0,-5.0,17.0,66.0,1650824244284440.0
21.0,-15.0,-3.0,4.0,4.0,-1.0,-30.0,-43.0,1650824244314118.0
6.0,5.0,22.0,22.0,5.0,1.0,15.0,11.0,1650824244314118.0
-26.0,-15.0,-7.0,-1.0,-4.0,-1.0,3.0,-15.0,1650824244315117.0
-2.0,23.0,24.0,-1.0,-2.0,-1.0,-3.0,-8.0,1650824244315117.0
10.0,-6.0,-16.0,2.0,2.0,0.0,2.0,28.0,1650824244329079.0
-10.0,1.0,-6.0,-1.0,-4.0,-8.0,-10.0,-7.0,1650824244329079.0
6.0,-5.0,13.0,-9.0,2.0,2.0,-3.0,-9.0,1650824244330077.0
11.0,20.0,22.0,34.0,12.0,3.0,-8.0,-25.0,1650824244330077.0
-26.0,-69.0,-110.0,-97.0,-11.0,-3.0,3.0,2.0,1650824244343070.0
14.0,43.0,37.0,25.0,-2.0,3.0,0.0,4.0,1650824244343070.0
-1.0,-6.0,43.0,42.0,19.0,6.0,6.0,4.0,1650824244344041.0
-10.0,-23.0,-51.0,-32.0,-10.0,-1.0,3.0,11.0,1650824244344041.0
10.0,-2.0,1.0,3.0,-15.0,-12.0,-8.0,-17.0,1650824244365619.0
1.0,-4.0,10.0,14.0,-1.0,1.0,-1.0,7.0,1650824244365619.0
0.0,23.0,13.0,2.0,-2.0,-2.0,-6.0,-11.0,1650824244366616.0
12.0,8.0,23.0,16.0,6.0,4.0,2.0,16.0,1650824244366616.0
10.0,-8.0,-10.0,-1.0,3.0,4.0,6.0,-35.0,1650824244388557.0
-16.0,3.0,8.0,4.0,-1.0,1.0,-16.0,7.0,1650824244388557.0
-26.0,-1.0,7.0,12.0,1.0,-2.0,-4.0,-34.0,1650824244389554.0
-14.0,-15.0,-19.0,-17.0,-9.0,-5.0,3.0,-19.0,1650824244389554.0
1.0,-10.0,-11.0,-1.0,-4.0,1.0,-2.0,-12.0,1650824244403633.0
19.0,11.0,35.0,33.0,9.0,4.0,5.0,23.0,1650824244403633.0
8.0,34.0,-13.0,-22.0,6.0,2.0,0.0,7.0,1650824244403633.0
-13.0,-51.0,13.0,-3.0,3.0,4.0,-2.0,-10.0,1650824244403633.0
-14.0,-9.0,-65.0,-65.0,-38.0,-19.0,-11.0,-3.0,1650824244425607.0
2.0,0.0,-4.0,8.0,18.0,5.0,3.0,-5.0,1650824244425607.0
14.0,0.0,34.0,49.0,11.0,4.0,3.0,11.0,1650824244433557.0
0.0,-7.0,-4.0,-19.0,-6.0,-4.0,0.0,-12.0,1650824244433557.0
0.0,8.0,47.0,34.0,27.0,15.0,16.0,33.0,1650824244448516.0
-6.0,-16.0,-26.0,-5.0,-16.0,-12.0,-13.0,-9.0,1650824244448516.0
3.0,-3.0,-11.0,-22.0,-14.0,-3.0,-2.0,16.0,1650824244449513.0
9.0,21.0,27.0,18.0,5.0,3.0,0.0,-4.0,1650824244449513.0
19.0,15.0,2.0,16.0,2.0,4.0,3.0,-3.0,1650824244463549.0
-18.0,-9.0,-7.0,-18.0,-5.0,-7.0,-7.0,12.0,1650824244463549.0
-21.0,-35.0,-22.0,-2.0,-2.0,-3.0,17.0,16.0,1650824244464481.0
-13.0,18.0,7.0,-9.0,-8.0,-2.0,2.0,-21.0,1650824244464481.0
5.0,-12.0,4.0,7.0,1.0,-2.0,4.0,19.0,1650824244485486.0
20.0,43.0,47.0,28.0,7.0,5.0,1.0,0.0,1650824244485486.0
0.0,-35.0,-43.0,-19.0,-16.0,-6.0,-9.0,-9.0,1650824244486417.0
-1.0,-15.0,-14.0,-14.0,3.0,4.0,1.0,1.0,1650824244486417.0
-27.0,-6.0,10.0,4.0,-8.0,-5.0,-1.0,2.0,1650824244509398.0
7.0,18.0,9.0,26.0,19.0,7.0,4.0,-16.0,1650824244509398.0
4.0,-3.0,-1.0,-12.0,-3.0,4.0,2.0,6.0,1650824244509398.0
-1.0,-8.0,-32.0,-45.0,-6.0,0.0,-3.0,0.0,1650824244509398.0
-11.0,10.0,45.0,26.0,13.0,6.0,3.0,-8.0,1650824244522385.0
-10.0,-18.0,4.0,2.0,-9.0,-10.0,-2.0,21.0,1650824244522385.0
19.0,45.0,48.0,21.0,-4.0,-4.0,3.0,6.0,1650824244531296.0
3.0,-29.0,-21.0,2.0,-2.0,-2.0,-8.0,12.0,1650824244531296.0
-7.0,-5.0,1.0,-12.0,4.0,3.0,-6.0,16.0,1650824244545381.0
-4.0,34.0,29.0,6.0,-2.0,6.0,21.0,1.0,1650824244545381.0
-37.0,-25.0,-34.0,-16.0,-6.0,-10.0,-21.0,-18.0,1650824244553426.0
7.0,0.0,1.0,0.0,0.0,0.0,13.0,41.0,1650824244553426.0
-4.0,6.0,2.0,0.0,-7.0,-6.0,-6.0,-37.0,1650824244569386.0
1.0,-14.0,-9.0,18.0,1.0,6.0,-2.0,-18.0,1650824244569386.0
19.0,30.0,16.0,-1.0,4.0,1.0,-3.0,17.0,1650824244569386.0
-6.0,-10.0,-17.0,5.0,-2.0,-8.0,-7.0,-17.0,1650824244569386.0
-14.0,-29.0,-23.0,-20.0,-11.0,-7.0,-7.0,-5.0,1650824244591490.0
4.0,-2.0,-18.0,-26.0,14.0,5.0,-1.0,-6.0,1650824244591490.0
2.0,-11.0,-20.0,-13.0,-14.0,-6.0,-2.0,1.0,1650824244592421.0
8.0,21.0,45.0,58.0,22.0,14.0,-5.0,-14.0,1650824244592421.0
13.0,22.0,-1.0,8.0,17.0,8.0,10.0,20.0,1650824244605546.0
1.0,4.0,-8.0,-18.0,-9.0,-2.0,0.0,-15.0,1650824244605546.0
0.0,9.0,5.0,5.0,-3.0,1.0,-3.0,5.0,1650824244606481.0
-10.0,-7.0,-13.0,-7.0,-12.0,-9.0,-1.0,-13.0,1650824244606481.0
17.0,20.0,16.0,14.0,13.0,10.0,19.0,84.0,1650824244628644.0
3.0,-23.0,-14.0,-10.0,-8.0,-1.0,31.0,24.0,1650824244628644.0
6.0,1.0,10.0,0.0,-3.0,-7.0,-18.0,-16.0,1650824244629641.0
0.0,5.0,26.0,22.0,2.0,2.0,-13.0,-8.0,1650824244629641.0
1.0,-12.0,-46.0,-26.0,-8.0,-2.0,25.0,21.0,1650824244643038.0
-6.0,-17.0,-22.0,10.0,-2.0,-5.0,-37.0,-27.0,1650824244643038.0
11.0,17.0,-1.0,-32.0,-2.0,2.0,9.0,-2.0,1650824244651028.0
6.0,-4.0,31.0,52.0,13.0,1.0,4.0,7.0,1650824244651028.0
-3.0,5.0,17.0,-2.0,15.0,9.0,-7.0,-19.0,1650824244665979.0
-9.0,-25.0,14.0,-3.0,-30.0,-18.0,-9.0,1.0,1650824244665979.0
0.0,18.0,30.0,27.0,3.0,-4.0,0.0,-7.0,1650824244666977.0
9.0,-10.0,-49.0,-26.0,-5.0,0.0,-8.0,-13.0,1650824244666977.0
-46.0,4.0,32.0,36.0,8.0,-1.0,-6.0,-33.0,1650824244688985.0
24.0,-2.0,-30.0,-17.0,-2.0,-2.0,13.0,60.0,1650824244688985.0
-11.0,-14.0,-14.0,-12.0,-7.0,-7.0,-7.0,-23.0,1650824244689942.0
-7.0,9.0,19.0,9.0,-1.0,-2.0,-1.0,5.0,1650824244689942.0
14.0,-5.0,-16.0,-27.0,-14.0,-12.0,-16.0,-16.0,1650824244702950.0
7.0,-1.0,-4.0,-2.0,6.0,12.0,22.0,-13.0,1650824244702950.0
-32.0,-10.0,-6.0,1.0,13.0,4.0,-5.0,-2.0,1650824244710858.0
4.0,6.0,-1.0,-13.0,-9.0,-2.0,4.0,5.0,1650824244710858.0
8.0,5.0,-2.0,8.0,3.0,1.0,13.0,14.0,1650824244725883.0
-6.0,13.0,19.0,23.0,3.0,-1.0,-12.0,-14.0,1650824244725883.0
10.0,-20.0,-34.0,-33.0,3.0,8.0,8.0,3.0,1650824244726847.0
-3.0,13.0,10.0,-12.0,-13.0,-5.0,0.0,-22.0,1650824244726847.0
2.0,13.0,18.0,0.0,-5.0,-8.0,-12.0,-3.0,1650824244749754.0
-4.0,0.0,-19.0,-4.0,14.0,7.0,-3.0,-9.0,1650824244749754.0
0.0,-26.0,15.0,18.0,5.0,0.0,-2.0,-5.0,1650824244749754.0
-3.0,1.0,-11.0,-18.0,-1.0,0.0,-2.0,12.0,1650824244749754.0
6.0,18.0,10.0,4.0,-12.0,-3.0,1.0,7.0,1650824244762719.0
0.0,11.0,18.0,24.0,7.0,2.0,-3.0,-11.0,1650824244762719.0
2.0,2.0,-13.0,-3.0,0.0,-2.0,1.0,9.0,1650824244770778.0
4.0,10.0,-1.0,-18.0,-9.0,-3.0,1.0,-11.0,1650824244770778.0
-6.0,2.0,6.0,27.0,11.0,10.0,-7.0,-2.0,1650824244785803.0
-29.0,-36.0,-19.0,-35.0,-16.0,-19.0,31.0,6.0,1650824244785803.0
6.0,1.0,2.0,7.0,5.0,7.0,-19.0,-8.0,1650824244786764.0
-1.0,40.0,15.0,6.0,4.0,0.0,-3.0,35.0,1650824244786764.0
9.0,-31.0,-16.0,-3.0,2.0,-2.0,9.0,-51.0,1650824244808785.0
-8.0,-18.0,7.0,-10.0,0.0,3.0,-27.0,-24.0,1650824244808785.0
8.0,-19.0,-3.0,-1.0,-12.0,-11.0,5.0,2.0,1650824244809783.0
11.0,3.0,4.0,4.0,3.0,-3.0,9.0,13.0,1650824244809783.0
17.0,23.0,-2.0,-1.0,4.0,2.0,-2.0,13.0,1650824244831751.0
-22.0,24.0,17.0,-4.0,0.0,-1.0,-3.0,1.0,1650824244831751.0
1.0,-5.0,0.0,11.0,0.0,2.0,1.0,-6.0,1650824244831751.0
3.0,-23.0,-15.0,-12.0,-5.0,-3.0,-7.0,-5.0,1650824244831751.0
-5.0,-1.0,-6.0,-7.0,-5.0,-3.0,2.0,5.0,1650824244845714.0
-13.0,-26.0,-6.0,3.0,-1.0,4.0,-3.0,-8.0,1650824244845714.0
8.0,10.0,6.0,5.0,-2.0,-1.0,-2.0,4.0,1650824244846684.0
1.0,26.0,-4.0,-1.0,9.0,6.0,9.0,-2.0,1650824244846684.0
-16.0,-57.0,-10.0,-7.0,-8.0,-5.0,-7.0,0.0,1650824244868693.0
28.0,32.0,-1.0,-4.0,1.0,0.0,5.0,14.0,1650824244868693.0
-14.0,-3.0,0.0,2.0,-3.0,-4.0,-13.0,-14.0,1650824244869623.0
13.0,2.0,-6.0,-8.0,-5.0,1.0,7.0,-2.0,1650824244869623.0
9.0,16.0,9.0,4.0,4.0,2.0,7.0,4.0,1650824244891631.0
-48.0,-34.0,-12.0,5.0,8.0,6.0,-3.0,-12.0,1650824244891631.0
11.0,1.0,5.0,1.0,1.0,1.0,-3.0,-2.0,1650824244892588.0
1.0,-2.0,1.0,-8.0,-9.0,-8.0,-11.0,-15.0,1650824244892588.0
26.0,0.0,-1.0,-4.0,-5.0,0.0,-7.0,2.0,1650824244905555.0
6.0,38.0,2.0,3.0,1.0,7.0,6.0,13.0,1650824244905555.0
-45.0,-2.0,-7.0,2.0,8.0,12.0,26.0,9.0,1650824244906527.0
6.0,-23.0,-5.0,-2.0,-2.0,-11.0,-23.0,-29.0,1650824244906527.0
-1.0,6.0,-2.0,1.0,-3.0,-9.0,-3.0,3.0,1650824244927996.0
30.0,14.0,12.0,7.0,6.0,-1.0,-4.0,0.0,1650824244927996.0
23.0,20.0,-4.0,1.0,-1.0,5.0,3.0,3.0,1650824244928930.0
-16.0,-19.0,-7.0,-5.0,-2.0,4.0,4.0,7.0,1650824244928930.0
-17.0,-6.0,-1.0,-7.0,-1.0,-1.0,3.0,2.0,1650824244951879.0
17.0,2.0,-3.0,-3.0,-1.0,-4.0,-5.0,-1.0,1650824244951879.0
-6.0,-5.0,3.0,1.0,1.0,-1.0,1.0,2.0,1650824244951879.0
-5.0,-2.0,2.0,1.0,1.0,-1.0,1.0,1.0,1650824244951879.0
-9.0,6.0,8.0,0.0,-4.0,-3.0,-2.0,-6.0,1650824244965577.0
6.0,5.0,0.0,5.0,2.0,4.0,-1.0,2.0,1650824244965577.0
-9.0,-34.0,-11.0,-3.0,-3.0,-3.0,9.0,7.0,1650824244966519.0
7.0,6.0,3.0,-4.0,-7.0,-3.0,-11.0,-16.0,1650824244966519.0
-5.0,6.0,3.0,4.0,1.0,1.0,1.0,1.0,1650824244988519.0
-4.0,3.0,-6.0,-3.0,-4.0,-1.0,-5.0,-3.0,1650824244988519.0
13.0,8.0,3.0,4.0,6.0,3.0,3.0,8.0,1650824244989455.0
-5.0,-13.0,-1.0,4.0,4.0,0.0,5.0,3.0,1650824244989455.0
5.0,12.0,0.0,3.0,6.0,5.0,3.0,5.0,1650824245011415.0
-5.0,-23.0,-6.0,-2.0,-7.0,-2.0,-2.0,-3.0,1650824245011415.0
-14.0,-15.0,-2.0,-5.0,-11.0,-11.0,-9.0,-8.0,1650824245012385.0
-15.0,-6.0,2.0,7.0,8.0,0.0,-2.0,-6.0,1650824245012385.0
0.0,12.0,2.0,-1.0,1.0,0.0,-3.0,-5.0,1650824245025349.0
11.0,-1.0,-2.0,-1.0,-11.0,-6.0,0.0,1.0,1650824245025349.0
5.0,16.0,4.0,4.0,0.0,4.0,4.0,4.0,1650824245026347.0
3.0,-4.0,-7.0,-5.0,4.0,7.0,3.0,4.0,1650824245026347.0
-6.0,-5.0,-2.0,-1.0,4.0,-2.0,1.0,4.0,1650824245048477.0
-1.0,2.0,1.0,0.0,-10.0,-6.0,-5.0,-4.0,1650824245048477.0
7.0,4.0,-5.0,-1.0,0.0,-2.0,-3.0,-2.0,1650824245049408.0
-10.0,5.0,5.0,-1.0,5.0,0.0,1.0,1.0,1650824245049408.0
3.0,-4.0,-2.0,1.0,1.0,6.0,-1.0,-1.0,1650824245071529.0
-3.0,1.0,4.0,0.0,0.0,-4.0,-4.0,-5.0,1650824245071529.0
6.0,9.0,3.0,2.0,-5.0,-2.0,-3.0,-1.0,1650824245072460.0
-2.0,-3.0,-5.0,-4.0,-5.0,2.0,1.0,2.0,1650824245072460.0
-5.0,-2.0,7.0,10.0,1.0,-4.0,-2.0,-3.0,1650824245085491.0
0.0,1.0,-8.0,-16.0,-4.0,-2.0,-2.0,-1.0,1650824245085491.0
14.0,12.0,9.0,1.0,5.0,4.0,3.0,1.0,1650824245086422.0
-7.0,-7.0,3.0,9.0,9.0,5.0,2.0,1.0,1650824245086422.0
4.0,18.0,8.0,-1.0,4.0,0.0,-1.0,2.0,1650824245107759.0
-7.0,-19.0,4.0,-3.0,-15.0,-9.0,-4.0,-4.0,1650824245107759.0
-4.0,4.0,-3.0,-3.0,-5.0,-7.0,-3.0,-3.0,1650824245108688.0
2.0,13.0,-1.0,2.0,-2.0,2.0,2.0,3.0,1650824245108688.0
-5.0,-16.0,10.0,-3.0,-9.0,-6.0,-2.0,-4.0,1650824245133129.0
10.0,9.0,11.0,18.0,19.0,10.0,4.0,4.0,1650824245133129.0
0.0,1.0,-2.0,2.0,8.0,5.0,0.0,2.0,1650824245134131.0
-4.0,-15.0,-30.0,-34.0,-19.0,-3.0,-4.0,-3.0,1650824245134131.0
0.0,-2.0,-8.0,-7.0,-9.0,-13.0,-1.0,0.0,1650824245146121.0
-6.0,-6.0,-4.0,0.0,6.0,6.0,1.0,-1.0,1650824245146121.0
-1.0,-7.0,8.0,11.0,7.0,1.0,1.0,-1.0,1650824245147092.0
2.0,5.0,11.0,5.0,-1.0,0.0,0.0,3.0,1650824245147092.0
2.0,-3.0,-11.0,-4.0,-3.0,1.0,-1.0,-1.0,1650824245168038.0
1.0,0.0,-4.0,-6.0,-5.0,-3.0,-4.0,-1.0,1650824245168038.0
1.0,6.0,11.0,8.0,-1.0,-1.0,1.0,1.0,1650824245169033.0
-2.0,-6.0,-15.0,-1.0,3.0,1.0,5.0,-4.0,1650824245169033.0
-5.0,-5.0,-11.0,-11.0,-6.0,-2.0,-2.0,1.0,1650824245190973.0
2.0,1.0,2.0,4.0,8.0,-3.0,-2.0,-1.0,1650824245190973.0
1.0,-3.0,-8.0,-7.0,0.0,9.0,0.0,-1.0,1650824245191971.0
0.0,-1.0,10.0,2.0,-4.0,-8.0,-2.0,-2.0,1650824245191971.0
-1.0,4.0,8.0,9.0,-1.0,1.0,1.0,-1.0,1650824245205933.0
-3.0,-5.0,-9.0,0.0,1.0,-2.0,-1.0,-1.0,1650824245205933.0
-2.0,3.0,3.0,-10.0,-3.0,-4.0,-1.0,-1.0,1650824245206938.0
1.0,-3.0,-3.0,1.0,1.0,-3.0,0.0,0.0,1650824245206938.0
-1.0,-3.0,-12.0,-5.0,2.0,3.0,-3.0,-2.0,1650824245227874.0
-5.0,2.0,-3.0,-1.0,-2.0,-1.0,-1.0,-3.0,1650824245227874.0
-2.0,-3.0,-7.0,-3.0,-2.0,-4.0,0.0,-1.0,1650824245228872.0
0.0,5.0,21.0,8.0,0.0,1.0,2.0,3.0,1650824245228872.0
-3.0,-3.0,-11.0,-2.0,2.0,0.0,0.0,0.0,1650824245251824.0
1.0,1.0,-11.0,-20.0,-10.0,-5.0,-6.0,-3.0,1650824245251824.0
-1.0,0.0,-3.0,3.0,-1.0,-3.0,1.0,1.0,1650824245251824.0
0.0,4.0,7.0,8.0,7.0,3.0,2.0,0.0,1650824245251824.0
4.0,-4.0,4.0,4.0,14.0,7.0,2.0,0.0,1650824245265840.0
1.0,-2.0,-6.0,-5.0,-13.0,1.0,-1.0,1.0,1650824245265840.0
-1.0,-4.0,2.0,4.0,0.0,-5.0,-3.0,0.0,1650824245266771.0
3.0,4.0,-1.0,-7.0,-9.0,-8.0,-5.0,0.0,1650824245266771.0
-8.0,-7.0,5.0,8.0,-4.0,-2.0,0.0,-2.0,1650824245288450.0
0.0,0.0,2.0,3.0,10.0,5.0,-1.0,1.0,1650824245288450.0
0.0,-4.0,-2.0,-1.0,3.0,4.0,3.0,2.0,1650824245289407.0
-3.0,-5.0,-12.0,-5.0,-3.0,5.0,2.0,0.0,1650824245289407.0
-1.0,-12.0,-4.0,-4.0,-5.0,-6.0,-3.0,-1.0,1650824245311428.0
5.0,7.0,8.0,1.0,5.0,-1.0,-1.0,0.0,1650824245311428.0
0.0,1.0,-5.0,-2.0,-5.0,0.0,-3.0,1.0,1650824245312369.0
-2.0,2.0,9.0,3.0,0.0,-1.0,0.0,0.0,1650824245312369.0
1.0,4.0,-6.0,-8.0,-12.0,-6.0,-4.0,0.0,1650824245325396.0
-3.0,-8.0,-14.0,-5.0,-2.0,1.0,-2.0,-1.0,1650824245325396.0
-1.0,13.0,14.0,10.0,7.0,5.0,6.0,0.0,1650824245326326.0
-3.0,-7.0,4.0,8.0,3.0,1.0,1.0,-1.0,1650824245326326.0
-1.0,0.0,-1.0,-10.0,4.0,7.0,3.0,1.0,1650824245348330.0
1.0,-3.0,1.0,0.0,1.0,0.0,-1.0,0.0,1650824245348330.0
-1.0,1.0,-2.0,-10.0,-5.0,-3.0,-3.0,-2.0,1650824245349288.0
1.0,-1.0,-5.0,-1.0,-6.0,-4.0,-2.0,-1.0,1650824245349288.0
0.0,1.0,0.0,3.0,-5.0,-1.0,-1.0,-1.0,1650824245371270.0
2.0,7.0,10.0,1.0,-1.0,-1.0,-3.0,2.0,1650824245371270.0
-3.0,-13.0,-31.0,-4.0,-6.0,-3.0,-4.0,-2.0,1650824245372204.0
-5.0,1.0,18.0,4.0,2.0,2.0,4.0,0.0,1650824245372204.0
1.0,3.0,1.0,-1.0,13.0,8.0,2.0,3.0,1650824245386194.0
2.0,3.0,8.0,5.0,7.0,3.0,5.0,1.0,1650824245386194.0
1.0,-3.0,-5.0,-4.0,-7.0,-3.0,-4.0,-1.0,1650824245386194.0
-1.0,-4.0,-11.0,-3.0,-7.0,-9.0,-4.0,1.0,1650824245386194.0
1.0,6.0,1.0,1.0,-3.0,0.0,2.0,0.0,1650824245408307.0
1.0,1.0,-2.0,3.0,2.0,1.0,2.0,0.0,1650824245408307.0
0.0,-3.0,5.0,-4.0,-3.0,-3.0,-3.0,-2.0,1650824245409236.0
1.0,1.0,6.0,0.0,8.0,2.0,-2.0,-2.0,1650824245409236.0
6.0,11.0,15.0,16.0,-7.0,1.0,2.0,1.0,1650824245431947.0
-7.0,-20.0,-39.0,-28.0,0.0,0.0,2.0,0.0,1650824245431947.0
-7.0,1.0,-1.0,5.0,-1.0,-3.0,-5.0,-5.0,1650824245431947.0
-1.0,-2.0,-2.0,-7.0,9.0,4.0,2.0,-4.0,1650824245431947.0
-2.0,1.0,11.0,5.0,-1.0,-3.0,-2.0,0.0,1650824245445580.0
1.0,4.0,14.0,6.0,-7.0,-4.0,0.0,-1.0,1650824245445580.0
2.0,2.0,1.0,-7.0,-1.0,2.0,2.0,0.0,1650824245453708.0
0.0,3.0,-6.0,-2.0,-1.0,1.0,-2.0,-1.0,1650824245453708.0
-2.0,-4.0,-6.0,-1.0,1.0,-5.0,-1.0,-1.0,1650824245468261.0
1.0,0.0,3.0,0.0,-8.0,-9.0,-2.0,-1.0,1650824245468261.0
0.0,-3.0,1.0,0.0,-4.0,-2.0,2.0,1.0,1650824245469284.0
2.0,3.0,9.0,11.0,13.0,10.0,3.0,3.0,1650824245469284.0
0.0,-2.0,-5.0,-2.0,14.0,6.0,0.0,2.0,1650824245491343.0
-2.0,-2.0,5.0,3.0,-4.0,1.0,0.0,-3.0,1650824245491343.0
1.0,1.0,-3.0,-9.0,-11.0,-5.0,-3.0,0.0,1650824245492280.0
-2.0,-6.0,-7.0,-2.0,-9.0,-9.0,-4.0,-2.0,1650824245492280.0
0.0,-2.0,-2.0,-1.0,-5.0,1.0,0.0,-2.0,1650824245505272.0
0.0,2.0,2.0,1.0,2.0,2.0,-1.0,0.0,1650824245505272.0
2.0,-1.0,0.0,1.0,-2.0,-2.0,-1.0,-1.0,1650824245513291.0
-1.0,0.0,-6.0,-6.0,-11.0,-5.0,-1.0,0.0,1650824245513291.0
-5.0,-4.0,-4.0,-3.0,4.0,2.0,1.0,-1.0,1650824245528299.0
1.0,6.0,11.0,13.0,6.0,2.0,1.0,0.0,1650824245528299.0
0.0,-1.0,-8.0,1.0,6.0,4.0,1.0,-1.0,1650824245529255.0
1.0,1.0,-1.0,-1.0,-2.0,-3.0,-1.0,0.0,1650824245529255.0
-1.0,0.0,1.0,-12.0,-6.0,-3.0,-2.0,-5.0,1650824245551322.0
-3.0,-5.0,-1.0,0.0,-1.0,-1.0,-2.0,1.0,1650824245551322.0
0.0,3.0,4.0,1.0,1.0,1.0,-2.0,1.0,1650824245552319.0
0.0,-2.0,-7.0,-2.0,-3.0,-4.0,-4.0,1.0,1650824245552319.0
-1.0,-1.0,-2.0,2.0,-8.0,-3.0,2.0,0.0,1650824245565285.0
-1.0,0.0,1.0,5.0,-7.0,-4.0,0.0,-1.0,1650824245565285.0
0.0,-1.0,2.0,4.0,18.0,6.0,2.0,1.0,1650824245573667.0
3.0,4.0,-1.0,0.0,6.0,2.0,2.0,1.0,1650824245573667.0
-1.0,-7.0,-7.0,1.0,-2.0,0.0,1.0,0.0,1650824245588595.0
-4.0,-5.0,-3.0,-8.0,-4.0,-4.0,-2.0,-3.0,1650824245588595.0
-2.0,0.0,3.0,-2.0,-12.0,-8.0,-3.0,-3.0,1650824245588595.0
-2.0,0.0,4.0,-2.0,-3.0,-3.0,-3.0,-1.0,1650824245588595.0
1.0,0.0,-9.0,-2.0,3.0,2.0,-1.0,-1.0,1650824245610175.0
1.0,5.0,0.0,1.0,-6.0,-4.0,-1.0,2.0,1650824245610175.0
0.0,-1.0,5.0,3.0,0.0,2.0,1.0,0.0,1650824245618128.0
0.0,1.0,1.0,0.0,10.0,7.0,2.0,-2.0,1650824245618128.0
-2.0,1.0,-5.0,-2.0,-1.0,-4.0,-5.0,-2.0,1650824245625578.0
-3.0,-3.0,0.0,3.0,6.0,7.0,3.0,0.0,1650824245625578.0
2.0,0.0,3.0,-1.0,-3.0,-2.0,2.0,0.0,1650824245633620.0
-1.0,-2.0,-4.0,-3.0,-6.0,-5.0,-1.0,-1.0,1650824245633620.0
1.0,0.0,0.0,-1.0,3.0,2.0,-2.0,-1.0,1650824245648711.0
2.0,1.0,-4.0,-7.0,-15.0,-13.0,-6.0,-2.0,1650824245648711.0
-3.0,-1.0,-3.0,3.0,14.0,11.0,3.0,-1.0,1650824245648711.0
1.0,5.0,-2.0,8.0,-2.0,8.0,1.0,2.0,1650824245648711.0
-4.0,-2.0,15.0,2.0,5.0,-10.0,-1.0,-4.0,1650824245671768.0
0.0,4.0,0.0,3.0,13.0,8.0,0.0,3.0,1650824245671768.0
-1.0,-6.0,-6.0,-8.0,-7.0,-8.0,-4.0,0.0,1650824245671768.0
-1.0,0.0,-3.0,-5.0,-11.0,-5.0,-3.0,-3.0,1650824245671768.0
0.0,2.0,-2.0,0.0,-3.0,0.0,0.0,1.0,1650824245684667.0
1.0,0.0,-3.0,-2.0,-1.0,-1.0,-2.0,-2.0,1650824245684667.0
0.0,0.0,5.0,-2.0,-7.0,-5.0,-3.0,-1.0,1650824245700711.0
-1.0,-7.0,-5.0,-6.0,-7.0,-6.0,-3.0,0.0,1650824245700711.0
-1.0,3.0,5.0,8.0,11.0,14.0,8.0,0.0,1650824245708624.0
2.0,1.0,7.0,10.0,9.0,6.0,5.0,1.0,1650824245708624.0
0.0,3.0,5.0,-2.0,2.0,2.0,0.0,2.0,1650824245708624.0
-2.0,-1.0,-4.0,-5.0,-4.0,-6.0,-5.0,-4.0,1650824245708624.0
0.0,-4.0,-8.0,-7.0,-10.0,-11.0,-6.0,-1.0,1650824245731052.0
1.0,3.0,4.0,1.0,1.0,2.0,0.0,-1.0,1650824245731052.0
0.0,-3.0,0.0,2.0,-1.0,0.0,2.0,0.0,1650824245731982.0
-1.0,-5.0,-2.0,-6.0,8.0,1.0,-3.0,-1.0,1650824245731982.0
1.0,1.0,1.0,-2.0,-19.0,-12.0,-3.0,0.0,1650824245744975.0
1.0,1.0,0.0,3.0,2.0,-2.0,2.0,0.0,1650824245744975.0
1.0,-1.0,-1.0,2.0,8.0,8.0,2.0,2.0,1650824245752927.0
-1.0,0.0,5.0,7.0,11.0,5.0,4.0,0.0,1650824245752927.0
0.0,-3.0,1.0,8.0,20.0,9.0,0.0,1.0,1650824245767886.0
3.0,-2.0,-5.0,-18.0,-14.0,-8.0,-4.0,-3.0,1650824245767886.0
-4.0,-13.0,-8.0,-2.0,-12.0,-11.0,-3.0,-3.0,1650824245768883.0
2.0,7.0,14.0,4.0,-5.0,3.0,2.0,0.0,1650824245768883.0
0.0,2.0,-5.0,-2.0,-5.0,-2.0,1.0,1.0,1650824245791921.0
-5.0,-3.0,-3.0,-3.0,-4.0,-4.0,-2.0,-2.0,1650824245791921.0
-3.0,-2.0,1.0,8.0,6.0,5.0,2.0,-2.0,1650824245791921.0
2.0,0.0,-1.0,-2.0,7.0,4.0,2.0,1.0,1650824245791921.0
2.0,0.0,-1.0,0.0,1.0,-2.0,0.0,1.0,1650824245813883.0
0.0,0.0,-1.0,0.0,4.0,2.0,-1.0,1.0,1650824245813883.0
1.0,1.0,-5.0,-5.0,-11.0,-6.0,-2.0,-2.0,1650824245814854.0
-4.0,-4.0,-4.0,-1.0,7.0,3.0,0.0,-1.0,1650824245814854.0
1.0,-2.0,-1.0,0.0,-12.0,-6.0,1.0,-1.0,1650824245827848.0
-1.0,-1.0,-2.0,1.0,1.0,2.0,0.0,-1.0,1650824245827848.0
-2.0,0.0,-6.0,-2.0,-1.0,-3.0,-1.0,-1.0,1650824245828816.0
1.0,0.0,-2.0,-3.0,-2.0,1.0,1.0,-1.0,1650824245828816.0
-2.0,1.0,0.0,-1.0,5.0,7.0,2.0,1.0,1650824245851754.0
-1.0,-2.0,3.0,4.0,4.0,-1.0,-2.0,0.0,1650824245851754.0
0.0,0.0,-2.0,-4.0,-6.0,-4.0,-4.0,-1.0,1650824245851754.0
1.0,-1.0,-4.0,-2.0,-4.0,-3.0,1.0,-2.0,1650824245851754.0
0.0,0.0,1.0,0.0,2.0,0.0,0.0,-1.0,1650824245874393.0
-1.0,-1.0,-1.0,7.0,3.0,3.0,2.0,-2.0,1650824245874393.0
2.0,3.0,-1.0,-13.0,-1.0,0.0,1.0,-1.0,1650824245874393.0
-1.0,-4.0,-6.0,2.0,1.0,-7.0,-4.0,0.0,1650824245874393.0
0.0,-1.0,5.0,1.0,-4.0,3.0,-2.0,0.0,1650824245888421.0
1.0,3.0,1.0,0.0,-10.0,-2.0,0.0,0.0,1650824245888421.0
0.0,-11.0,-26.0,-8.0,-2.0,-6.0,-3.0,-4.0,1650824245889379.0
-2.0,-4.0,-4.0,-1.0,-10.0,-4.0,0.0,-1.0,1650824245889379.0
0.0,2.0,6.0,6.0,12.0,4.0,-1.0,0.0,1650824245911365.0
-2.0,-1.0,0.0,0.0,7.0,1.0,3.0,0.0,1650824245911365.0
-2.0,5.0,6.0,-2.0,0.0,4.0,1.0,-1.0,1650824245912322.0
0.0,1.0,0.0,1.0,-6.0,0.0,3.0,3.0,1650824245912322.0
-1.0,-6.0,-10.0,2.0,0.0,-2.0,-1.0,-1.0,1650824245934263.0
2.0,-1.0,2.0,1.0,7.0,4.0,0.0,0.0,1650824245934263.0
-2.0,4.0,9.0,5.0,0.0,0.0,1.0,0.0,1650824245934263.0
-2.0,-1.0,-2.0,2.0,-2.0,-2.0,-1.0,-2.0,1650824245934263.0
-2.0,0.0,-1.0,-5.0,-4.0,-2.0,-1.0,-3.0,1650824245948263.0
0.0,-1.0,-2.0,-2.0,-3.0,-4.0,-2.0,1.0,1650824245948263.0
1.0,0.0,3.0,-2.0,-4.0,-3.0,0.0,0.0,1650824245949196.0
2.0,0.0,1.0,1.0,1.0,-3.0,-2.0,0.0,1650824245949196.0
-1.0,1.0,0.0,-3.0,-4.0,2.0,-1.0,-1.0,1650824245970148.0
0.0,-3.0,-4.0,-2.0,0.0,-2.0,1.0,2.0,1650824245970148.0
0.0,-2.0,-1.0,4.0,1.0,4.0,-1.0,0.0,1650824245978120.0
-1.0,0.0,0.0,-2.0,-4.0,-6.0,-3.0,0.0,1650824245978120.0
0.0,-1.0,1.0,-4.0,7.0,5.0,2.0,-2.0,1650824245994103.0
-3.0,-1.0,-8.0,1.0,-2.0,-2.0,0.0,-1.0,1650824245994103.0
-4.0,-1.0,0.0,-8.0,-11.0,-4.0,-3.0,-1.0,1650824245995074.0
2.0,6.0,6.0,5.0,11.0,14.0,4.0,1.0,1650824245995074.0
-2.0,-8.0,-2.0,0.0,1.0,-5.0,-2.0,1.0,1650824246008066.0
-1.0,4.0,7.0,-1.0,-3.0,-1.0,2.0,1.0,1650824246008066.0
-4.0,-2.0,-6.0,-3.0,-1.0,-3.0,-4.0,-3.0,1650824246009046.0
3.0,-2.0,-3.0,-3.0,-16.0,-8.0,0.0,-1.0,1650824246009046.0
0.0,-1.0,-2.0,2.0,1.0,2.0,0.0,-2.0,1650824246031124.0
0.0,1.0,2.0,-1.0,5.0,5.0,2.0,0.0,1650824246031124.0
0.0,2.0,4.0,2.0,-3.0,-3.0,-1.0,1.0,1650824246032103.0
-2.0,0.0,-3.0,-6.0,-3.0,-6.0,-3.0,-1.0,1650824246032103.0
0.0,2.0,3.0,1.0,-5.0,-8.0,0.0,1.0,1650824246054034.0
-2.0,-4.0,1.0,-1.0,1.0,5.0,0.0,-3.0,1650824246054034.0
3.0,2.0,3.0,4.0,9.0,3.0,2.0,-1.0,1650824246055031.0
-2.0,-5.0,-4.0,-1.0,-1.0,-4.0,-3.0,-1.0,1650824246055031.0
0.0,-2.0,-3.0,-6.0,-14.0,-8.0,-2.0,0.0,1650824246068063.0
-3.0,-3.0,-4.0,4.0,13.0,7.0,0.0,-1.0,1650824246068063.0
1.0,3.0,5.0,7.0,5.0,18.0,5.0,2.0,1650824246068994.0
0.0,2.0,2.0,3.0,4.0,-11.0,0.0,2.0,1650824246068994.0
-1.0,2.0,-6.0,3.0,-6.0,-9.0,-6.0,-2.0,1650824246090934.0
-1.0,-5.0,9.0,-21.0,-16.0,-10.0,-6.0,0.0,1650824246090934.0
-2.0,-2.0,-6.0,-4.0,-6.0,-2.0,-3.0,-2.0,1650824246091935.0
-1.0,3.0,9.0,11.0,6.0,12.0,6.0,0.0,1650824246091935.0
-1.0,1.0,1.0,6.0,26.0,16.0,5.0,3.0,1650824246113932.0
1.0,1.0,-1.0,4.0,0.0,-1.0,-2.0,-1.0,1650824246113932.0
2.0,1.0,0.0,2.0,11.0,-3.0,-1.0,1.0,1650824246114908.0
0.0,-2.0,1.0,-9.0,-14.0,-2.0,-4.0,4.0,1650824246114908.0
-3.0,-3.0,-5.0,-8.0,-5.0,-13.0,-6.0,-20.0,1650824246127931.0
-1.0,-1.0,-2.0,0.0,-26.0,-4.0,-2.0,-3.0,1650824246127931.0
1.0,0.0,2.0,-1.0,7.0,6.0,5.0,9.0,1650824246128864.0
0.0,3.0,2.0,5.0,8.0,2.0,1.0,-6.0,1650824246128864.0
0.0,1.0,-1.0,5.0,15.0,9.0,-2.0,-2.0,1650824246151803.0
-2.0,-6.0,-5.0,-7.0,2.0,-1.0,-1.0,11.0,1650824246151803.0
-4.0,-2.0,-8.0,-11.0,-14.0,-13.0,-5.0,-10.0,1650824246152806.0
-4.0,-1.0,4.0,0.0,-3.0,2.0,2.0,11.0,1650824246152806.0
5.0,-2.0,-8.0,-5.0,-8.0,7.0,-1.0,5.0,1650824246173856.0
-9.0,1.0,-1.0,13.0,3.0,-14.0,-2.0,-13.0,1650824246173856.0
15.0,-1.0,-14.0,-5.0,-9.0,3.0,6.0,39.0,1650824246174823.0
-5.0,-9.0,-28.0,-31.0,-4.0,-3.0,-8.0,-18.0,1650824246174823.0
-10.0,-6.0,11.0,2.0,-8.0,0.0,10.0,4.0,1650824246187858.0
7.0,6.0,2.0,-9.0,8.0,2.0,0.0,23.0,1650824246187858.0
5.0,17.0,32.0,25.0,-1.0,-3.0,-5.0,-21.0,1650824246188793.0
5.0,11.0,8.0,9.0,14.0,13.0,13.0,35.0,1650824246188793.0
4.0,-2.0,-19.0,-16.0,-21.0,-26.0,-6.0,-1.0,1650824246210797.0
2.0,3.0,4.0,7.0,2.0,9.0,7.0,-2.0,1650824246210797.0
6.0,1.0,16.0,16.0,25.0,10.0,-1.0,7.0,1650824246218715.0
-5.0,2.0,39.0,25.0,-8.0,2.0,-5.0,-73.0,1650824246218715.0
-4.0,-13.0,-62.0,-53.0,-19.0,-14.0,-1.0,16.0,1650824246233667.0
16.0,-7.0,-7.0,-9.0,-6.0,9.0,18.0,14.0,1650824246233667.0
-16.0,-8.0,-5.0,6.0,-10.0,-20.0,-59.0,1.0,1650824246234664.0
5.0,14.0,46.0,35.0,35.0,14.0,31.0,-6.0,1650824246234664.0
5.0,18.0,-22.0,-9.0,1.0,-4.0,-32.0,-25.0,1650824246256633.0
-7.0,-27.0,-5.0,16.0,3.0,20.0,7.0,-5.0,1650824246256633.0
-14.0,-47.0,-66.0,-49.0,-25.0,-16.0,8.0,46.0,1650824246257563.0
-2.0,-13.0,-30.0,-33.0,0.0,-2.0,-11.0,2.0,1650824246257563.0
13.0,40.0,89.0,67.0,21.0,18.0,8.0,1.0,1650824246271526.0
-4.0,21.0,7.0,-1.0,-1.0,-2.0,11.0,-4.0,1650824246271526.0
11.0,3.0,51.0,-20.0,-23.0,-12.0,3.0,65.0,1650824246272524.0
-13.0,-3.0,5.0,-2.0,-17.0,-22.0,-19.0,-53.0,1650824246272524.0
-2.0,0.0,30.0,25.0,19.0,23.0,30.0,39.0,1650824246293467.0
-21.0,21.0,-3.0,7.0,-2.0,-4.0,34.0,-81.0,1650824246293467.0
9.0,-3.0,0.0,-5.0,4.0,8.0,-10.0,-4.0,1650824246294464.0
-7.0,14.0,5.0,-7.0,-10.0,-14.0,-30.0,-53.0,1650824246294464.0
38.0,-21.0,-29.0,2.0,2.0,-2.0,2.0,40.0,1650824246307631.0
-27.0,-59.0,-53.0,6.0,2.0,-7.0,-10.0,38.0,1650824246307631.0
-20.0,-2.0,11.0,-11.0,-6.0,-8.0,28.0,-52.0,1650824246315572.0
-7.0,-36.0,-44.0,-52.0,-20.0,-1.0,1.0,29.0,1650824246315572.0
-14.0,-32.0,-7.0,-10.0,1.0,7.0,-3.0,-8.0,1650824246331499.0
13.0,27.0,22.0,28.0,15.0,1.0,-29.0,-43.0,1650824246331499.0
-2.0,3.0,7.0,40.0,14.0,13.0,1.0,-39.0,1650824246332496.0
-8.0,-2.0,-27.0,0.0,4.0,14.0,-7.0,7.0,1650824246332496.0
18.0,15.0,48.0,1.0,0.0,-12.0,10.0,32.0,1650824246354459.0
3.0,-56.0,-50.0,-46.0,-24.0,-20.0,-13.0,30.0,1650824246354459.0
-1.0,39.0,13.0,-20.0,-2.0,10.0,9.0,-36.0,1650824246354459.0
29.0,44.0,46.0,47.0,12.0,6.0,17.0,-12.0,1650824246354459.0
-23.0,16.0,-9.0,-1.0,8.0,-2.0,-13.0,-17.0,1650824246368428.0
-7.0,-22.0,6.0,3.0,6.0,14.0,52.0,-7.0,1650824246368428.0
5.0,-22.0,26.0,3.0,6.0,-6.0,-33.0,20.0,1650824246369399.0
-8.0,-25.0,-49.0,3.0,-2.0,-3.0,3.0,7.0,1650824246369399.0
-54.0,-22.0,-10.0,-40.0,-21.0,-8.0,-21.0,-79.0,1650824246391406.0
32.0,59.0,37.0,38.0,10.0,-4.0,-13.0,19.0,1650824246391406.0
23.0,95.0,68.0,46.0,26.0,16.0,15.0,5.0,1650824246392337.0
-7.0,-69.0,-65.0,-46.0,-34.0,-17.0,3.0,39.0,1650824246392337.0
-12.0,-7.0,-34.0,-21.0,-5.0,-6.0,-15.0,-29.0,1650824246414355.0
-11.0,-4.0,-14.0,-20.0,-2.0,4.0,-22.0,-24.0,1650824246414355.0
24.0,28.0,-2.0,23.0,17.0,24.0,55.0,119.0,1650824246414355.0
7.0,41.0,40.0,28.0,12.0,0.0,-22.0,7.0,1650824246414355.0
32.0,-5.0,-12.0,-10.0,-1.0,5.0,4.0,5.0,1650824246427351.0
-1.0,36.0,36.0,9.0,3.0,-3.0,-13.0,29.0,1650824246427351.0
-18.0,-21.0,-31.0,-20.0,-9.0,-4.0,-5.0,-27.0,1650824246435302.0
-59.0,-8.0,3.0,30.0,11.0,1.0,21.0,69.0,1650824246435302.0
24.0,3.0,-6.0,-6.0,-8.0,-7.0,7.0,1.0,1650824246451928.0
-11.0,44.0,46.0,-28.0,-8.0,-6.0,-28.0,-15.0,1650824246451928.0
21.0,-10.0,-12.0,-7.0,-2.0,0.0,28.0,46.0,1650824246451928.0
43.0,25.0,-9.0,-22.0,-15.0,-9.0,-25.0,20.0,1650824246451928.0
-10.0,16.0,34.0,27.0,27.0,26.0,-4.0,-58.0,1650824246473930.0
10.0,27.0,2.0,17.0,-8.0,-19.0,-17.0,0.0,1650824246473930.0
-18.0,-8.0,-15.0,-2.0,-8.0,-8.0,1.0,-21.0,1650824246474878.0
22.0,-12.0,22.0,-25.0,8.0,10.0,18.0,-7.0,1650824246474878.0
9.0,47.0,2.0,-2.0,-12.0,-5.0,0.0,40.0,1650824246487832.0
11.0,-49.0,-10.0,13.0,13.0,13.0,15.0,0.0,1650824246487832.0
9.0,-2.0,42.0,45.0,4.0,-2.0,-12.0,-65.0,1650824246495874.0
-30.0,-45.0,-49.0,-60.0,-19.0,-9.0,-5.0,-12.0,1650824246495874.0
7.0,-5.0,11.0,14.0,-2.0,-2.0,20.0,68.0,1650824246511713.0
13.0,-2.0,9.0,-1.0,-1.0,-6.0,-17.0,-14.0,1650824246511713.0
-33.0,-5.0,-61.0,-28.0,-11.0,-17.0,-9.0,-19.0,1650824246512660.0
29.0,27.0,54.0,35.0,14.0,12.0,5.0,12.0,1650824246512660.0
-10.0,24.0,54.0,39.0,4.0,-1.0,-22.0,-9.0,1650824246534590.0
-10.0,-33.0,-37.0,-45.0,-7.0,-3.0,10.0,-13.0,1650824246534590.0
-71.0,-44.0,-5.0,-1.0,18.0,7.0,-23.0,-74.0,1650824246535578.0
20.0,15.0,1.0,-15.0,-31.0,-15.0,10.0,41.0,1650824246535578.0
-20.0,31.0,24.0,3.0,-4.0,-5.0,24.0,36.0,1650824246547573.0
