EMG_s0,EMG_s1,EMG_s2,EMG_s3,EMG_s4,EMG_s5,EMG_s6,EMG_s7,timestamp
1.0,-2.0,1.0,2.0,4.0,1.0,0.0,-1.0,1650824132489587.0
1.0,0.0,2.0,1.0,1.0,1.0,0.0,0.0,1650824132489587.0
0.0,-1.0,-3.0,-3.0,-2.0,-3.0,-1.0,1.0,1650824132497565.0
-1.0,-1.0,1.0,5.0,3.0,5.0,2.0,-1.0,1650824132497565.0
1.0,1.0,3.0,0.0,0.0,-1.0,1.0,0.0,1650824132499560.0
2.0,-1.0,2.0,-2.0,-3.0,-2.0,-1.0,-1.0,1650824132499560.0
0.0,-2.0,-2.0,-4.0,-2.0,-3.0,-3.0,-2.0,1650824132502576.0
1.0,0.0,-2.0,-5.0,12.0,16.0,-2.0,-3.0,1650824132502576.0
1.0,3.0,1.0,1.0,-16.0,-15.0,0.0,0.0,1650824132511529.0
-2.0,6.0,5.0,8.0,11.0,5.0,4.0,1.0,1650824132511529.0
1.0,0.0,3.0,0.0,4.0,0.0,-1.0,0.0,1650824132519507.0
1.0,-4.0,-10.0,-7.0,-2.0,-2.0,-2.0,0.0,1650824132519507.0
0.0,1.0,-3.0,0.0,0.0,2.0,0.0,-3.0,1650824132526489.0
-1.0,-4.0,-2.0,-4.0,-3.0,-4.0,-2.0,-1.0,1650824132526489.0
-1.0,-2.0,-3.0,-3.0,-3.0,3.0,-1.0,-1.0,1650824132541319.0
-1.0,3.0,9.0,5.0,2.0,-4.0,-1.0,0.0,1650824132541319.0
0.0,-5.0,-11.0,-7.0,-5.0,-2.0,0.0,-1.0,1650824132548330.0
-1.0,-3.0,-4.0,-2.0,-2.0,-1.0,-1.0,-1.0,1650824132548330.0
0.0,-2.0,-1.0,0.0,0.0,-2.0,1.0,-1.0,1650824132563284.0
-1.0,-1.0,-9.0,-2.0,-5.0,-3.0,0.0,0.0,1650824132563284.0
-1.0,0.0,2.0,1.0,1.0,1.0,-4.0,0.0,1650824132573264.0
-1.0,1.0,1.0,-1.0,4.0,0.0,1.0,-1.0,1650824132573264.0
-1.0,2.0,1.0,2.0,-8.0,3.0,1.0,-1.0,1650824132586901.0
0.0,-1.0,-2.0,-2.0,-8.0,-6.0,0.0,-2.0,1650824132586901.0
-2.0,-2.0,-8.0,0.0,5.0,1.0,1.0,-1.0,1650824132626476.0
-2.0,-1.0,-3.0,1.0,2.0,3.0,2.0,0.0,1650824132626476.0
0.0,-2.0,0.0,-5.0,-5.0,-3.0,-2.0,-2.0,1650824132626476.0
0.0,-3.0,-3.0,-1.0,-3.0,0.0,-1.0,-2.0,1650824132626476.0
-1.0,1.0,2.0,0.0,-2.0,-5.0,-1.0,0.0,1650824132627473.0
0.0,2.0,1.0,3.0,3.0,3.0,1.0,-1.0,1650824132627473.0
1.0,1.0,0.0,0.0,2.0,3.0,1.0,2.0,1650824132630465.0
-3.0,-4.0,-3.0,-4.0,2.0,5.0,-3.0,-3.0,1650824132630465.0
-1.0,-3.0,-2.0,-7.0,-7.0,-16.0,-2.0,-1.0,1650824132639468.0
1.0,-4.0,-7.0,-1.0,-2.0,-7.0,-1.0,1.0,1650824132639468.0
-1.0,2.0,-2.0,-4.0,-3.0,-1.0,-3.0,-3.0,1650824132645445.0
-1.0,-1.0,1.0,0.0,2.0,13.0,0.0,-1.0,1650824132645445.0
0.0,1.0,0.0,1.0,8.0,0.0,1.0,-1.0,1650824132654458.0
1.0,2.0,4.0,2.0,3.0,12.0,1.0,0.0,1650824132654458.0
-2.0,1.0,6.0,1.0,-10.0,-9.0,0.0,0.0,1650824132667492.0
-1.0,-6.0,-4.0,-7.0,-4.0,-8.0,-3.0,-1.0,1650824132667492.0
-1.0,-1.0,2.0,2.0,1.0,4.0,-1.0,-2.0,1650824132676404.0
0.0,-3.0,-1.0,-1.0,0.0,-4.0,-2.0,-1.0,1650824132676404.0
-3.0,-1.0,-3.0,-2.0,5.0,5.0,1.0,-2.0,1650824132698960.0
1.0,5.0,4.0,4.0,-1.0,-4.0,0.0,3.0,1650824132698960.0
0.0,2.0,5.0,-1.0,-6.0,1.0,0.0,0.0,1650824132700911.0
-1.0,-2.0,0.0,-2.0,0.0,1.0,0.0,-1.0,1650824132700911.0
1.0,-3.0,-2.0,4.0,3.0,2.0,1.0,0.0,1650824132713023.0
-1.0,2.0,5.0,3.0,1.0,-6.0,-1.0,-1.0,1650824132713023.0
0.0,-1.0,-1.0,-5.0,-1.0,1.0,-4.0,-1.0,1650824132720070.0
-1.0,-3.0,-10.0,-4.0,-5.0,-3.0,0.0,-2.0,1650824132720070.0
-3.0,0.0,2.0,-3.0,-1.0,-2.0,0.0,-1.0,1650824132736704.0
0.0,0.0,1.0,1.0,0.0,2.0,1.0,-1.0,1650824132736704.0
0.0,-2.0,0.0,0.0,2.0,3.0,0.0,-2.0,1650824132737635.0
-1.0,3.0,6.0,0.0,-9.0,-5.0,1.0,2.0,1650824132737635.0
1.0,0.0,-4.0,2.0,-2.0,-3.0,-2.0,-1.0,1650824132759758.0
-1.0,-1.0,1.0,1.0,2.0,-2.0,3.0,0.0,1650824132759758.0
0.0,0.0,3.0,0.0,-4.0,1.0,0.0,0.0,1650824132760694.0
-1.0,2.0,-5.0,-4.0,1.0,-2.0,-3.0,-1.0,1650824132760694.0
-3.0,-5.0,-3.0,-3.0,1.0,1.0,-2.0,-1.0,1650824132773662.0
0.0,1.0,-6.0,-2.0,-2.0,-2.0,-1.0,0.0,1650824132773662.0
-2.0,2.0,3.0,3.0,2.0,2.0,0.0,0.0,1650824132780650.0
2.0,-3.0,0.0,3.0,2.0,-5.0,1.0,0.0,1650824132780650.0
1.0,7.0,7.0,0.0,-2.0,3.0,0.0,-3.0,1650824132796660.0
-1.0,-3.0,8.0,0.0,-2.0,-4.0,-2.0,-1.0,1650824132796660.0
0.0,-8.0,-10.0,-2.0,0.0,1.0,-1.0,1.0,1650824132797595.0
-1.0,-1.0,-3.0,-9.0,2.0,3.0,-2.0,1.0,1650824132797595.0
-1.0,-2.0,-1.0,2.0,6.0,3.0,1.0,0.0,1650824132818567.0
1.0,0.0,-4.0,-2.0,-9.0,-17.0,3.0,1.0,1650824132818567.0
-1.0,1.0,2.0,5.0,-4.0,-2.0,0.0,0.0,1650824132820534.0
0.0,1.0,-1.0,0.0,-4.0,-4.0,-5.0,-3.0,1650824132820534.0
2.0,-1.0,-4.0,-4.0,1.0,2.0,-3.0,1.0,1650824132832502.0
-2.0,-2.0,1.0,-1.0,7.0,10.0,-1.0,-1.0,1650824132832502.0
-1.0,-4.0,-6.0,1.0,0.0,-1.0,1.0,0.0,1650824132841479.0
-1.0,2.0,4.0,-1.0,-12.0,-5.0,-1.0,0.0,1650824132841479.0
1.0,-2.0,-1.0,1.0,2.0,-2.0,-1.0,0.0,1650824132856440.0
-1.0,1.0,-2.0,1.0,1.0,1.0,0.0,-1.0,1650824132856440.0
1.0,3.0,1.0,4.0,4.0,1.0,0.0,-1.0,1650824132858433.0
-2.0,-4.0,3.0,-2.0,4.0,5.0,0.0,-1.0,1650824132858433.0
-1.0,1.0,-4.0,1.0,-5.0,-6.0,-2.0,0.0,1650824132878744.0
-1.0,-7.0,-4.0,-4.0,-11.0,-3.0,-4.0,0.0,1650824132878744.0
-2.0,-5.0,-5.0,-9.0,-3.0,-5.0,-3.0,-3.0,1650824132880672.0
1.0,4.0,4.0,8.0,4.0,0.0,4.0,2.0,1650824132880672.0
-1.0,-2.0,1.0,3.0,0.0,-3.0,0.0,-1.0,1650824132893777.0
0.0,0.0,-6.0,-1.0,5.0,1.0,-2.0,-1.0,1650824132893777.0
0.0,-2.0,-4.0,0.0,-4.0,-2.0,-2.0,0.0,1650824132899715.0
-2.0,-2.0,-1.0,1.0,3.0,6.0,-3.0,-3.0,1650824132899715.0
0.0,-3.0,9.0,-4.0,-9.0,0.0,1.0,0.0,1650824132916728.0
-1.0,0.0,-1.0,-1.0,-1.0,0.0,2.0,-3.0,1650824132916728.0
1.0,2.0,3.0,-1.0,0.0,-3.0,-1.0,1.0,1650824132917685.0
0.0,-1.0,-5.0,-2.0,-10.0,-8.0,-1.0,0.0,1650824132917685.0
-5.0,-3.0,-2.0,2.0,8.0,10.0,-1.0,-2.0,1650824132938603.0
0.0,1.0,5.0,3.0,-1.0,-7.0,0.0,1.0,1650824132938603.0
1.0,-1.0,-3.0,-3.0,-5.0,-1.0,1.0,-2.0,1650824132940624.0
0.0,-2.0,3.0,0.0,7.0,0.0,1.0,-1.0,1650824132940624.0
1.0,0.0,-4.0,-5.0,-1.0,3.0,-1.0,-1.0,1650824132953589.0
-1.0,2.0,1.0,-3.0,0.0,1.0,0.0,-2.0,1650824132953589.0
-2.0,-4.0,-4.0,-7.0,0.0,4.0,-2.0,-2.0,1650824132960577.0
-1.0,0.0,1.0,3.0,-1.0,1.0,4.0,2.0,1650824132960577.0
3.0,2.0,4.0,3.0,2.0,-4.0,-1.0,0.0,1650824132976568.0
-1.0,-3.0,-12.0,-2.0,0.0,0.0,-1.0,-1.0,1650824132976568.0
0.0,3.0,2.0,2.0,3.0,8.0,2.0,-1.0,1650824132978495.0
0.0,0.0,1.0,-4.0,0.0,-4.0,-3.0,-2.0,1650824132978495.0
-1.0,-3.0,-5.0,-4.0,-5.0,-6.0,-1.0,0.0,1650824132999468.0
0.0,0.0,1.0,0.0,0.0,2.0,-2.0,0.0,1650824132999468.0
-1.0,1.0,3.0,-1.0,2.0,2.0,-4.0,-1.0,1650824133000451.0
-2.0,1.0,9.0,3.0,-10.0,1.0,2.0,-1.0,1650824133000451.0
0.0,-4.0,-2.0,3.0,4.0,-4.0,3.0,1.0,1650824133012435.0
1.0,0.0,-1.0,2.0,4.0,5.0,-1.0,0.0,1650824133012435.0
-3.0,2.0,6.0,-3.0,2.0,0.0,2.0,-1.0,1650824133021381.0
0.0,-5.0,-1.0,-3.0,-1.0,-5.0,-3.0,-1.0,1650824133021381.0
-1.0,0.0,-1.0,-3.0,-3.0,0.0,-2.0,-1.0,1650824133036367.0
2.0,3.0,3.0,4.0,0.0,0.0,2.0,0.0,1650824133036367.0
-1.0,1.0,-3.0,3.0,-10.0,-5.0,0.0,1.0,1650824133038335.0
-3.0,-6.0,0.0,-3.0,8.0,5.0,-4.0,-4.0,1650824133038335.0
-1.0,0.0,-3.0,-8.0,-2.0,-3.0,4.0,0.0,1650824133058643.0
1.0,1.0,2.0,4.0,3.0,4.0,3.0,1.0,1650824133058643.0
1.0,6.0,6.0,2.0,2.0,-5.0,-2.0,0.0,1650824133060584.0
2.0,-2.0,-6.0,1.0,-13.0,-10.0,-4.0,0.0,1650824133060584.0
1.0,1.0,-2.0,0.0,0.0,3.0,-3.0,-1.0,1650824133072898.0
-3.0,0.0,1.0,-3.0,2.0,0.0,-2.0,-2.0,1650824133072898.0
1.0,-1.0,0.0,-1.0,-13.0,-1.0,-1.0,0.0,1650824133081877.0
-1.0,0.0,-5.0,-7.0,0.0,8.0,-2.0,0.0,1650824133081877.0
-1.0,2.0,5.0,5.0,12.0,-17.0,0.0,-1.0,1650824133096931.0
-1.0,1.0,-1.0,1.0,-6.0,6.0,3.0,0.0,1650824133096931.0
0.0,-2.0,-1.0,-1.0,4.0,3.0,0.0,-1.0,1650824133097846.0
0.0,2.0,-4.0,-4.0,-2.0,-1.0,-2.0,-1.0,1650824133097846.0
-1.0,-2.0,-2.0,-2.0,-2.0,4.0,-2.0,-1.0,1650824133118843.0
-1.0,-2.0,-1.0,-2.0,-1.0,-3.0,-1.0,0.0,1650824133118843.0
0.0,-1.0,-2.0,0.0,2.0,0.0,1.0,1.0,1650824133120773.0
2.0,1.0,2.0,1.0,-1.0,1.0,2.0,-2.0,1650824133120773.0
-3.0,-2.0,-4.0,1.0,3.0,6.0,1.0,-3.0,1650824133132805.0
-1.0,-5.0,3.0,-1.0,2.0,-5.0,-2.0,0.0,1650824133132805.0
0.0,-3.0,-5.0,-4.0,-4.0,-1.0,0.0,0.0,1650824133141717.0
-1.0,0.0,0.0,1.0,3.0,0.0,0.0,0.0,1650824133141717.0
1.0,3.0,2.0,1.0,-4.0,2.0,1.0,0.0,1650824133156697.0
1.0,0.0,-2.0,-3.0,-6.0,-5.0,-3.0,0.0,1650824133156697.0
-2.0,0.0,3.0,2.0,-2.0,-2.0,1.0,0.0,1650824133157674.0
0.0,2.0,5.0,8.0,1.0,-2.0,1.0,2.0,1650824133157674.0
-5.0,-11.0,-13.0,-6.0,6.0,12.0,2.0,0.0,1650824133179535.0
-1.0,1.0,3.0,-3.0,1.0,9.0,2.0,0.0,1650824133179535.0
-1.0,-4.0,-4.0,0.0,4.0,-6.0,-1.0,0.0,1650824133180532.0
0.0,4.0,4.0,-5.0,-10.0,-14.0,-5.0,-1.0,1650824133180532.0
-1.0,2.0,1.0,3.0,-2.0,-1.0,0.0,-1.0,1650824133192308.0
0.0,1.0,-2.0,-3.0,1.0,3.0,-2.0,-2.0,1650824133192308.0
0.0,-4.0,-5.0,0.0,3.0,6.0,-1.0,-1.0,1650824133201285.0
2.0,0.0,1.0,-2.0,-1.0,0.0,-1.0,-2.0,1650824133201285.0
-1.0,-4.0,0.0,0.0,0.0,-5.0,-2.0,-2.0,1650824133216271.0
-3.0,-4.0,-4.0,-1.0,-6.0,-8.0,3.0,0.0,1650824133216271.0
0.0,5.0,6.0,8.0,2.0,3.0,2.0,0.0,1650824133218268.0
-1.0,-8.0,-9.0,1.0,9.0,1.0,0.0,-1.0,1650824133218268.0
1.0,1.0,8.0,-5.0,-17.0,-6.0,-3.0,-1.0,1650824133239183.0
-1.0,1.0,-3.0,-3.0,-2.0,1.0,-1.0,0.0,1650824133239183.0
0.0,-2.0,-2.0,-3.0,-2.0,-6.0,-2.0,-3.0,1650824133240180.0
-1.0,-2.0,-9.0,-6.0,6.0,14.0,2.0,-1.0,1650824133240180.0
-1.0,0.0,4.0,-2.0,-16.0,-18.0,0.0,-2.0,1650824133252178.0
-1.0,0.0,1.0,5.0,7.0,11.0,0.0,0.0,1650824133252178.0
1.0,-5.0,-6.0,-1.0,7.0,11.0,4.0,0.0,1650824133262124.0
0.0,0.0,0.0,1.0,4.0,-2.0,-1.0,-1.0,1650824133262124.0
2.0,2.0,1.0,0.0,2.0,1.0,-2.0,-1.0,1650824133277224.0
0.0,0.0,-1.0,-6.0,-5.0,-8.0,-1.0,-1.0,1650824133277224.0
0.0,3.0,5.0,-2.0,-7.0,-3.0,-2.0,0.0,1650824133278153.0
-2.0,-2.0,-5.0,-4.0,-2.0,4.0,-2.0,-2.0,1650824133278153.0
2.0,2.0,-1.0,3.0,2.0,0.0,-1.0,-1.0,1650824133299252.0
-2.0,-3.0,0.0,6.0,4.0,4.0,5.0,2.0,1650824133299252.0
0.0,-3.0,-6.0,-8.0,9.0,2.0,-1.0,1.0,1650824133300300.0
-1.0,8.0,9.0,2.0,-14.0,-5.0,0.0,-1.0,1650824133300300.0
0.0,0.0,-4.0,-2.0,-3.0,-1.0,-1.0,1.0,1650824133312945.0
-1.0,0.0,-3.0,-1.0,-2.0,-1.0,-5.0,-1.0,1650824133312945.0
-2.0,-3.0,-3.0,-4.0,-2.0,9.0,-2.0,0.0,1650824133321889.0
0.0,6.0,15.0,5.0,-4.0,-18.0,4.0,1.0,1650824133321889.0
-4.0,-19.0,-16.0,5.0,7.0,3.0,1.0,1.0,1650824133336068.0
2.0,2.0,3.0,-4.0,12.0,3.0,0.0,0.0,1650824133336068.0
0.0,2.0,-3.0,3.0,-8.0,-2.0,0.0,-1.0,1650824133338028.0
2.0,-3.0,-2.0,-4.0,0.0,-1.0,-2.0,0.0,1650824133338028.0
0.0,3.0,3.0,0.0,0.0,5.0,0.0,-1.0,1650824133359487.0
1.0,-1.0,0.0,2.0,0.0,-3.0,-1.0,0.0,1650824133359487.0
0.0,-3.0,-2.0,-5.0,-2.0,-3.0,-4.0,-2.0,1650824133360491.0
-2.0,-1.0,-8.0,-1.0,-1.0,2.0,2.0,-1.0,1650824133360491.0
0.0,4.0,4.0,2.0,3.0,-5.0,0.0,0.0,1650824133372455.0
-1.0,-2.0,-3.0,-1.0,-2.0,1.0,-1.0,-1.0,1650824133372455.0
1.0,4.0,4.0,0.0,-3.0,-5.0,0.0,2.0,1650824133381432.0
-2.0,-4.0,-5.0,1.0,2.0,3.0,0.0,-2.0,1650824133381432.0
0.0,1.0,-2.0,-4.0,1.0,0.0,-5.0,-1.0,1650824133396519.0
-1.0,-1.0,-2.0,-5.0,-22.0,-10.0,-6.0,-2.0,1650824133396519.0
1.0,6.0,4.0,3.0,1.0,0.0,3.0,-1.0,1650824133398500.0
-2.0,-7.0,2.0,2.0,10.0,7.0,3.0,0.0,1650824133398500.0
1.0,1.0,-1.0,-1.0,-1.0,2.0,-1.0,0.0,1650824133419465.0
0.0,7.0,6.0,3.0,0.0,-2.0,-2.0,-1.0,1650824133419465.0
0.0,-2.0,-9.0,-4.0,-1.0,-5.0,-1.0,0.0,1650824133420430.0
-1.0,-5.0,-10.0,-7.0,0.0,-1.0,-2.0,-2.0,1650824133420430.0
-1.0,5.0,4.0,0.0,-5.0,12.0,0.0,-3.0,1650824133441438.0
-2.0,1.0,2.0,4.0,3.0,-5.0,3.0,1.0,1650824133441438.0
0.0,1.0,8.0,5.0,-9.0,-16.0,1.0,0.0,1650824133443393.0
0.0,-2.0,-6.0,-8.0,0.0,1.0,-2.0,1.0,1650824133443393.0
1.0,-2.0,1.0,6.0,7.0,9.0,1.0,-1.0,1650824133456357.0
-3.0,0.0,1.0,-5.0,4.0,7.0,1.0,-2.0,1650824133456357.0
-2.0,-2.0,-4.0,2.0,-10.0,8.0,1.0,-2.0,1650824133458347.0
0.0,-2.0,-3.0,3.0,-3.0,-14.0,-3.0,-1.0,1650824133458347.0
-2.0,0.0,-1.0,-5.0,-7.0,-11.0,0.0,1.0,1650824133479357.0
1.0,0.0,5.0,-1.0,4.0,10.0,2.0,-3.0,1650824133479357.0
-2.0,-1.0,5.0,0.0,8.0,0.0,-2.0,0.0,1650824133480288.0
-2.0,-2.0,-1.0,0.0,0.0,9.0,-2.0,0.0,1650824133480288.0
-1.0,0.0,-6.0,-3.0,-6.0,-7.0,-3.0,1.0,1650824133500990.0
0.0,-5.0,-2.0,-2.0,3.0,-5.0,0.0,1.0,1650824133500990.0
-2.0,-1.0,0.0,1.0,-4.0,-2.0,-1.0,-1.0,1650824133507972.0
0.0,-4.0,1.0,0.0,0.0,4.0,0.0,0.0,1650824133507972.0
-2.0,-1.0,-4.0,-5.0,2.0,-4.0,-2.0,0.0,1650824133515922.0
3.0,3.0,1.0,1.0,1.0,0.0,0.0,1.0,1650824133515922.0
-1.0,-3.0,-4.0,-1.0,5.0,4.0,0.0,-2.0,1650824133517930.0
-2.0,2.0,1.0,5.0,1.0,1.0,1.0,1.0,1650824133517930.0
0.0,3.0,4.0,-2.0,5.0,4.0,2.0,-2.0,1650824133538888.0
-1.0,-4.0,-5.0,2.0,8.0,5.0,-4.0,-2.0,1650824133538888.0
0.0,0.0,-6.0,-5.0,-15.0,-8.0,-1.0,-1.0,1650824133540856.0
0.0,4.0,5.0,7.0,-6.0,-6.0,1.0,-1.0,1650824133540856.0
-1.0,0.0,-5.0,2.0,2.0,6.0,1.0,0.0,1650824133561867.0
-2.0,-2.0,-11.0,-18.0,-11.0,-14.0,-6.0,-3.0,1650824133561867.0
-1.0,-3.0,2.0,4.0,8.0,6.0,0.0,-1.0,1650824133562797.0
1.0,4.0,2.0,0.0,8.0,8.0,3.0,2.0,1650824133562797.0
0.0,0.0,-2.0,3.0,0.0,-2.0,-1.0,-1.0,1650824133575822.0
-1.0,0.0,5.0,3.0,-14.0,-3.0,-2.0,-1.0,1650824133575822.0
0.0,-2.0,-4.0,-7.0,-1.0,-1.0,1.0,-1.0,1650824133589729.0
1.0,-1.0,-1.0,-2.0,-3.0,-3.0,-4.0,-2.0,1650824133589729.0
0.0,0.0,4.0,0.0,1.0,0.0,1.0,0.0,1650824133597398.0
1.0,-3.0,-2.0,0.0,0.0,-4.0,-1.0,1.0,1650824133597398.0
-2.0,-3.0,0.0,1.0,-1.0,-3.0,-2.0,-2.0,1650824133606306.0
-2.0,-1.0,-2.0,1.0,-1.0,5.0,2.0,-2.0,1650824133606306.0
0.0,0.0,6.0,-2.0,1.0,1.0,1.0,1.0,1650824133621419.0
1.0,-1.0,-5.0,0.0,-3.0,0.0,0.0,-1.0,1650824133621419.0
-1.0,-4.0,-2.0,-3.0,-4.0,-2.0,-5.0,0.0,1650824133623349.0
0.0,1.0,1.0,1.0,2.0,-1.0,-1.0,-1.0,1650824133623349.0
-1.0,-1.0,1.0,0.0,-3.0,-5.0,-3.0,-3.0,1650824133644424.0
1.0,4.0,0.0,-1.0,0.0,3.0,1.0,1.0,1650824133644424.0
0.0,4.0,9.0,4.0,2.0,2.0,1.0,2.0,1650824133645321.0
2.0,4.0,2.0,4.0,10.0,10.0,6.0,2.0,1650824133645321.0
-1.0,0.0,9.0,0.0,-6.0,-3.0,-1.0,0.0,1650824133657298.0
0.0,2.0,-3.0,5.0,1.0,-4.0,-3.0,-2.0,1650824133657298.0
-2.0,1.0,3.0,-1.0,1.0,1.0,1.0,0.0,1650824133666276.0
-2.0,-4.0,-12.0,-6.0,-5.0,-5.0,-6.0,-1.0,1650824133666276.0
2.0,0.0,-3.0,2.0,-2.0,2.0,-2.0,-1.0,1650824133681295.0
-2.0,-3.0,7.0,1.0,-3.0,2.0,0.0,-1.0,1650824133681295.0
-1.0,-2.0,-11.0,-11.0,1.0,-1.0,-1.0,-1.0,1650824133683223.0
0.0,0.0,0.0,-7.0,-5.0,-5.0,-3.0,-1.0,1650824133683223.0
-1.0,-1.0,-4.0,0.0,-4.0,-5.0,-2.0,-2.0,1650824133711561.0
-3.0,-2.0,-5.0,6.0,3.0,12.0,4.0,0.0,1650824133711561.0
1.0,2.0,3.0,4.0,6.0,0.0,3.0,0.0,1650824133713504.0
0.0,1.0,2.0,-4.0,-11.0,-7.0,-3.0,1.0,1650824133713504.0
0.0,-4.0,-3.0,0.0,3.0,5.0,-2.0,-1.0,1650824133717503.0
1.0,1.0,1.0,1.0,5.0,-9.0,-2.0,4.0,1650824133717503.0
-2.0,-2.0,-5.0,-4.0,-8.0,2.0,0.0,-3.0,1650824133726460.0
-3.0,-1.0,1.0,-2.0,2.0,-1.0,1.0,-4.0,1650824133726460.0
-1.0,-3.0,-3.0,-2.0,-7.0,-6.0,-6.0,-2.0,1650824133741500.0
-1.0,-2.0,2.0,-5.0,-3.0,0.0,-2.0,-4.0,1650824133741500.0
-2.0,-5.0,-8.0,-3.0,2.0,-2.0,-2.0,0.0,1650824133743514.0
-1.0,-2.0,0.0,1.0,-3.0,-6.0,-2.0,2.0,1650824133743514.0
-1.0,0.0,3.0,5.0,7.0,9.0,7.0,-1.0,1650824133763976.0
0.0,4.0,3.0,4.0,14.0,5.0,0.0,2.0,1650824133763976.0
2.0,0.0,-4.0,3.0,-11.0,-2.0,-2.0,-1.0,1650824133765932.0
-1.0,0.0,-3.0,-7.0,-4.0,-4.0,-2.0,-2.0,1650824133765932.0
-2.0,-5.0,-3.0,-8.0,-4.0,-7.0,-3.0,0.0,1650824133777932.0
0.0,-3.0,-11.0,-1.0,-5.0,-8.0,-3.0,-1.0,1650824133777932.0
2.0,-1.0,5.0,5.0,5.0,0.0,0.0,1.0,1650824133786847.0
0.0,5.0,6.0,0.0,4.0,9.0,2.0,-1.0,1650824133786847.0
-2.0,-4.0,-4.0,-6.0,2.0,7.0,7.0,2.0,1650824133801846.0
1.0,2.0,13.0,4.0,-4.0,-3.0,0.0,1.0,1650824133801846.0
-5.0,-7.0,-25.0,-8.0,2.0,-4.0,-4.0,-2.0,1650824133802848.0
1.0,-2.0,-2.0,2.0,-4.0,0.0,0.0,1.0,1650824133802848.0
3.0,2.0,-2.0,-8.0,-7.0,-9.0,-6.0,-4.0,1650824133822817.0
-2.0,-3.0,-5.0,-1.0,6.0,7.0,3.0,-2.0,1650824133822817.0
0.0,2.0,13.0,9.0,7.0,5.0,4.0,0.0,1650824133831767.0
7.0,2.0,6.0,2.0,2.0,1.0,2.0,3.0,1650824133831767.0
2.0,1.0,-4.0,2.0,-3.0,-5.0,-3.0,0.0,1650824133837750.0
-13.0,-4.0,0.0,-9.0,-11.0,-9.0,-7.0,-4.0,1650824133837750.0
2.0,1.0,2.0,4.0,0.0,2.0,-1.0,-1.0,1650824133846741.0
3.0,1.0,-4.0,2.0,12.0,3.0,2.0,1.0,1650824133846741.0
-9.0,-1.0,7.0,4.0,-6.0,2.0,1.0,-1.0,1650824133860910.0
-5.0,-5.0,-6.0,1.0,-5.0,-3.0,-1.0,5.0,1650824133860910.0
-1.0,-1.0,-2.0,-15.0,-5.0,-5.0,-5.0,-11.0,1650824133868822.0
5.0,1.0,4.0,3.0,-4.0,-2.0,-2.0,-2.0,1650824133868822.0
24.0,9.0,-3.0,-4.0,0.0,4.0,1.0,3.0,1650824133883809.0
-28.0,-6.0,2.0,5.0,5.0,1.0,-1.0,-5.0,1650824133883809.0
-13.0,-21.0,0.0,1.0,1.0,-5.0,-2.0,0.0,1650824133885775.0
10.0,3.0,13.0,2.0,-7.0,1.0,-1.0,2.0,1650824133885775.0
-3.0,14.0,-10.0,-7.0,3.0,1.0,0.0,6.0,1650824133906622.0
36.0,-4.0,-58.0,-59.0,-15.0,-4.0,0.0,3.0,1650824133906622.0
-21.0,8.0,8.0,0.0,6.0,4.0,2.0,-9.0,1650824133907630.0
-13.0,-17.0,-2.0,10.0,3.0,1.0,3.0,8.0,1650824133907630.0
18.0,11.0,12.0,8.0,-6.0,-4.0,5.0,46.0,1650824133921608.0
-21.0,-27.0,15.0,8.0,-3.0,-5.0,-21.0,-60.0,1650824133921608.0
18.0,18.0,9.0,5.0,8.0,13.0,8.0,12.0,1650824133922598.0
96.0,56.0,17.0,9.0,5.0,15.0,47.0,72.0,1650824133922598.0
-75.0,3.0,-17.0,-2.0,-5.0,-22.0,-43.0,-65.0,1650824133944537.0
-81.0,-83.0,-13.0,-4.0,-3.0,-6.0,-22.0,-42.0,1650824133944537.0
-46.0,-13.0,-10.0,-2.0,-6.0,-8.0,14.0,18.0,1650824133945538.0
77.0,53.0,25.0,16.0,10.0,12.0,11.0,29.0,1650824133945538.0
81.0,89.0,40.0,32.0,21.0,20.0,13.0,28.0,1650824133966549.0
-22.0,-62.0,-80.0,-25.0,-17.0,-15.0,-8.0,-27.0,1650824133966549.0
27.0,43.0,33.0,6.0,-7.0,6.0,26.0,7.0,1650824133968485.0
-69.0,5.0,-15.0,22.0,12.0,-1.0,-13.0,-24.0,1650824133968485.0
2.0,-93.0,-46.0,-45.0,-10.0,-5.0,8.0,19.0,1650824133989420.0
-6.0,28.0,32.0,12.0,8.0,-4.0,-17.0,-12.0,1650824133989420.0
50.0,62.0,20.0,15.0,6.0,18.0,43.0,76.0,1650824133990418.0
-49.0,-74.0,-10.0,-8.0,-8.0,-9.0,46.0,-36.0,1650824133990418.0
68.0,-82.0,-53.0,-3.0,-4.0,-7.0,-72.0,-93.0,1650824134004426.0
89.0,98.0,51.0,15.0,-1.0,3.0,47.0,118.0,1650824134004426.0
-89.0,-68.0,-16.0,-13.0,-19.0,-45.0,-71.0,-107.0,1650824134005378.0
-90.0,-73.0,-13.0,-14.0,-12.0,-34.0,-90.0,-96.0,1650824134005378.0
-39.0,26.0,4.0,3.0,-3.0,6.0,33.0,-4.0,1650824134026388.0
127.0,71.0,46.0,32.0,24.0,40.0,19.0,2.0,1650824134026388.0
44.0,43.0,-59.0,-16.0,-5.0,-3.0,-9.0,-28.0,1650824134028342.0
-116.0,-25.0,-14.0,-4.0,3.0,1.0,-14.0,-38.0,1650824134028342.0
40.0,55.0,60.0,19.0,-12.0,-12.0,15.0,9.0,1650824134041289.0
-60.0,-59.0,-99.0,-94.0,-18.0,-4.0,12.0,10.0,1650824134041289.0
38.0,75.0,57.0,40.0,24.0,26.0,38.0,68.0,1650824134047333.0
47.0,8.0,-5.0,6.0,0.0,7.0,1.0,-16.0,1650824134047333.0
-51.0,19.0,11.0,3.0,-2.0,-6.0,-29.0,-30.0,1650824134064460.0
34.0,87.0,72.0,35.0,21.0,1.0,26.0,8.0,1650824134064460.0
-27.0,-66.0,-66.0,-7.0,-2.0,-7.0,-32.0,26.0,1650824134065461.0
-7.0,-2.0,-24.0,-27.0,-3.0,15.0,14.0,68.0,1650824134065461.0
45.0,35.0,25.0,22.0,9.0,18.0,41.0,5.0,1650824134086600.0
14.0,57.0,22.0,14.0,-11.0,-12.0,-13.0,17.0,1650824134086600.0
-91.0,-86.0,-3.0,-15.0,-8.0,-22.0,-45.0,-11.0,1650824134088525.0
127.0,70.0,31.0,8.0,6.0,15.0,10.0,37.0,1650824134088525.0
-94.0,-89.0,-15.0,-1.0,4.0,-12.0,-35.0,-16.0,1650824134100521.0
-36.0,-75.0,-34.0,0.0,0.0,4.0,2.0,-16.0,1650824134100521.0
32.0,57.0,27.0,0.0,2.0,5.0,-18.0,-46.0,1650824134107476.0
12.0,-14.0,-8.0,11.0,-6.0,-16.0,-41.0,-25.0,1650824134107476.0
-31.0,-8.0,5.0,-6.0,13.0,12.0,32.0,14.0,1650824134124430.0
-69.0,-101.0,-69.0,-1.0,-10.0,-15.0,-56.0,-48.0,1650824134124430.0
17.0,55.0,43.0,12.0,13.0,10.0,17.0,0.0,1650824134125430.0
-53.0,-62.0,-26.0,-61.0,-17.0,-7.0,14.0,38.0,1650824134125430.0
50.0,64.0,14.0,30.0,8.0,12.0,23.0,82.0,1650824134153840.0
36.0,32.0,8.0,3.0,-8.0,-13.0,1.0,12.0,1650824134153840.0
38.0,-3.0,-13.0,-24.0,-4.0,1.0,11.0,2.0,1650824134155837.0
-26.0,-2.0,2.0,13.0,2.0,7.0,1.0,18.0,1650824134155837.0
7.0,-42.0,-12.0,-22.0,-14.0,-5.0,14.0,-6.0,1650824134160824.0
23.0,76.0,30.0,16.0,11.0,18.0,26.0,27.0,1650824134160824.0
-75.0,-52.0,-21.0,12.0,0.0,-6.0,-8.0,-44.0,1650824134167833.0
-18.0,13.0,44.0,-1.0,4.0,2.0,11.0,11.0,1650824134167833.0
-17.0,24.0,0.0,-1.0,-8.0,0.0,13.0,-43.0,1650824134183831.0
9.0,17.0,13.0,2.0,-4.0,-11.0,-51.0,-43.0,1650824134183831.0
-39.0,-47.0,-9.0,-9.0,3.0,4.0,-15.0,-57.0,1650824134185785.0
16.0,30.0,-1.0,15.0,-4.0,-4.0,1.0,22.0,1650824134185785.0
35.0,29.0,0.0,8.0,11.0,10.0,20.0,20.0,1650824134206729.0
-59.0,-73.0,-6.0,7.0,1.0,-9.0,-11.0,-48.0,1650824134206729.0
59.0,3.0,-39.0,-19.0,-7.0,6.0,6.0,35.0,1650824134207699.0
-10.0,38.0,69.0,-7.0,-9.0,-6.0,12.0,-12.0,1650824134207699.0
-3.0,2.0,-51.0,-14.0,7.0,5.0,2.0,26.0,1650824134220692.0
-14.0,-25.0,-4.0,-1.0,-10.0,-7.0,-4.0,1.0,1650824134220692.0
4.0,-22.0,-8.0,11.0,14.0,7.0,13.0,9.0,1650824134227650.0
42.0,33.0,25.0,15.0,-4.0,-9.0,0.0,-21.0,1650824134227650.0
-22.0,-85.0,-61.0,-30.0,-8.0,-12.0,-25.0,1.0,1650824134244423.0
-6.0,29.0,3.0,-12.0,-4.0,4.0,21.0,39.0,1650824134244423.0
21.0,31.0,31.0,7.0,-3.0,3.0,-5.0,-16.0,1650824134245430.0
25.0,35.0,-4.0,15.0,14.0,-1.0,-35.0,-41.0,1650824134245430.0
5.0,-31.0,17.0,14.0,-10.0,-8.0,-5.0,15.0,1650824134266612.0
19.0,7.0,14.0,3.0,8.0,11.0,12.0,34.0,1650824134266612.0
-8.0,14.0,-1.0,2.0,-8.0,4.0,30.0,72.0,1650824134268559.0
-8.0,-4.0,-29.0,-11.0,2.0,-1.0,-19.0,-89.0,1650824134268559.0
-8.0,1.0,-14.0,-6.0,-4.0,-2.0,11.0,21.0,1650824134280658.0
26.0,17.0,6.0,1.0,-2.0,3.0,35.0,60.0,1650824134280658.0
1.0,14.0,31.0,12.0,5.0,-5.0,-40.0,-17.0,1650824134287637.0
1.0,19.0,-19.0,-6.0,-2.0,5.0,1.0,-3.0,1650824134287637.0
-18.0,-26.0,11.0,-20.0,-15.0,-20.0,-12.0,-5.0,1650824134303593.0
6.0,-34.0,10.0,19.0,-3.0,0.0,-3.0,-1.0,1650824134303593.0
16.0,40.0,-30.0,-18.0,8.0,7.0,23.0,27.0,1650824134305562.0
0.0,-15.0,-10.0,-7.0,-13.0,-10.0,14.0,38.0,1650824134305562.0
17.0,30.0,14.0,-11.0,-9.0,2.0,-8.0,-28.0,1650824134326506.0
-40.0,10.0,24.0,10.0,18.0,7.0,4.0,1.0,1650824134326506.0
7.0,9.0,3.0,18.0,-4.0,1.0,7.0,-4.0,1650824134328511.0
-25.0,-38.0,-18.0,0.0,-1.0,-14.0,-27.0,-32.0,1650824134328511.0
-17.0,38.0,18.0,-19.0,-6.0,0.0,18.0,5.0,1650824134340467.0
9.0,-38.0,-26.0,-16.0,-7.0,-1.0,-2.0,-1.0,1650824134340467.0
39.0,28.0,22.0,2.0,1.0,3.0,-10.0,-15.0,1650824134347449.0
-18.0,-48.0,-24.0,-4.0,-2.0,0.0,30.0,47.0,1650824134347449.0
-32.0,13.0,29.0,20.0,2.0,-10.0,-8.0,-55.0,1650824134363527.0
14.0,21.0,-7.0,0.0,-1.0,-12.0,-17.0,-26.0,1650824134363527.0
13.0,-23.0,-4.0,-6.0,-3.0,-3.0,-3.0,9.0,1650824134365522.0
-3.0,36.0,-9.0,-2.0,-7.0,-3.0,-15.0,13.0,1650824134365522.0
17.0,-67.0,-24.0,14.0,8.0,10.0,26.0,37.0,1650824134386606.0
-38.0,11.0,9.0,-21.0,-12.0,-4.0,-4.0,-26.0,1650824134386606.0
19.0,21.0,20.0,14.0,0.0,-3.0,3.0,0.0,1650824134388536.0
27.0,19.0,25.0,12.0,-5.0,8.0,23.0,24.0,1650824134388536.0
-30.0,-65.0,-53.0,-27.0,9.0,-3.0,-17.0,-2.0,1650824134400569.0
8.0,63.0,33.0,-2.0,-3.0,6.0,6.0,3.0,1650824134400569.0
5.0,-57.0,-37.0,-10.0,0.0,2.0,16.0,24.0,1650824134407482.0
-13.0,-26.0,-28.0,-22.0,-12.0,-13.0,-2.0,-8.0,1650824134407482.0
23.0,46.0,12.0,17.0,-2.0,-2.0,-14.0,0.0,1650824134424438.0
-19.0,-45.0,2.0,10.0,3.0,0.0,7.0,55.0,1650824134424438.0
-30.0,-41.0,-23.0,-16.0,-10.0,-11.0,9.0,-49.0,1650824134426444.0
-2.0,9.0,3.0,9.0,8.0,4.0,5.0,-13.0,1650824134426444.0
-44.0,15.0,15.0,3.0,3.0,19.0,23.0,46.0,1650824134446447.0
1.0,-8.0,-6.0,5.0,5.0,-6.0,-5.0,-51.0,1650824134446447.0
-6.0,23.0,24.0,5.0,2.0,-1.0,-51.0,2.0,1650824134448393.0
-6.0,-74.0,-69.0,-12.0,3.0,2.0,13.0,16.0,1650824134448393.0
28.0,71.0,50.0,6.0,-4.0,-1.0,-26.0,-44.0,1650824134460343.0
1.0,-13.0,3.0,3.0,-3.0,2.0,19.0,5.0,1650824134460343.0
-2.0,8.0,-2.0,5.0,-2.0,1.0,11.0,20.0,1650824134469323.0
27.0,39.0,5.0,-9.0,5.0,9.0,7.0,5.0,1650824134469323.0
-4.0,-9.0,-12.0,-12.0,-8.0,-20.0,-20.0,1.0,1650824134484455.0
9.0,-16.0,2.0,5.0,3.0,3.0,-17.0,-29.0,1650824134484455.0
-4.0,32.0,17.0,12.0,4.0,5.0,6.0,-6.0,1650824134485398.0
30.0,-50.0,-34.0,-16.0,-7.0,-3.0,2.0,35.0,1650824134485398.0
-60.0,-7.0,-39.0,-36.0,-3.0,7.0,24.0,-28.0,1650824134506579.0
0.0,40.0,35.0,14.0,-3.0,-3.0,-3.0,-5.0,1650824134506579.0
-7.0,-38.0,-13.0,-16.0,-19.0,-23.0,-28.0,-18.0,1650824134508502.0
18.0,16.0,14.0,20.0,10.0,10.0,-4.0,-15.0,1650824134508502.0
-6.0,1.0,-17.0,0.0,-3.0,-1.0,-2.0,-4.0,1650824134520484.0
9.0,-15.0,2.0,1.0,5.0,5.0,-8.0,1.0,1650824134520484.0
0.0,17.0,5.0,4.0,9.0,14.0,35.0,48.0,1650824134529516.0
11.0,9.0,19.0,1.0,1.0,10.0,16.0,57.0,1650824134529516.0
-2.0,-56.0,-22.0,0.0,-6.0,-20.0,-56.0,-18.0,1650824134544458.0
5.0,20.0,-8.0,-8.0,-9.0,-8.0,-10.0,-63.0,1650824134544458.0
-9.0,-10.0,33.0,6.0,-1.0,0.0,4.0,45.0,1650824134545411.0
11.0,15.0,-7.0,-20.0,-7.0,-13.0,-21.0,6.0,1650824134545411.0
-20.0,45.0,11.0,23.0,0.0,3.0,10.0,-26.0,1650824134566355.0
-13.0,6.0,-11.0,-14.0,2.0,0.0,-6.0,5.0,1650824134566355.0
10.0,2.0,-10.0,21.0,-3.0,0.0,-1.0,-24.0,1650824134568370.0
18.0,44.0,26.0,-13.0,-1.0,-1.0,-2.0,-8.0,1650824134568370.0
7.0,38.0,10.0,6.0,12.0,12.0,7.0,23.0,1650824134580382.0
-4.0,-15.0,-56.0,-40.0,-10.0,-3.0,10.0,13.0,1650824134580382.0
20.0,21.0,5.0,0.0,3.0,0.0,-2.0,-13.0,1650824134589321.0
-27.0,29.0,21.0,24.0,2.0,-1.0,-8.0,-13.0,1650824134589321.0
44.0,4.0,27.0,11.0,4.0,10.0,25.0,16.0,1650824134604281.0
16.0,12.0,3.0,17.0,5.0,3.0,-10.0,19.0,1650824134604281.0
-44.0,-24.0,-6.0,-26.0,-9.0,-13.0,-31.0,-32.0,1650824134605264.0
24.0,-15.0,-7.0,12.0,7.0,8.0,-7.0,-5.0,1650824134605264.0
-4.0,48.0,24.0,14.0,9.0,3.0,32.0,23.0,1650824134626195.0
14.0,-16.0,-19.0,-12.0,-1.0,-2.0,-19.0,-11.0,1650824134626195.0
4.0,29.0,36.0,2.0,-5.0,-4.0,-13.0,29.0,1650824134628190.0
-45.0,14.0,-18.0,-1.0,0.0,-2.0,-8.0,-43.0,1650824134628190.0
45.0,-37.0,-44.0,-11.0,-8.0,-4.0,11.0,42.0,1650824134640225.0
-13.0,-2.0,21.0,2.0,-2.0,0.0,0.0,17.0,1650824134640225.0
2.0,5.0,9.0,9.0,12.0,11.0,23.0,23.0,1650824134649133.0
-21.0,-11.0,16.0,-16.0,-13.0,-9.0,-8.0,-11.0,1650824134649133.0
-25.0,12.0,-22.0,-3.0,6.0,-1.0,-11.0,-11.0,1650824134664205.0
33.0,38.0,3.0,8.0,1.0,6.0,19.0,28.0,1650824134664205.0
2.0,1.0,-13.0,-9.0,-6.0,-5.0,13.0,-1.0,1650824134665176.0
-5.0,0.0,47.0,26.0,7.0,3.0,3.0,-6.0,1650824134665176.0
28.0,-7.0,-5.0,8.0,8.0,5.0,-10.0,-11.0,1650824134686150.0
-23.0,-46.0,-21.0,-18.0,-4.0,4.0,7.0,-5.0,1650824134686150.0
69.0,59.0,-21.0,-23.0,4.0,10.0,42.0,71.0,1650824134688118.0
-79.0,-42.0,9.0,0.0,-6.0,-1.0,9.0,-49.0,1650824134688118.0
16.0,19.0,45.0,10.0,1.0,-10.0,-22.0,-32.0,1650824134699634.0
-35.0,9.0,-6.0,6.0,2.0,-8.0,-1.0,-22.0,1650824134699634.0
16.0,19.0,27.0,15.0,9.0,11.0,-12.0,-54.0,1650824134708594.0
15.0,1.0,-35.0,-11.0,-3.0,-2.0,29.0,79.0,1650824134708594.0
-22.0,-26.0,8.0,0.0,-8.0,1.0,-8.0,-10.0,1650824134723542.0
12.0,-9.0,9.0,6.0,-4.0,3.0,15.0,-2.0,1650824134723542.0
-26.0,-28.0,-11.0,-15.0,3.0,-3.0,-10.0,-36.0,1650824134725538.0
9.0,20.0,21.0,7.0,-2.0,-3.0,-1.0,-6.0,1650824134725538.0
-2.0,-64.0,-38.0,1.0,10.0,6.0,-4.0,4.0,1650824134746664.0
1.0,74.0,51.0,45.0,9.0,-1.0,7.0,18.0,1650824134746664.0
-29.0,-58.0,-68.0,-43.0,-23.0,-16.0,-26.0,-35.0,1650824134747594.0
12.0,21.0,-2.0,-34.0,-9.0,-4.0,-14.0,9.0,1650824134747594.0
22.0,-36.0,13.0,5.0,2.0,13.0,28.0,11.0,1650824134760560.0
-13.0,42.0,41.0,18.0,1.0,-10.0,-25.0,-34.0,1650824134760560.0
-15.0,-42.0,-57.0,-2.0,-3.0,-2.0,8.0,12.0,1650824134769537.0
-4.0,3.0,14.0,7.0,5.0,-6.0,-20.0,-25.0,1650824134769537.0
4.0,28.0,17.0,-7.0,-4.0,5.0,23.0,22.0,1650824134783645.0
40.0,-6.0,9.0,1.0,0.0,-4.0,-8.0,66.0,1650824134783645.0
-15.0,13.0,38.0,15.0,4.0,0.0,6.0,-45.0,1650824134785655.0
-39.0,-58.0,-14.0,11.0,3.0,-10.0,-71.0,-86.0,1650824134785655.0
-22.0,4.0,-5.0,-13.0,-12.0,-11.0,-17.0,3.0,1650824134806734.0
8.0,-35.0,20.0,7.0,2.0,1.0,7.0,6.0,1650824134806734.0
37.0,-30.0,-16.0,-3.0,0.0,-5.0,-3.0,16.0,1650824134807665.0
13.0,5.0,-45.0,-8.0,14.0,21.0,33.0,29.0,1650824134807665.0
7.0,33.0,26.0,6.0,-1.0,-2.0,-5.0,-20.0,1650824134820658.0
-17.0,-24.0,-34.0,-16.0,-6.0,0.0,5.0,-10.0,1650824134820658.0
44.0,31.0,28.0,18.0,0.0,10.0,17.0,28.0,1650824134829607.0
-12.0,13.0,35.0,9.0,-5.0,-12.0,0.0,-6.0,1650824134829607.0
-59.0,-26.0,5.0,-5.0,-1.0,-1.0,-1.0,20.0,1650824134844556.0
26.0,-21.0,-55.0,-15.0,-2.0,0.0,-7.0,-30.0,1650824134844556.0
5.0,40.0,3.0,6.0,4.0,6.0,9.0,25.0,1650824134845551.0
10.0,17.0,6.0,3.0,1.0,9.0,58.0,40.0,1650824134845551.0
16.0,-12.0,-6.0,-10.0,-9.0,-16.0,-51.0,-39.0,1650824134866482.0
-17.0,41.0,19.0,8.0,5.0,1.0,11.0,11.0,1650824134866482.0
50.0,3.0,12.0,2.0,2.0,-5.0,-12.0,17.0,1650824134868477.0
-14.0,18.0,2.0,11.0,3.0,-6.0,-34.0,-71.0,1650824134868477.0
-35.0,-19.0,-13.0,-17.0,3.0,8.0,17.0,26.0,1650824134889420.0
36.0,51.0,3.0,7.0,8.0,14.0,8.0,14.0,1650824134889420.0
5.0,9.0,1.0,-4.0,-5.0,-9.0,8.0,11.0,1650824134890426.0
-3.0,-41.0,-3.0,-8.0,-12.0,-5.0,9.0,33.0,1650824134890426.0
6.0,44.0,32.0,17.0,6.0,4.0,4.0,-14.0,1650824134904401.0
4.0,15.0,11.0,27.0,13.0,12.0,2.0,26.0,1650824134904401.0
-1.0,-57.0,-25.0,-13.0,8.0,4.0,-3.0,2.0,1650824134905378.0
-44.0,-46.0,-23.0,-23.0,-16.0,-15.0,-25.0,-30.0,1650824134905378.0
10.0,-17.0,11.0,0.0,-2.0,4.0,11.0,8.0,1650824134926381.0
-37.0,-89.0,-73.0,-44.0,-15.0,-19.0,-27.0,-37.0,1650824134926381.0
-32.0,9.0,30.0,15.0,-5.0,-2.0,-13.0,-21.0,1650824134928399.0
35.0,54.0,7.0,14.0,12.0,13.0,20.0,74.0,1650824134928399.0
-6.0,-54.0,-17.0,-3.0,1.0,-4.0,-28.0,-68.0,1650824134948975.0
-19.0,-8.0,11.0,12.0,2.0,5.0,27.0,-10.0,1650824134948975.0
-38.0,-11.0,-2.0,-8.0,-4.0,-8.0,-3.0,-13.0,1650824134950901.0
28.0,-42.0,-24.0,-10.0,-2.0,2.0,-12.0,9.0,1650824134950901.0
33.0,100.0,11.0,9.0,6.0,4.0,13.0,49.0,1650824134964864.0
-65.0,5.0,6.0,-7.0,-3.0,6.0,11.0,-27.0,1650824134964864.0
-5.0,10.0,16.0,14.0,-8.0,-21.0,-31.0,-74.0,1650824134977830.0
-24.0,-23.0,-8.0,-17.0,0.0,2.0,-3.0,-8.0,1650824134977830.0
29.0,-6.0,19.0,5.0,-8.0,-6.0,7.0,42.0,1650824134986835.0
13.0,49.0,-14.0,-14.0,9.0,8.0,-8.0,-39.0,1650824134986835.0
-12.0,-42.0,-7.0,3.0,-3.0,0.0,5.0,8.0,1650824134987802.0
4.0,16.0,-4.0,26.0,8.0,2.0,-5.0,-7.0,1650824134987802.0
-4.0,-47.0,-47.0,-41.0,0.0,-3.0,-19.0,-25.0,1650824135008746.0
38.0,11.0,23.0,-1.0,-11.0,-3.0,21.0,68.0,1650824135008746.0
-19.0,7.0,3.0,4.0,-2.0,1.0,-11.0,-8.0,1650824135010742.0
30.0,27.0,8.0,9.0,7.0,7.0,9.0,12.0,1650824135010742.0
-20.0,27.0,27.0,25.0,6.0,3.0,0.0,-8.0,1650824135023733.0
-30.0,-39.0,6.0,1.0,-4.0,-4.0,5.0,29.0,1650824135023733.0
33.0,12.0,2.0,-3.0,-4.0,-2.0,4.0,-34.0,1650824135029757.0
52.0,16.0,-5.0,8.0,0.0,0.0,-5.0,2.0,1650824135029757.0
-26.0,7.0,2.0,-4.0,1.0,3.0,19.0,34.0,1650824135046707.0
-28.0,12.0,-6.0,-7.0,-8.0,-18.0,-29.0,-47.0,1650824135046707.0
12.0,-51.0,8.0,3.0,1.0,1.0,-6.0,-19.0,1650824135047642.0
16.0,12.0,-9.0,-5.0,-4.0,-2.0,6.0,8.0,1650824135047642.0
2.0,-36.0,-50.0,-16.0,22.0,13.0,9.0,-12.0,1650824135068585.0
-1.0,-2.0,49.0,14.0,1.0,4.0,25.0,67.0,1650824135068585.0
1.0,-6.0,-5.0,13.0,6.0,-4.0,-10.0,-32.0,1650824135070629.0
-20.0,1.0,18.0,-5.0,-16.0,-8.0,-1.0,-21.0,1650824135070629.0
0.0,3.0,12.0,-25.0,-12.0,-9.0,-3.0,9.0,1650824135083574.0
34.0,56.0,15.0,17.0,-2.0,-1.0,-18.0,-21.0,1650824135083574.0
-4.0,-16.0,-29.0,-24.0,2.0,11.0,28.0,63.0,1650824135090556.0
-10.0,29.0,16.0,4.0,4.0,4.0,11.0,-25.0,1650824135090556.0
-2.0,-15.0,18.0,27.0,-4.0,-3.0,1.0,2.0,1650824135106485.0
44.0,-3.0,-1.0,-16.0,-7.0,-6.0,-21.0,-11.0,1650824135106485.0
-20.0,-46.0,-13.0,0.0,-7.0,2.0,-2.0,6.0,1650824135108479.0
-1.0,-56.0,-45.0,-3.0,14.0,12.0,11.0,11.0,1650824135108479.0
-4.0,12.0,-17.0,-6.0,-6.0,-5.0,-17.0,-18.0,1650824135136072.0
23.0,-13.0,-9.0,8.0,3.0,10.0,43.0,72.0,1650824135136072.0
-54.0,-3.0,4.0,1.0,-8.0,-10.0,-16.0,-7.0,1650824135138073.0
20.0,8.0,4.0,-11.0,5.0,3.0,-20.0,-22.0,1650824135138073.0
2.0,51.0,43.0,25.0,7.0,3.0,9.0,7.0,1650824135143052.0
-3.0,-80.0,-78.0,-19.0,-8.0,-3.0,18.0,33.0,1650824135143052.0
4.0,41.0,-2.0,-7.0,3.0,4.0,2.0,-18.0,1650824135150033.0
-31.0,3.0,14.0,-6.0,3.0,-5.0,7.0,10.0,1650824135150033.0
13.0,-4.0,9.0,10.0,-8.0,-13.0,-22.0,-33.0,1650824135166057.0
46.0,28.0,-26.0,-14.0,1.0,7.0,15.0,32.0,1650824135166057.0
-2.0,47.0,12.0,-5.0,7.0,1.0,-5.0,2.0,1650824135167986.0
-22.0,-30.0,-15.0,2.0,-9.0,-10.0,-8.0,-16.0,1650824135167986.0
0.0,28.0,-2.0,-12.0,-5.0,-1.0,16.0,20.0,1650824135189486.0
17.0,2.0,35.0,10.0,4.0,-4.0,-25.0,-31.0,1650824135189486.0
14.0,-40.0,-54.0,-8.0,-4.0,-3.0,9.0,17.0,1650824135190486.0
25.0,50.0,17.0,9.0,5.0,10.0,27.0,44.0,1650824135190486.0
21.0,-28.0,0.0,10.0,-6.0,-14.0,-74.0,-45.0,1650824135203749.0
-50.0,-28.0,-17.0,-2.0,7.0,1.0,-20.0,-52.0,1650824135203749.0
-29.0,48.0,31.0,0.0,-2.0,-3.0,-25.0,-1.0,1650824135217541.0
6.0,6.0,31.0,16.0,-1.0,1.0,-4.0,-5.0,1650824135217541.0
36.0,16.0,-1.0,-22.0,-5.0,1.0,16.0,13.0,1650824135226596.0
5.0,60.0,24.0,-7.0,0.0,2.0,12.0,-13.0,1650824135226596.0
3.0,-52.0,6.0,32.0,5.0,7.0,-8.0,5.0,1650824135227620.0
22.0,14.0,-2.0,-13.0,14.0,4.0,5.0,-8.0,1650824135227620.0
-57.0,-27.0,-30.0,-3.0,-7.0,3.0,16.0,-6.0,1650824135256582.0
-33.0,-80.0,-10.0,-17.0,-11.0,-18.0,-41.0,-52.0,1650824135256582.0
48.0,62.0,16.0,-2.0,-4.0,6.0,48.0,103.0,1650824135258511.0
-101.0,-81.0,-18.0,-8.0,-12.0,-9.0,-10.0,-66.0,1650824135258511.0
36.0,-17.0,-18.0,4.0,-4.0,-16.0,-53.0,-61.0,1650824135263526.0
-40.0,-16.0,-2.0,13.0,9.0,6.0,-8.0,11.0,1650824135263526.0
54.0,47.0,8.0,-1.0,2.0,13.0,34.0,-1.0,1650824135270507.0
48.0,1.0,-16.0,-9.0,-10.0,-10.0,33.0,61.0,1650824135270507.0
-67.0,-24.0,3.0,-2.0,4.0,14.0,30.0,-16.0,1650824135286602.0
15.0,31.0,0.0,16.0,8.0,0.0,-18.0,14.0,1650824135286602.0
-16.0,-102.0,-16.0,-19.0,-5.0,-8.0,-32.0,-46.0,1650824135288533.0
-12.0,-50.0,-40.0,-2.0,-4.0,-6.0,3.0,14.0,1650824135288533.0
45.0,61.0,34.0,3.0,-1.0,7.0,43.0,12.0,1650824135309071.0
41.0,7.0,-11.0,-10.0,-2.0,6.0,1.0,14.0,1650824135309071.0
-21.0,49.0,4.0,2.0,-10.0,-7.0,-9.0,-21.0,1650824135311069.0
13.0,2.0,-8.0,3.0,39.0,11.0,-7.0,11.0,1650824135311069.0
9.0,-39.0,-17.0,8.0,-4.0,2.0,8.0,41.0,1650824135323103.0
-13.0,4.0,2.0,-8.0,-4.0,1.0,-6.0,-81.0,1650824135323103.0
-10.0,-10.0,-20.0,-17.0,-10.0,0.0,17.0,12.0,1650824135330051.0
13.0,11.0,14.0,8.0,-13.0,-10.0,-32.0,-23.0,1650824135330051.0
-5.0,10.0,3.0,6.0,7.0,7.0,88.0,55.0,1650824135347027.0
-1.0,-2.0,12.0,4.0,1.0,-3.0,-54.0,-25.0,1650824135347027.0
-25.0,-2.0,6.0,5.0,7.0,-4.0,3.0,5.0,1650824135347970.0
30.0,10.0,6.0,-2.0,-10.0,7.0,9.0,16.0,1650824135347970.0
-37.0,-3.0,-5.0,-4.0,-1.0,-24.0,-88.0,-33.0,1650824135369068.0
25.0,3.0,8.0,8.0,-2.0,-5.0,21.0,17.0,1650824135369068.0
-1.0,-9.0,3.0,5.0,3.0,-3.0,-3.0,4.0,1650824135371039.0
-8.0,14.0,6.0,-2.0,-1.0,7.0,23.0,13.0,1650824135371039.0
12.0,-1.0,-5.0,-5.0,-1.0,13.0,34.0,27.0,1650824135383045.0
-15.0,-17.0,-7.0,1.0,-6.0,-8.0,0.0,-1.0,1650824135383045.0
-11.0,8.0,12.0,6.0,5.0,3.0,-10.0,-7.0,1650824135391913.0
-10.0,8.0,5.0,-11.0,-7.0,0.0,4.0,2.0,1650824135391913.0
1.0,-2.0,-5.0,5.0,2.0,-1.0,-8.0,0.0,1650824135406669.0
-3.0,-1.0,0.0,8.0,10.0,3.0,5.0,2.0,1650824135406669.0
6.0,6.0,11.0,-9.0,-6.0,-5.0,7.0,5.0,1650824135412655.0
-9.0,-1.0,2.0,-9.0,-15.0,-9.0,-4.0,-3.0,1650824135412655.0
4.0,-11.0,-20.0,-18.0,-2.0,-3.0,-29.0,-16.0,1650824135428560.0
3.0,2.0,4.0,8.0,5.0,6.0,21.0,19.0,1650824135428560.0
3.0,12.0,23.0,25.0,9.0,10.0,9.0,12.0,1650824135430550.0
-9.0,-3.0,-6.0,4.0,-2.0,-6.0,-22.0,-9.0,1650824135430550.0
-13.0,-8.0,-19.0,-30.0,-17.0,-8.0,-16.0,-24.0,1650824135442910.0
-4.0,0.0,9.0,2.0,-1.0,4.0,19.0,11.0,1650824135442910.0
-9.0,-3.0,-11.0,-11.0,4.0,1.0,1.0,-15.0,1650824135451886.0
1.0,5.0,19.0,25.0,4.0,-6.0,-18.0,28.0,1650824135451886.0
0.0,5.0,4.0,11.0,6.0,-4.0,-4.0,-54.0,1650824135466928.0
0.0,-4.0,-4.0,6.0,1.0,3.0,10.0,8.0,1650824135466928.0
-4.0,-1.0,17.0,3.0,-7.0,-4.0,-13.0,-15.0,1650824135467844.0
-4.0,-6.0,-14.0,-34.0,-11.0,-5.0,-5.0,0.0,1650824135467844.0
9.0,-1.0,-1.0,6.0,2.0,1.0,8.0,29.0,1650824135496943.0
-7.0,-12.0,-23.0,-6.0,-11.0,-5.0,-6.0,-3.0,1650824135496943.0
-1.0,8.0,6.0,11.0,7.0,0.0,-4.0,-1.0,1650824135497923.0
-1.0,6.0,6.0,6.0,6.0,6.0,5.0,-7.0,1650824135497923.0
14.0,8.0,25.0,14.0,2.0,1.0,6.0,28.0,1650824135502933.0
-29.0,-4.0,2.0,3.0,-1.0,-2.0,11.0,-23.0,1650824135502933.0
-13.0,-23.0,-53.0,-36.0,-15.0,-8.0,-13.0,14.0,1650824135511878.0
9.0,2.0,-1.0,-5.0,-7.0,-4.0,-1.0,-14.0,1650824135511878.0
1.0,-1.0,2.0,5.0,5.0,3.0,2.0,0.0,1650824135534422.0
16.0,12.0,37.0,24.0,12.0,6.0,6.0,19.0,1650824135534422.0
25.0,-5.0,-21.0,3.0,-6.0,-3.0,3.0,14.0,1650824135535437.0
-49.0,-4.0,-2.0,-19.0,-2.0,-1.0,-4.0,-12.0,1650824135535437.0
3.0,5.0,10.0,10.0,7.0,5.0,3.0,11.0,1650824135549425.0
-6.0,-6.0,-18.0,-13.0,-11.0,-5.0,-5.0,-24.0,1650824135549425.0
-6.0,-8.0,-24.0,-34.0,0.0,-1.0,-4.0,-6.0,1650824135550382.0
8.0,4.0,12.0,16.0,-1.0,2.0,-4.0,-6.0,1650824135550382.0
9.0,0.0,-1.0,-8.0,-1.0,-6.0,1.0,7.0,1650824135562350.0
-3.0,4.0,7.0,1.0,1.0,1.0,-1.0,9.0,1650824135562350.0
-5.0,4.0,8.0,0.0,-1.0,-1.0,-3.0,-4.0,1650824135571376.0
4.0,-4.0,0.0,5.0,1.0,0.0,3.0,-3.0,1650824135571376.0
-4.0,6.0,4.0,-2.0,-1.0,2.0,0.0,5.0,1650824135586354.0
7.0,-13.0,-23.0,-13.0,-3.0,-8.0,-10.0,4.0,1650824135586354.0
-4.0,3.0,21.0,14.0,8.0,10.0,7.0,-3.0,1650824135588309.0
-1.0,6.0,-10.0,5.0,5.0,0.0,2.0,-4.0,1650824135588309.0
4.0,-3.0,5.0,-4.0,-8.0,0.0,0.0,6.0,1650824135609255.0
0.0,5.0,0.0,-4.0,-4.0,-6.0,-6.0,-15.0,1650824135609255.0
-4.0,-4.0,0.0,-4.0,-4.0,0.0,-3.0,-2.0,1650824135610222.0
3.0,3.0,0.0,2.0,-1.0,-1.0,-1.0,-2.0,1650824135610222.0
-2.0,-9.0,-11.0,-1.0,1.0,0.0,0.0,-4.0,1650824135622211.0
4.0,4.0,-2.0,-10.0,-2.0,1.0,1.0,10.0,1650824135622211.0
0.0,-1.0,-12.0,0.0,6.0,1.0,-1.0,-1.0,1650824135631166.0
-3.0,-7.0,3.0,1.0,-8.0,-1.0,-4.0,-4.0,1650824135631166.0
7.0,1.0,3.0,-5.0,-1.0,-4.0,-1.0,2.0,1650824135645156.0
11.0,10.0,3.0,-4.0,3.0,2.0,6.0,12.0,1650824135645156.0
-19.0,-15.0,8.0,8.0,1.0,-5.0,-1.0,-7.0,1650824135654106.0
6.0,6.0,16.0,24.0,8.0,4.0,1.0,2.0,1650824135654106.0
-4.0,2.0,9.0,4.0,-3.0,-1.0,-1.0,1.0,1650824135669092.0
-3.0,-22.0,-32.0,-31.0,-14.0,-8.0,-6.0,-2.0,1650824135669092.0
7.0,10.0,9.0,4.0,-1.0,1.0,0.0,0.0,1650824135670063.0
1.0,5.0,-4.0,-4.0,-4.0,-2.0,-2.0,-2.0,1650824135670063.0
3.0,-3.0,7.0,6.0,7.0,8.0,5.0,2.0,1650824135683027.0
1.0,12.0,8.0,10.0,1.0,1.0,-1.0,4.0,1650824135683027.0
-5.0,-7.0,0.0,-3.0,-6.0,-3.0,-1.0,-3.0,1650824135692032.0
1.0,-1.0,-1.0,-3.0,3.0,0.0,2.0,4.0,1650824135692032.0
-1.0,-8.0,-5.0,4.0,1.0,-3.0,-2.0,-1.0,1650824135705987.0
-4.0,-12.0,-9.0,-1.0,1.0,1.0,0.0,3.0,1650824135705987.0
1.0,8.0,9.0,3.0,-6.0,-4.0,-2.0,0.0,1650824135707962.0
0.0,2.0,7.0,-5.0,-5.0,-5.0,-6.0,-2.0,1650824135707962.0
-3.0,-2.0,-14.0,0.0,3.0,3.0,4.0,-2.0,1650824135729225.0
-4.0,-7.0,-12.0,1.0,1.0,-1.0,3.0,2.0,1650824135729225.0
6.0,5.0,14.0,5.0,0.0,0.0,1.0,2.0,1650824135735279.0
-1.0,-12.0,-10.0,-1.0,2.0,-2.0,-3.0,-2.0,1650824135735279.0
-5.0,-2.0,-13.0,-7.0,-7.0,-1.0,-2.0,-3.0,1650824135742260.0
-3.0,0.0,5.0,-3.0,3.0,4.0,4.0,1.0,1650824135742260.0
2.0,4.0,0.0,0.0,0.0,-3.0,3.0,1.0,1650824135751292.0
2.0,1.0,-7.0,-10.0,-2.0,-3.0,-2.0,1.0,1650824135751292.0
-4.0,-5.0,1.0,-2.0,-6.0,-4.0,-6.0,-4.0,1650824135768236.0
-1.0,-1.0,8.0,5.0,5.0,2.0,2.0,1.0,1650824135768236.0
3.0,7.0,-8.0,11.0,3.0,1.0,0.0,1.0,1650824135769207.0
-2.0,14.0,21.0,6.0,7.0,6.0,4.0,0.0,1650824135769207.0
4.0,9.0,-11.0,-14.0,-9.0,-7.0,-1.0,2.0,1650824135789218.0
-2.0,-9.0,7.0,-1.0,-5.0,-7.0,-1.0,-4.0,1650824135789218.0
2.0,2.0,-3.0,-2.0,6.0,7.0,1.0,2.0,1650824135790179.0
0.0,-6.0,-5.0,6.0,-1.0,-2.0,-1.0,-3.0,1650824135790179.0
2.0,9.0,-3.0,5.0,4.0,4.0,1.0,2.0,1650824135812400.0
-1.0,0.0,-2.0,0.0,-2.0,-1.0,-1.0,0.0,1650824135812400.0
-4.0,-2.0,2.0,-7.0,-13.0,-5.0,3.0,-2.0,1650824135813400.0
-4.0,-12.0,2.0,-5.0,0.0,0.0,-2.0,-3.0,1650824135813400.0
-2.0,-3.0,0.0,-1.0,4.0,2.0,-1.0,-2.0,1650824135826434.0
3.0,3.0,4.0,3.0,1.0,-3.0,-2.0,1.0,1650824135826434.0
0.0,-4.0,2.0,0.0,0.0,-2.0,-2.0,-2.0,1650824135828363.0
-1.0,-3.0,-8.0,-3.0,-1.0,2.0,1.0,1.0,1650824135828363.0
-1.0,1.0,-1.0,1.0,-2.0,-2.0,1.0,-1.0,1650824135849303.0
-1.0,0.0,12.0,8.0,5.0,7.0,4.0,2.0,1650824135849303.0
4.0,10.0,1.0,6.0,0.0,0.0,-2.0,3.0,1650824135850301.0
2.0,9.0,12.0,-3.0,-7.0,-7.0,-2.0,-1.0,1650824135850301.0
-5.0,-21.0,-6.0,4.0,5.0,0.0,-1.0,-1.0,1650824135871328.0
1.0,5.0,-7.0,-9.0,-1.0,1.0,1.0,1.0,1650824135871328.0
-2.0,-4.0,-2.0,-5.0,-1.0,1.0,0.0,-1.0,1650824135873344.0
0.0,0.0,-8.0,-1.0,-4.0,-1.0,0.0,0.0,1650824135873344.0
2.0,2.0,2.0,5.0,-1.0,-3.0,-1.0,0.0,1650824135886289.0
1.0,7.0,12.0,7.0,-1.0,-4.0,-1.0,0.0,1650824135886289.0
2.0,-3.0,-4.0,-2.0,2.0,1.0,-1.0,1.0,1650824135888313.0
-4.0,3.0,12.0,1.0,4.0,1.0,-2.0,-1.0,1650824135888313.0
-2.0,-1.0,-11.0,0.0,-3.0,-1.0,-2.0,1.0,1650824135909450.0
-1.0,-3.0,-7.0,-12.0,-8.0,-6.0,-4.0,-2.0,1650824135909450.0
-4.0,-4.0,-9.0,0.0,2.0,1.0,2.0,0.0,1650824135910419.0
6.0,2.0,-5.0,0.0,9.0,5.0,1.0,3.0,1650824135910419.0
-12.0,-35.0,-2.0,-7.0,-13.0,-7.0,-7.0,-8.0,1650824135931406.0
1.0,18.0,13.0,6.0,2.0,-1.0,-2.0,0.0,1650824135931406.0
-7.0,-17.0,-3.0,-1.0,-2.0,-2.0,-3.0,-1.0,1650824135933358.0
-1.0,-11.0,-5.0,-2.0,-3.0,-2.0,-1.0,-1.0,1650824135933358.0
5.0,16.0,10.0,2.0,3.0,3.0,0.0,0.0,1650824135946374.0
0.0,-11.0,-33.0,-10.0,-4.0,0.0,-1.0,-2.0,1650824135946374.0
-2.0,-1.0,2.0,-3.0,5.0,-2.0,1.0,0.0,1650824135948326.0
1.0,3.0,-8.0,0.0,-1.0,1.0,-1.0,0.0,1650824135948326.0
0.0,5.0,4.0,1.0,-2.0,-1.0,1.0,0.0,1650824135969246.0
-2.0,-5.0,4.0,-3.0,-4.0,-2.0,-3.0,-1.0,1650824135969246.0
0.0,5.0,3.0,14.0,1.0,5.0,3.0,-1.0,1650824135970253.0
-2.0,-7.0,-11.0,-13.0,7.0,4.0,1.0,1.0,1650824135970253.0
0.0,10.0,1.0,0.0,-11.0,-5.0,0.0,0.0,1650824135991189.0
-3.0,-11.0,5.0,9.0,5.0,-4.0,1.0,-4.0,1650824135991189.0
0.0,4.0,-2.0,-12.0,-6.0,-6.0,-5.0,1.0,1650824135993183.0
-1.0,3.0,7.0,6.0,-6.0,-1.0,-2.0,-1.0,1650824135993183.0
1.0,3.0,3.0,2.0,9.0,9.0,4.0,0.0,1650824136006211.0
-1.0,1.0,-4.0,-6.0,-4.0,-5.0,-3.0,0.0,1650824136006211.0
1.0,2.0,-7.0,3.0,-5.0,-4.0,-1.0,0.0,1650824136012145.0
-1.0,-5.0,-14.0,-11.0,-3.0,-2.0,-2.0,-1.0,1650824136012145.0
-2.0,-24.0,-13.0,-3.0,4.0,2.0,-1.0,-1.0,1650824136029086.0
-1.0,15.0,22.0,3.0,2.0,6.0,5.0,2.0,1650824136029086.0
-3.0,-9.0,-2.0,1.0,4.0,2.0,-1.0,-1.0,1650824136030083.0
3.0,19.0,7.0,9.0,3.0,1.0,1.0,-1.0,1650824136030083.0
-1.0,-20.0,-4.0,0.0,-1.0,-6.0,-3.0,0.0,1650824136051047.0
1.0,-1.0,1.0,-11.0,-3.0,-1.0,-2.0,-1.0,1650824136051047.0
-3.0,-3.0,2.0,-1.0,-3.0,-3.0,-1.0,-1.0,1650824136053023.0
2.0,5.0,1.0,-3.0,-7.0,-2.0,0.0,0.0,1650824136053023.0
3.0,20.0,11.0,8.0,5.0,5.0,2.0,-1.0,1650824136065987.0
-4.0,-7.0,-2.0,2.0,5.0,6.0,1.0,-1.0,1650824136065987.0
2.0,3.0,1.0,-11.0,-4.0,0.0,1.0,-1.0,1650824136072970.0
-2.0,-11.0,-8.0,2.0,-3.0,-5.0,1.0,1.0,1650824136072970.0
2.0,13.0,2.0,-1.0,3.0,-2.0,-1.0,2.0,1650824136088928.0
-1.0,-12.0,-12.0,0.0,-8.0,-2.0,-5.0,-2.0,1650824136088928.0
0.0,1.0,0.0,0.0,1.0,3.0,1.0,-2.0,1650824136090925.0
-2.0,-1.0,5.0,2.0,10.0,5.0,1.0,0.0,1650824136090925.0
-1.0,1.0,-7.0,-5.0,-10.0,1.0,0.0,-1.0,1650824136111701.0
2.0,5.0,4.0,6.0,5.0,2.0,4.0,3.0,1650824136111701.0
0.0,-2.0,-2.0,-4.0,-6.0,-5.0,-3.0,2.0,1650824136112700.0
1.0,-2.0,3.0,6.0,2.0,1.0,1.0,-1.0,1650824136112700.0
-3.0,-13.0,-25.0,-12.0,2.0,3.0,1.0,-1.0,1650824136125729.0
-5.0,-14.0,7.0,-4.0,-5.0,0.0,-4.0,-3.0,1650824136125729.0
3.0,4.0,-9.0,1.0,0.0,-3.0,1.0,0.0,1650824136133071.0
-5.0,-6.0,5.0,1.0,-1.0,-4.0,-2.0,-2.0,1650824136133071.0
1.0,8.0,10.0,1.0,-2.0,-3.0,0.0,0.0,1650824136149098.0
1.0,-3.0,-5.0,-1.0,-3.0,-2.0,-2.0,0.0,1650824136149098.0
-3.0,5.0,2.0,1.0,0.0,-1.0,-3.0,-3.0,1650824136151040.0
1.0,-11.0,-6.0,4.0,1.0,3.0,0.0,0.0,1650824136151040.0
-1.0,-1.0,-7.0,-11.0,-2.0,0.0,0.0,0.0,1650824136171052.0
1.0,3.0,5.0,8.0,3.0,-3.0,-1.0,0.0,1650824136171052.0
0.0,2.0,1.0,-8.0,-2.0,3.0,-1.0,-1.0,1650824136173048.0
1.0,3.0,-3.0,-5.0,-5.0,1.0,-1.0,-1.0,1650824136173048.0
-1.0,6.0,7.0,6.0,2.0,-3.0,0.0,0.0,1650824136186160.0
1.0,1.0,-5.0,-4.0,3.0,-1.0,0.0,-1.0,1650824136186160.0
-1.0,1.0,16.0,9.0,-3.0,3.0,2.0,1.0,1650824136193073.0
2.0,-3.0,-4.0,4.0,-3.0,-1.0,-1.0,0.0,1650824136193073.0
0.0,4.0,1.0,-6.0,3.0,3.0,1.0,0.0,1650824136209159.0
-2.0,1.0,0.0,4.0,0.0,1.0,-1.0,-1.0,1650824136209159.0
-1.0,-1.0,5.0,3.0,10.0,2.0,-2.0,-1.0,1650824136211155.0
0.0,1.0,3.0,-1.0,-9.0,-8.0,1.0,1.0,1650824136211155.0
-2.0,-6.0,-3.0,-2.0,-2.0,-6.0,-3.0,-1.0,1650824136231255.0
0.0,1.0,-6.0,0.0,-1.0,-3.0,-1.0,1.0,1650824136231255.0
1.0,-1.0,1.0,-6.0,-2.0,-1.0,1.0,1.0,1650824136233181.0
0.0,9.0,-13.0,-2.0,0.0,-1.0,-3.0,-1.0,1650824136233181.0
-6.0,-24.0,1.0,6.0,1.0,-3.0,-1.0,-3.0,1650824136246150.0
-1.0,9.0,9.0,-2.0,-4.0,0.0,-1.0,-1.0,1650824136246150.0
1.0,3.0,10.0,0.0,1.0,0.0,-1.0,0.0,1650824136252848.0
-1.0,-12.0,-11.0,3.0,5.0,2.0,1.0,-1.0,1650824136252848.0
0.0,10.0,10.0,-3.0,-5.0,-1.0,-1.0,1.0,1650824136268985.0
0.0,1.0,-10.0,1.0,1.0,0.0,0.0,-1.0,1650824136268985.0
-1.0,-3.0,0.0,-1.0,-4.0,-6.0,-4.0,-1.0,1650824136270946.0
-1.0,8.0,7.0,-5.0,-6.0,-3.0,-4.0,-1.0,1650824136270946.0
-3.0,-2.0,-2.0,9.0,7.0,9.0,6.0,0.0,1650824136291899.0
1.0,-2.0,-2.0,-10.0,0.0,0.0,2.0,1.0,1650824136291899.0
2.0,6.0,-6.0,6.0,1.0,-2.0,0.0,0.0,1650824136292888.0
-2.0,-3.0,-2.0,-6.0,-4.0,-4.0,-1.0,-1.0,1650824136292888.0
2.0,3.0,1.0,-1.0,-9.0,-8.0,-4.0,-1.0,1650824136305675.0
-1.0,3.0,4.0,-1.0,-6.0,-4.0,-3.0,-1.0,1650824136305675.0
-2.0,-7.0,-11.0,-5.0,2.0,1.0,0.0,-4.0,1650824136314583.0
-2.0,0.0,4.0,8.0,4.0,1.0,4.0,1.0,1650824136314583.0
1.0,4.0,0.0,-1.0,3.0,4.0,-1.0,0.0,1650824136328546.0
-2.0,-5.0,4.0,0.0,-2.0,-1.0,1.0,-2.0,1650824136328546.0
-3.0,-7.0,-9.0,-6.0,4.0,2.0,-2.0,-1.0,1650824136330545.0
-2.0,-5.0,-9.0,-9.0,-4.0,-1.0,-2.0,-3.0,1650824136330545.0
2.0,5.0,-1.0,0.0,-4.0,-4.0,-1.0,0.0,1650824136351984.0
-1.0,4.0,6.0,0.0,1.0,0.0,-2.0,-1.0,1650824136351984.0
1.0,7.0,3.0,3.0,-2.0,0.0,-2.0,-1.0,1650824136352953.0
0.0,1.0,3.0,-1.0,-1.0,0.0,1.0,0.0,1650824136352953.0
0.0,5.0,5.0,-3.0,3.0,0.0,1.0,1.0,1650824136365662.0
1.0,-5.0,-16.0,0.0,2.0,1.0,0.0,1.0,1650824136365662.0
-2.0,2.0,6.0,0.0,-2.0,1.0,3.0,-2.0,1650824136374575.0
0.0,-3.0,-8.0,0.0,-1.0,1.0,-2.0,1.0,1650824136374575.0
-2.0,0.0,-7.0,1.0,-2.0,0.0,-2.0,0.0,1650824136388564.0
2.0,-7.0,-2.0,0.0,-1.0,1.0,0.0,1.0,1650824136388564.0
0.0,15.0,11.0,3.0,0.0,-3.0,-2.0,-1.0,1650824136390529.0
-1.0,-3.0,-6.0,-8.0,-1.0,-1.0,-1.0,-2.0,1650824136390529.0
0.0,-1.0,2.0,1.0,1.0,2.0,2.0,-1.0,1650824136411493.0
1.0,0.0,0.0,8.0,3.0,-1.0,-1.0,-1.0,1650824136411493.0
-1.0,-7.0,-7.0,0.0,0.0,1.0,0.0,-1.0,1650824136413468.0
0.0,0.0,6.0,-1.0,-10.0,-3.0,1.0,1.0,1650824136413468.0
-3.0,1.0,2.0,1.0,-5.0,-8.0,-2.0,-3.0,1650824136425499.0
-2.0,-1.0,1.0,-3.0,-2.0,-4.0,-1.0,0.0,1650824136425499.0
-1.0,-4.0,-10.0,-3.0,2.0,0.0,4.0,1.0,1650824136433809.0
0.0,2.0,5.0,4.0,4.0,0.0,-3.0,-2.0,1650824136433809.0
0.0,0.0,0.0,4.0,0.0,0.0,0.0,-1.0,1650824136448905.0
1.0,2.0,-8.0,-17.0,-5.0,0.0,0.0,0.0,1650824136448905.0
1.0,-6.0,4.0,2.0,1.0,0.0,1.0,2.0,1650824136450839.0
-5.0,-18.0,-12.0,-8.0,2.0,2.0,-2.0,-4.0,1650824136450839.0
0.0,1.0,2.0,9.0,8.0,6.0,1.0,1.0,1650824136471605.0
1.0,13.0,5.0,8.0,1.0,-3.0,-1.0,0.0,1650824136471605.0
-8.0,-24.0,-4.0,-4.0,-3.0,-1.0,0.0,-1.0,1650824136472575.0
2.0,3.0,8.0,0.0,-4.0,-5.0,-1.0,-1.0,1650824136472575.0
1.0,1.0,-2.0,-6.0,-3.0,-5.0,-2.0,1.0,1650824136485585.0
-1.0,-2.0,0.0,3.0,-1.0,-1.0,0.0,-1.0,1650824136485585.0
1.0,2.0,-10.0,-9.0,-2.0,-2.0,-2.0,1.0,1650824136494518.0
-2.0,2.0,0.0,-6.0,-2.0,1.0,-1.0,0.0,1650824136494518.0
-2.0,-4.0,-1.0,-5.0,-1.0,-1.0,-1.0,-1.0,1650824136508478.0
-2.0,0.0,-2.0,5.0,6.0,5.0,4.0,3.0,1650824136508478.0
3.0,1.0,1.0,3.0,-3.0,-3.0,-2.0,1.0,1650824136510483.0
0.0,2.0,4.0,5.0,4.0,1.0,1.0,1.0,1650824136510483.0
1.0,2.0,1.0,-4.0,-3.0,-2.0,-2.0,1.0,1650824136531485.0
0.0,-6.0,-5.0,-3.0,3.0,4.0,-1.0,-1.0,1650824136531485.0
0.0,-1.0,1.0,7.0,-8.0,-2.0,-2.0,-2.0,1650824136533439.0
-2.0,0.0,-9.0,-10.0,-3.0,-6.0,-2.0,0.0,1650824136533439.0
1.0,-2.0,1.0,-1.0,-4.0,-4.0,-3.0,0.0,1650824136545466.0
1.0,4.0,12.0,6.0,-2.0,1.0,2.0,0.0,1650824136545466.0
-4.0,-2.0,0.0,-2.0,3.0,2.0,-1.0,-1.0,1650824136554445.0
0.0,-2.0,-5.0,4.0,5.0,2.0,-1.0,0.0,1650824136554445.0
-1.0,0.0,-3.0,-2.0,-4.0,-1.0,0.0,0.0,1650824136569422.0
1.0,2.0,5.0,4.0,-1.0,0.0,0.0,-2.0,1650824136569422.0
-3.0,-15.0,-22.0,-14.0,-3.0,-2.0,-1.0,-3.0,1650824136570409.0
0.0,3.0,4.0,0.0,5.0,2.0,1.0,-1.0,1650824136570409.0
-2.0,-2.0,-4.0,-1.0,-4.0,0.0,-1.0,-1.0,1650824136591457.0
-2.0,-5.0,1.0,-2.0,-2.0,-3.0,-1.0,0.0,1650824136591457.0
3.0,7.0,1.0,5.0,-1.0,-3.0,-1.0,2.0,1650824136593424.0
-2.0,-6.0,-5.0,2.0,1.0,-2.0,0.0,-1.0,1650824136593424.0
0.0,6.0,2.0,-4.0,2.0,3.0,1.0,0.0,1650824136605457.0
-1.0,-4.0,-3.0,-3.0,0.0,1.0,-1.0,-2.0,1650824136605457.0
0.0,5.0,7.0,0.0,-2.0,-4.0,0.0,0.0,1650824136614369.0
2.0,-1.0,-2.0,-3.0,0.0,-4.0,-1.0,2.0,1650824136614369.0
1.0,3.0,6.0,5.0,6.0,7.0,-2.0,-2.0,1650824136629333.0
-3.0,-3.0,-5.0,3.0,-9.0,-6.0,-1.0,-1.0,1650824136629333.0
3.0,2.0,-2.0,0.0,7.0,0.0,3.0,1.0,1650824136630327.0
0.0,3.0,9.0,3.0,-1.0,1.0,-2.0,0.0,1650824136630327.0
-2.0,-2.0,1.0,5.0,3.0,-2.0,-2.0,-1.0,1650824136651297.0
0.0,-3.0,-13.0,-9.0,-3.0,1.0,-1.0,-2.0,1650824136651297.0
-4.0,-5.0,0.0,-9.0,-4.0,3.0,-1.0,-1.0,1650824136653265.0
1.0,10.0,4.0,0.0,-1.0,-2.0,0.0,0.0,1650824136653265.0
1.0,-1.0,1.0,-3.0,-2.0,-4.0,-1.0,0.0,1650824136665620.0
-4.0,-4.0,1.0,4.0,3.0,2.0,-1.0,-2.0,1650824136665620.0
2.0,8.0,6.0,2.0,0.0,1.0,0.0,2.0,1650824136674580.0
-1.0,3.0,1.0,-3.0,-6.0,-2.0,-1.0,0.0,1650824136674580.0
-1.0,-4.0,-7.0,-4.0,-8.0,-4.0,-2.0,-2.0,1650824136688664.0
-1.0,-2.0,3.0,4.0,-1.0,3.0,2.0,1.0,1650824136688664.0
2.0,3.0,-2.0,-1.0,9.0,-1.0,-2.0,-2.0,1650824136690592.0
-2.0,1.0,-4.0,-7.0,-9.0,1.0,2.0,0.0,1650824136690592.0
-2.0,-3.0,-2.0,3.0,1.0,-4.0,-2.0,-1.0,1650824136711563.0
1.0,-2.0,4.0,1.0,5.0,-3.0,-1.0,0.0,1650824136711563.0
1.0,-2.0,-4.0,1.0,-8.0,-5.0,-6.0,1.0,1650824136713531.0
-4.0,-5.0,5.0,6.0,-1.0,0.0,1.0,-3.0,1650824136713531.0
-1.0,2.0,-6.0,-2.0,1.0,6.0,3.0,1.0,1650824136725578.0
-2.0,-4.0,-16.0,-12.0,2.0,3.0,2.0,-2.0,1650824136725578.0
1.0,3.0,9.0,11.0,4.0,0.0,0.0,4.0,1650824136734491.0
-6.0,-9.0,-16.0,-19.0,-9.0,-7.0,-11.0,-14.0,1650824136734491.0
2.0,-1.0,7.0,9.0,3.0,4.0,4.0,0.0,1650824136748644.0
2.0,3.0,5.0,5.0,1.0,0.0,-1.0,3.0,1650824136748644.0
2.0,5.0,6.0,-8.0,-5.0,-4.0,-3.0,0.0,1650824136750573.0
-5.0,-6.0,-5.0,8.0,3.0,2.0,2.0,4.0,1650824136750573.0
-2.0,-4.0,-6.0,10.0,1.0,-4.0,-3.0,-5.0,1650824136771270.0
-9.0,-6.0,4.0,-19.0,-4.0,-1.0,-6.0,-3.0,1650824136771270.0
-5.0,-2.0,-9.0,-8.0,-5.0,-1.0,3.0,-3.0,1650824136773224.0
0.0,6.0,10.0,11.0,11.0,9.0,5.0,3.0,1650824136773224.0
10.0,6.0,-4.0,7.0,-6.0,-5.0,-5.0,-3.0,1650824136793983.0
4.0,-3.0,-13.0,-21.0,-10.0,-5.0,6.0,4.0,1650824136793983.0
4.0,-4.0,-2.0,1.0,4.0,1.0,7.0,-1.0,1650824136799999.0
-29.0,-4.0,-1.0,-2.0,-6.0,-8.0,-9.0,-5.0,1650824136799999.0
7.0,-5.0,15.0,20.0,3.0,1.0,-1.0,25.0,1650824136816951.0
-19.0,-7.0,-25.0,-25.0,-6.0,-6.0,-15.0,-47.0,1650824136816951.0
3.0,1.0,1.0,-11.0,-6.0,0.0,-4.0,-7.0,1650824136817921.0
8.0,-2.0,2.0,3.0,5.0,7.0,12.0,4.0,1650824136817921.0
-1.0,5.0,8.0,1.0,8.0,3.0,6.0,-3.0,1650824136831931.0
-2.0,8.0,9.0,22.0,-5.0,-7.0,0.0,13.0,1650824136831931.0
6.0,-3.0,-11.0,-14.0,3.0,2.0,-3.0,2.0,1650824136832881.0
-9.0,9.0,16.0,16.0,1.0,1.0,3.0,-3.0,1650824136832881.0
18.0,12.0,2.0,-7.0,23.0,11.0,3.0,5.0,1650824136853831.0
32.0,-4.0,-18.0,-28.0,-14.0,2.0,4.0,10.0,1650824136853831.0
-24.0,-7.0,2.0,10.0,5.0,-1.0,-1.0,1.0,1650824136855820.0
21.0,3.0,-6.0,5.0,-2.0,5.0,6.0,11.0,1650824136855820.0
-33.0,-27.0,-18.0,-20.0,-18.0,-21.0,-28.0,-37.0,1650824136868814.0
-24.0,5.0,19.0,18.0,5.0,-3.0,-16.0,-12.0,1650824136868814.0
18.0,0.0,6.0,0.0,-1.0,2.0,-1.0,-1.0,1650824136870800.0
20.0,14.0,11.0,-4.0,6.0,6.0,24.0,17.0,1650824136870800.0
7.0,0.0,9.0,24.0,4.0,9.0,-14.0,-14.0,1650824136891751.0
0.0,3.0,-7.0,-22.0,1.0,-3.0,-12.0,-7.0,1650824136891751.0
-1.0,-3.0,-8.0,-3.0,-12.0,2.0,0.0,-6.0,1650824136892731.0
14.0,-6.0,-17.0,-21.0,-4.0,-7.0,15.0,31.0,1650824136892731.0
-10.0,10.0,4.0,-11.0,-4.0,-2.0,-5.0,-4.0,1650824136921219.0
-9.0,-14.0,14.0,11.0,3.0,-7.0,-51.0,-66.0,1650824136921219.0
-11.0,8.0,8.0,42.0,7.0,6.0,20.0,20.0,1650824136923175.0
-25.0,-6.0,-13.0,-16.0,-7.0,-13.0,-10.0,-33.0,1650824136923175.0
-3.0,-18.0,-15.0,-22.0,-10.0,1.0,13.0,8.0,1650824136928134.0
6.0,19.0,17.0,10.0,-1.0,-8.0,5.0,12.0,1650824136928134.0
30.0,40.0,14.0,14.0,7.0,17.0,44.0,52.0,1650824136935115.0
-2.0,-89.0,-36.0,-1.0,4.0,6.0,-10.0,-30.0,1650824136935115.0
-18.0,7.0,8.0,-1.0,-3.0,-19.0,-29.0,-38.0,1650824136951139.0
5.0,2.0,0.0,21.0,8.0,8.0,38.0,56.0,1650824136951139.0
19.0,0.0,5.0,0.0,-5.0,-4.0,-34.0,-41.0,1650824136953068.0
-18.0,15.0,0.0,-6.0,-1.0,10.0,24.0,23.0,1650824136953068.0
22.0,-17.0,2.0,-7.0,3.0,1.0,11.0,-5.0,1650824136974038.0
3.0,6.0,-1.0,13.0,2.0,7.0,-18.0,-16.0,1650824136974038.0
22.0,5.0,-41.0,-25.0,-7.0,-13.0,-1.0,-22.0,1650824136976026.0
-50.0,-60.0,3.0,-10.0,-2.0,-12.0,-33.0,-14.0,1650824136976026.0
-8.0,4.0,6.0,41.0,3.0,2.0,23.0,19.0,1650824136988471.0
19.0,12.0,-30.0,-51.0,-8.0,1.0,26.0,42.0,1650824136988471.0
-1.0,-5.0,-24.0,-21.0,-12.0,-1.0,-2.0,-4.0,1650824136995425.0
12.0,38.0,12.0,15.0,3.0,-1.0,-43.0,-40.0,1650824136995425.0
-6.0,-5.0,-12.0,-13.0,-2.0,-3.0,2.0,14.0,1650824137011409.0
11.0,26.0,35.0,50.0,9.0,-4.0,16.0,5.0,1650824137011409.0
-5.0,-61.0,7.0,-22.0,-5.0,0.0,16.0,40.0,1650824137013378.0
36.0,33.0,22.0,5.0,0.0,3.0,-11.0,9.0,1650824137013378.0
-12.0,0.0,9.0,-5.0,-11.0,-1.0,-11.0,-22.0,1650824137041103.0
2.0,31.0,4.0,10.0,8.0,9.0,19.0,23.0,1650824137041103.0
0.0,74.0,70.0,39.0,13.0,5.0,-14.0,2.0,1650824137043098.0
-3.0,-9.0,-64.0,-49.0,-18.0,-14.0,1.0,5.0,1650824137043098.0
-2.0,13.0,1.0,-17.0,-11.0,4.0,26.0,26.0,1650824137048084.0
-8.0,-39.0,0.0,-9.0,-7.0,0.0,-26.0,-19.0,1650824137048084.0
13.0,22.0,26.0,20.0,9.0,1.0,-9.0,12.0,1650824137057061.0
-22.0,1.0,-40.0,2.0,-5.0,-3.0,8.0,-6.0,1650824137057061.0
0.0,-2.0,-7.0,0.0,11.0,-3.0,-7.0,2.0,1650824137071050.0
-4.0,1.0,-5.0,-12.0,0.0,0.0,0.0,-19.0,1650824137071050.0
-33.0,2.0,-26.0,-22.0,13.0,7.0,5.0,-23.0,1650824137079001.0
26.0,24.0,12.0,-4.0,-20.0,1.0,9.0,18.0,1650824137079001.0
4.0,-15.0,3.0,-11.0,5.0,2.0,-18.0,14.0,1650824137094422.0
3.0,-6.0,0.0,20.0,-10.0,-10.0,6.0,7.0,1650824137094422.0
5.0,-2.0,13.0,13.0,0.0,-1.0,31.0,10.0,1650824137096013.0
-31.0,-3.0,23.0,18.0,16.0,9.0,-18.0,-29.0,1650824137096013.0
29.0,-2.0,-16.0,-9.0,-7.0,-5.0,16.0,16.0,1650824137107661.0
-24.0,-13.0,3.0,-13.0,4.0,2.0,-7.0,-8.0,1650824137107661.0
-5.0,-24.0,-42.0,-16.0,-14.0,-7.0,-25.0,-21.0,1650824137116610.0
22.0,20.0,40.0,11.0,10.0,6.0,26.0,14.0,1650824137116610.0
-46.0,-66.0,-47.0,-14.0,-12.0,-6.0,3.0,-6.0,1650824137131584.0
2.0,3.0,-20.0,-1.0,0.0,0.0,1.0,16.0,1650824137131584.0
-22.0,-53.0,-8.0,-12.0,-11.0,-8.0,-15.0,-15.0,1650824137132566.0
-7.0,-13.0,15.0,22.0,22.0,8.0,3.0,11.0,1650824137132566.0
15.0,36.0,31.0,23.0,-11.0,0.0,-6.0,4.0,1650824137155505.0
7.0,-5.0,-12.0,-39.0,-3.0,-6.0,-4.0,-6.0,1650824137155505.0
-9.0,4.0,-6.0,-10.0,-1.0,1.0,-2.0,-4.0,1650824137156527.0
19.0,3.0,32.0,45.0,13.0,5.0,4.0,29.0,1650824137156527.0
10.0,26.0,-24.0,-50.0,-5.0,1.0,-5.0,-20.0,1650824137168471.0
11.0,-15.0,-4.0,9.0,-3.0,4.0,15.0,23.0,1650824137168471.0
-24.0,-3.0,1.0,12.0,-5.0,-6.0,-6.0,-11.0,1650824137175452.0
3.0,6.0,-11.0,-8.0,4.0,0.0,-4.0,14.0,1650824137175452.0
13.0,33.0,45.0,26.0,-3.0,4.0,7.0,34.0,1650824137190573.0
-6.0,-18.0,-42.0,-11.0,-9.0,-5.0,4.0,-16.0,1650824137190573.0
-2.0,-34.0,1.0,-14.0,-8.0,-21.0,-48.0,-23.0,1650824137199479.0
17.0,20.0,-9.0,-3.0,-6.0,0.0,6.0,-8.0,1650824137199479.0
-41.0,-36.0,-2.0,-3.0,6.0,7.0,6.0,12.0,1650824137213560.0
20.0,15.0,7.0,10.0,14.0,8.0,-6.0,-15.0,1650824137213560.0
10.0,8.0,-1.0,15.0,1.0,2.0,14.0,-1.0,1650824137215535.0
-8.0,13.0,15.0,-4.0,-5.0,-3.0,-2.0,8.0,1650824137215535.0
16.0,34.0,4.0,-1.0,2.0,-1.0,1.0,-34.0,1650824137228527.0
-8.0,11.0,19.0,9.0,6.0,3.0,2.0,3.0,1650824137228527.0
-3.0,-5.0,14.0,32.0,-8.0,-5.0,0.0,-7.0,1650824137235501.0
1.0,13.0,38.0,-1.0,0.0,-1.0,-5.0,-1.0,1650824137235501.0
-5.0,-31.0,-75.0,-58.0,-2.0,4.0,-1.0,1.0,1650824137251458.0
-10.0,-7.0,-8.0,7.0,-7.0,-9.0,-2.0,-19.0,1650824137251458.0
2.0,7.0,17.0,0.0,4.0,0.0,4.0,52.0,1650824137253454.0
9.0,39.0,11.0,27.0,6.0,6.0,-2.0,-1.0,1650824137253454.0
21.0,-12.0,15.0,14.0,8.0,-1.0,2.0,-17.0,1650824137274378.0
-20.0,-4.0,8.0,5.0,2.0,-2.0,-11.0,-17.0,1650824137274378.0
-4.0,-2.0,-13.0,-12.0,-6.0,4.0,36.0,26.0,1650824137275375.0
-2.0,-5.0,-4.0,9.0,-5.0,-8.0,-56.0,-38.0,1650824137275375.0
34.0,-3.0,0.0,-2.0,-4.0,-1.0,-13.0,38.0,1650824137287342.0
-12.0,-13.0,-10.0,-12.0,0.0,8.0,17.0,6.0,1650824137287342.0
-7.0,26.0,20.0,16.0,9.0,4.0,-14.0,-13.0,1650824137296319.0
20.0,5.0,1.0,-19.0,-3.0,-2.0,13.0,-7.0,1650824137296319.0
-16.0,-26.0,-34.0,0.0,-1.0,-4.0,-4.0,-5.0,1650824137311346.0
10.0,-4.0,25.0,1.0,1.0,-6.0,-8.0,11.0,1650824137311346.0
7.0,4.0,-10.0,1.0,-12.0,-1.0,0.0,-5.0,1650824137313273.0
-23.0,-76.0,-23.0,-8.0,11.0,5.0,17.0,6.0,1650824137313273.0
-6.0,36.0,13.0,38.0,3.0,0.0,-9.0,3.0,1650824137334272.0
8.0,27.0,4.0,-27.0,-4.0,1.0,12.0,-20.0,1650824137334272.0
-2.0,5.0,1.0,-7.0,6.0,1.0,-2.0,-18.0,1650824137335275.0
-8.0,-25.0,-20.0,-17.0,-10.0,-11.0,-6.0,5.0,1650824137335275.0
-1.0,28.0,32.0,30.0,9.0,15.0,31.0,56.0,1650824137347245.0
-5.0,-23.0,-29.0,-4.0,-1.0,-3.0,1.0,-19.0,1650824137347245.0
-15.0,18.0,22.0,1.0,1.0,0.0,-9.0,-44.0,1650824137356278.0
4.0,14.0,14.0,12.0,-1.0,2.0,8.0,9.0,1650824137356278.0
5.0,0.0,15.0,14.0,3.0,-4.0,-3.0,-13.0,1650824137371241.0
-5.0,21.0,15.0,5.0,-3.0,-2.0,-12.0,21.0,1650824137371241.0
12.0,-59.0,-45.0,-12.0,1.0,5.0,11.0,29.0,1650824137373168.0
-23.0,33.0,20.0,6.0,1.0,-1.0,0.0,-20.0,1650824137373168.0
-4.0,0.0,13.0,8.0,4.0,-1.0,-12.0,-32.0,1650824137393346.0
-5.0,13.0,-8.0,-25.0,-17.0,-15.0,-13.0,-7.0,1650824137393346.0
-12.0,-54.0,-29.0,-6.0,1.0,5.0,-3.0,-30.0,1650824137400394.0
2.0,-26.0,4.0,2.0,-5.0,-2.0,5.0,-6.0,1650824137400394.0
5.0,-11.0,15.0,6.0,-3.0,-3.0,-3.0,10.0,1650824137407372.0
-31.0,-35.0,-20.0,-10.0,9.0,4.0,2.0,-7.0,1650824137407372.0
8.0,20.0,12.0,-3.0,3.0,4.0,0.0,19.0,1650824137416354.0
17.0,16.0,-9.0,7.0,4.0,6.0,17.0,46.0,1650824137416354.0
-24.0,-28.0,8.0,-6.0,-14.0,-14.0,-14.0,-15.0,1650824137431249.0
18.0,-8.0,-9.0,3.0,1.0,7.0,2.0,22.0,1650824137431249.0
9.0,-11.0,-6.0,1.0,1.0,0.0,4.0,26.0,1650824137433240.0
-22.0,-1.0,-18.0,-24.0,-12.0,-8.0,-42.0,-46.0,1650824137433240.0
15.0,36.0,20.0,18.0,15.0,7.0,47.0,-5.0,1650824137454340.0
-14.0,-1.0,3.0,16.0,-1.0,-2.0,-33.0,-25.0,1650824137454340.0
4.0,-1.0,-30.0,-19.0,-4.0,-5.0,-38.0,-13.0,1650824137455346.0
18.0,26.0,36.0,30.0,7.0,6.0,20.0,5.0,1650824137455346.0
23.0,-26.0,-69.0,-35.0,-11.0,-4.0,-4.0,37.0,1650824137476354.0
0.0,9.0,23.0,11.0,0.0,0.0,19.0,2.0,1650824137476354.0
-10.0,53.0,38.0,26.0,13.0,6.0,4.0,-30.0,1650824137478306.0
2.0,-11.0,-44.0,-28.0,-16.0,-14.0,-9.0,-15.0,1650824137478306.0
-10.0,9.0,13.0,10.0,6.0,7.0,-2.0,-12.0,1650824137491243.0
7.0,4.0,-9.0,-17.0,-3.0,-2.0,16.0,15.0,1650824137491243.0
8.0,-10.0,-9.0,-1.0,0.0,-5.0,1.0,25.0,1650824137493239.0
5.0,15.0,10.0,14.0,1.0,5.0,12.0,1.0,1650824137493239.0
-11.0,6.0,10.0,-10.0,4.0,-3.0,-25.0,-56.0,1650824137514291.0
4.0,-2.0,3.0,-1.0,-8.0,-1.0,17.0,6.0,1650824137514291.0
8.0,5.0,-2.0,6.0,8.0,1.0,0.0,13.0,1650824137515289.0
-21.0,-25.0,-6.0,-10.0,-24.0,-15.0,7.0,47.0,1650824137515289.0
-33.0,-23.0,-27.0,-28.0,-9.0,-6.0,-36.0,-26.0,1650824137527319.0
28.0,-14.0,4.0,14.0,4.0,1.0,6.0,32.0,1650824137527319.0
-7.0,16.0,13.0,1.0,-2.0,-6.0,-22.0,-51.0,1650824137536280.0
4.0,-11.0,-8.0,-5.0,8.0,6.0,12.0,2.0,1650824137536280.0
-17.0,-6.0,1.0,-4.0,-4.0,-3.0,0.0,10.0,1650824137551253.0
5.0,4.0,25.0,54.0,16.0,11.0,7.0,22.0,1650824137551253.0
-21.0,-47.0,-50.0,-46.0,-12.0,-3.0,2.0,-2.0,1650824137553187.0
-8.0,-35.0,-35.0,-44.0,-9.0,-8.0,-12.0,-14.0,1650824137553187.0
10.0,32.0,44.0,38.0,7.0,9.0,18.0,-4.0,1650824137574131.0
-2.0,-37.0,-17.0,-39.0,1.0,0.0,-17.0,3.0,1650824137574131.0
5.0,14.0,-2.0,14.0,-9.0,-11.0,-1.0,-19.0,1650824137575128.0
0.0,4.0,1.0,-7.0,-4.0,-8.0,-5.0,-15.0,1650824137575128.0
8.0,14.0,13.0,-5.0,3.0,10.0,25.0,18.0,1650824137587095.0
5.0,4.0,10.0,28.0,8.0,10.0,-6.0,26.0,1650824137587095.0
-9.0,12.0,14.0,-3.0,-2.0,-4.0,17.0,18.0,1650824137596099.0
-28.0,-24.0,-35.0,-26.0,-4.0,-7.0,-15.0,-9.0,1650824137596099.0
25.0,8.0,3.0,9.0,1.0,3.0,-15.0,-12.0,1650824137611130.0
2.0,32.0,19.0,6.0,3.0,2.0,3.0,-3.0,1650824137611130.0
-9.0,-31.0,-15.0,-9.0,-1.0,-1.0,7.0,17.0,1650824137613098.0
8.0,26.0,12.0,6.0,5.0,5.0,7.0,1.0,1650824137613098.0
7.0,15.0,2.0,-17.0,-6.0,-5.0,3.0,17.0,1650824137634192.0
-3.0,30.0,16.0,15.0,-4.0,-1.0,-6.0,-53.0,1650824137634192.0
8.0,6.0,18.0,33.0,8.0,7.0,3.0,11.0,1650824137636189.0
5.0,23.0,-22.0,-43.0,-7.0,-6.0,3.0,10.0,1650824137636189.0
-6.0,-20.0,2.0,1.0,3.0,2.0,-1.0,8.0,1650824137647160.0
-6.0,27.0,-2.0,6.0,-3.0,-3.0,-5.0,-35.0,1650824137647160.0
40.0,86.0,57.0,1.0,-2.0,0.0,22.0,84.0,1650824137657143.0
-16.0,-59.0,-25.0,17.0,0.0,6.0,0.0,-13.0,1650824137657143.0
-4.0,23.0,-2.0,-1.0,1.0,-1.0,0.0,3.0,1650824137671181.0
3.0,19.0,15.0,-1.0,3.0,3.0,19.0,4.0,1650824137671181.0
-10.0,-12.0,-35.0,4.0,5.0,3.0,12.0,19.0,1650824137673176.0
-32.0,-5.0,1.0,-1.0,-4.0,-8.0,-22.0,3.0,1650824137673176.0
13.0,2.0,-12.0,-23.0,-4.0,-9.0,2.0,24.0,1650824137694400.0
-3.0,-25.0,6.0,10.0,-2.0,-2.0,10.0,-27.0,1650824137694400.0
3.0,-19.0,-14.0,-15.0,-4.0,3.0,-1.0,-28.0,1650824137695405.0
12.0,18.0,23.0,26.0,11.0,9.0,11.0,7.0,1650824137695405.0
-15.0,-28.0,-29.0,-5.0,-6.0,-7.0,4.0,-6.0,1650824137717405.0
-7.0,-20.0,-14.0,-29.0,-6.0,-5.0,-20.0,-3.0,1650824137717405.0
7.0,62.0,35.0,11.0,1.0,1.0,1.0,0.0,1650824137718337.0
5.0,-76.0,-41.0,-43.0,-15.0,-12.0,-6.0,-24.0,1650824137718337.0
-4.0,61.0,65.0,26.0,1.0,1.0,4.0,8.0,1650824137731314.0
-8.0,-5.0,-4.0,-32.0,-13.0,-8.0,-7.0,16.0,1650824137731314.0
2.0,-32.0,21.0,9.0,5.0,0.0,-8.0,-16.0,1650824137733324.0
7.0,12.0,-2.0,23.0,5.0,8.0,22.0,41.0,1650824137733324.0
4.0,-58.0,-39.0,3.0,0.0,2.0,-15.0,-30.0,1650824137754903.0
-9.0,-16.0,-8.0,-6.0,-4.0,-7.0,-11.0,35.0,1650824137754903.0
-15.0,28.0,14.0,9.0,5.0,8.0,28.0,-56.0,1650824137755900.0
-3.0,-13.0,5.0,7.0,-4.0,-9.0,-10.0,19.0,1650824137755900.0
-3.0,-29.0,-20.0,-21.0,-9.0,-8.0,-51.0,-42.0,1650824137776927.0
23.0,26.0,10.0,11.0,-1.0,-2.0,9.0,25.0,1650824137776927.0
-23.0,-10.0,12.0,-4.0,-1.0,-2.0,2.0,16.0,1650824137777842.0
13.0,24.0,10.0,23.0,16.0,11.0,-1.0,-40.0,1650824137777842.0
-4.0,-2.0,-6.0,3.0,-3.0,-3.0,10.0,-2.0,1650824137791832.0
0.0,-27.0,2.0,5.0,1.0,-1.0,10.0,7.0,1650824137791832.0
14.0,63.0,14.0,-1.0,5.0,3.0,-21.0,-14.0,1650824137792802.0
24.0,38.0,5.0,-4.0,-10.0,-7.0,14.0,26.0,1650824137792802.0
-37.0,-2.0,14.0,30.0,-7.0,-6.0,-9.0,-9.0,1650824137813813.0
-11.0,9.0,-4.0,-34.0,17.0,10.0,5.0,-4.0,1650824137813813.0
11.0,-21.0,-35.0,-16.0,-9.0,2.0,13.0,41.0,1650824137815742.0
-30.0,13.0,14.0,21.0,6.0,4.0,-9.0,-101.0,1650824137815742.0
23.0,25.0,12.0,-3.0,2.0,3.0,-6.0,11.0,1650824137836752.0
4.0,-34.0,-3.0,13.0,-8.0,-8.0,-3.0,32.0,1650824137836752.0
-13.0,-15.0,-22.0,8.0,3.0,-3.0,-2.0,14.0,1650824137837682.0
11.0,15.0,8.0,-11.0,0.0,-2.0,23.0,-9.0,1650824137837682.0
5.0,-9.0,-5.0,4.0,-5.0,-5.0,12.0,-7.0,1650824137850714.0
-13.0,9.0,-6.0,-1.0,-1.0,4.0,-31.0,-49.0,1650824137850714.0
24.0,-19.0,-36.0,-21.0,-4.0,-5.0,-9.0,41.0,1650824137857628.0
-28.0,19.0,46.0,18.0,4.0,10.0,26.0,54.0,1650824137857628.0
10.0,13.0,-17.0,9.0,11.0,5.0,13.0,7.0,1650824137873964.0
0.0,19.0,9.0,4.0,-4.0,-1.0,11.0,-3.0,1650824137873964.0
4.0,-10.0,-9.0,9.0,0.0,-1.0,-7.0,-22.0,1650824137875960.0
14.0,-20.0,8.0,-6.0,-7.0,-4.0,-17.0,17.0,1650824137875960.0
-7.0,1.0,-20.0,-31.0,-13.0,-12.0,5.0,-7.0,1650824137896938.0
-9.0,-31.0,-32.0,-10.0,-3.0,-3.0,-7.0,-5.0,1650824137896938.0
0.0,34.0,37.0,10.0,1.0,4.0,-2.0,-10.0,1650824137897902.0
-9.0,-17.0,-8.0,-8.0,4.0,6.0,-5.0,1.0,1650824137897902.0
2.0,5.0,10.0,-1.0,2.0,5.0,7.0,14.0,1650824137910865.0
7.0,0.0,1.0,21.0,1.0,-7.0,4.0,31.0,1650824137910865.0
-4.0,-30.0,-25.0,-44.0,-10.0,-4.0,-15.0,-47.0,1650824137917914.0
9.0,11.0,6.0,23.0,12.0,4.0,-18.0,-53.0,1650824137917914.0
17.0,-6.0,-14.0,-16.0,3.0,0.0,-21.0,13.0,1650824137934422.0
-2.0,36.0,20.0,8.0,-3.0,2.0,0.0,-2.0,1650824137934422.0
-16.0,-14.0,15.0,12.0,7.0,6.0,13.0,-1.0,1650824137935877.0
35.0,21.0,-16.0,-3.0,-9.0,-10.0,-16.0,46.0,1650824137935877.0
-17.0,-26.0,16.0,3.0,1.0,4.0,15.0,-5.0,1650824137956908.0
7.0,-24.0,-28.0,3.0,-3.0,-2.0,1.0,-18.0,1650824137956908.0
-3.0,19.0,-5.0,-31.0,-11.0,-10.0,-8.0,-4.0,1650824137957906.0
3.0,-47.0,-42.0,-5.0,7.0,6.0,7.0,4.0,1650824137957906.0
8.0,-28.0,-5.0,16.0,1.0,-5.0,2.0,10.0,1650824137970899.0
-17.0,-46.0,-6.0,-13.0,-5.0,0.0,-3.0,-7.0,1650824137970899.0
-7.0,-15.0,-12.0,3.0,-1.0,-1.0,6.0,39.0,1650824137977880.0
2.0,24.0,3.0,-13.0,-3.0,-5.0,-9.0,-14.0,1650824137977880.0
-9.0,39.0,27.0,5.0,4.0,5.0,4.0,7.0,1650824137993611.0
17.0,23.0,-10.0,17.0,7.0,15.0,33.0,61.0,1650824137993611.0
-62.0,-20.0,-15.0,-24.0,-17.0,-23.0,-60.0,-101.0,1650824137995605.0
-10.0,22.0,10.0,4.0,3.0,4.0,9.0,16.0,1650824137995605.0
0.0,-17.0,-9.0,2.0,1.0,1.0,-11.0,-10.0,1650824138016554.0
-1.0,18.0,9.0,-2.0,-1.0,-6.0,-1.0,-4.0,1650824138016554.0
13.0,-4.0,14.0,21.0,8.0,3.0,2.0,18.0,1650824138018590.0
4.0,-14.0,-10.0,10.0,3.0,2.0,-2.0,1.0,1650824138018590.0
-21.0,-15.0,-31.0,-23.0,-11.0,-8.0,-3.0,-21.0,1650824138031512.0
-3.0,-19.0,-15.0,-12.0,-7.0,-2.0,14.0,-3.0,1650824138031512.0
7.0,-33.0,-11.0,11.0,-2.0,-1.0,-6.0,-4.0,1650824138037564.0
-10.0,32.0,44.0,24.0,14.0,7.0,-5.0,-20.0,1650824138037564.0
14.0,12.0,-3.0,-8.0,-1.0,7.0,18.0,27.0,1650824138053621.0
3.0,-2.0,1.0,-14.0,-6.0,-7.0,-16.0,-14.0,1650824138053621.0
7.0,-1.0,-3.0,9.0,3.0,3.0,8.0,11.0,1650824138055548.0
1.0,1.0,3.0,-6.0,1.0,-4.0,-3.0,-6.0,1650824138055548.0
15.0,31.0,7.0,0.0,-4.0,-1.0,6.0,-1.0,1650824138076491.0
-2.0,6.0,0.0,9.0,6.0,3.0,12.0,4.0,1650824138076491.0
12.0,-25.0,15.0,-5.0,-2.0,1.0,-5.0,-3.0,1650824138078486.0
-14.0,27.0,12.0,11.0,-2.0,0.0,-6.0,0.0,1650824138078486.0
7.0,-17.0,-9.0,-10.0,-1.0,2.0,49.0,9.0,1650824138090491.0
10.0,7.0,18.0,12.0,7.0,0.0,-36.0,8.0,1650824138090491.0
6.0,16.0,-17.0,-13.0,-1.0,4.0,9.0,2.0,1650824138097463.0
-7.0,-29.0,-14.0,-11.0,-3.0,-2.0,-5.0,5.0,1650824138097463.0
0.0,-10.0,9.0,2.0,-1.0,1.0,-1.0,4.0,1650824138113983.0
-1.0,22.0,25.0,8.0,6.0,4.0,3.0,-18.0,1650824138113983.0
-12.0,1.0,-10.0,15.0,0.0,-4.0,10.0,9.0,1650824138115951.0
31.0,24.0,-2.0,-28.0,-10.0,-7.0,-9.0,9.0,1650824138115951.0
-21.0,21.0,6.0,2.0,2.0,-2.0,-11.0,-8.0,1650824138136939.0
-12.0,-20.0,-20.0,-19.0,-8.0,1.0,3.0,-16.0,1650824138136939.0
-3.0,-4.0,-7.0,6.0,0.0,-4.0,-11.0,-2.0,1650824138137893.0
22.0,-10.0,-4.0,-13.0,-6.0,-4.0,9.0,33.0,1650824138137893.0
5.0,11.0,14.0,14.0,4.0,3.0,-8.0,0.0,1650824138150925.0
9.0,11.0,13.0,3.0,8.0,4.0,1.0,4.0,1650824138150925.0
-15.0,-10.0,-4.0,5.0,3.0,6.0,26.0,34.0,1650824138157859.0
-6.0,-16.0,-13.0,2.0,-2.0,-7.0,-12.0,-40.0,1650824138157859.0
-14.0,-12.0,-4.0,-6.0,-4.0,-8.0,-14.0,-2.0,1650824138173944.0
4.0,2.0,-2.0,7.0,4.0,3.0,8.0,0.0,1650824138173944.0
4.0,7.0,5.0,-9.0,-4.0,-3.0,-20.0,8.0,1650824138175970.0
-3.0,7.0,10.0,4.0,-3.0,0.0,-19.0,-46.0,1650824138175970.0
-2.0,4.0,2.0,-1.0,-3.0,0.0,-3.0,8.0,1650824138196920.0
-6.0,-2.0,1.0,6.0,-5.0,-9.0,2.0,0.0,1650824138196920.0
-2.0,-6.0,-24.0,-41.0,-10.0,-4.0,-1.0,-8.0,1650824138197895.0
-7.0,2.0,27.0,22.0,7.0,5.0,18.0,23.0,1650824138197895.0
-4.0,-4.0,-47.0,-15.0,-2.0,2.0,-5.0,-12.0,1650824138209917.0
2.0,-18.0,6.0,-4.0,-7.0,-5.0,-17.0,-16.0,1650824138209917.0
10.0,8.0,24.0,12.0,3.0,3.0,14.0,5.0,1650824138219541.0
-4.0,-5.0,-7.0,0.0,-3.0,-3.0,-1.0,4.0,1650824138219541.0
4.0,-4.0,15.0,10.0,5.0,-1.0,-7.0,-7.0,1650824138233506.0
-1.0,10.0,-5.0,11.0,6.0,5.0,6.0,-3.0,1650824138233506.0
-14.0,3.0,9.0,-2.0,1.0,1.0,-2.0,-11.0,1650824138234528.0
-10.0,-4.0,-12.0,-12.0,-9.0,-5.0,2.0,4.0,1650824138234528.0
-1.0,-3.0,3.0,3.0,-2.0,1.0,2.0,9.0,1650824138255514.0
-5.0,1.0,-2.0,-2.0,-2.0,-2.0,-4.0,12.0,1650824138255514.0
6.0,0.0,9.0,9.0,3.0,9.0,10.0,-52.0,1650824138256446.0
18.0,-2.0,-7.0,-3.0,2.0,-5.0,-7.0,4.0,1650824138256446.0
-11.0,-5.0,-1.0,-2.0,-2.0,-4.0,3.0,5.0,1650824138279450.0
2.0,3.0,-5.0,-3.0,4.0,4.0,-5.0,-2.0,1650824138279450.0
7.0,-3.0,-10.0,-5.0,-1.0,2.0,10.0,16.0,1650824138279450.0
0.0,0.0,1.0,-5.0,-1.0,0.0,5.0,11.0,1650824138279450.0
4.0,-7.0,-3.0,-3.0,4.0,6.0,0.0,-8.0,1650824138293401.0
1.0,4.0,8.0,-1.0,-5.0,-9.0,-2.0,-2.0,1650824138293401.0
-4.0,0.0,5.0,9.0,3.0,-3.0,-6.0,1.0,1650824138294401.0
-7.0,-7.0,-6.0,8.0,3.0,2.0,0.0,-1.0,1650824138294401.0
3.0,2.0,12.0,7.0,0.0,-5.0,-6.0,4.0,1650824138315345.0
-4.0,-2.0,-12.0,-7.0,5.0,9.0,7.0,0.0,1650824138315345.0
4.0,1.0,-3.0,-3.0,-1.0,-1.0,-2.0,4.0,1650824138316342.0
1.0,0.0,0.0,-1.0,0.0,0.0,0.0,4.0,1650824138316342.0
7.0,-1.0,1.0,5.0,1.0,-2.0,2.0,2.0,1650824138338950.0
0.0,1.0,2.0,1.0,-5.0,-3.0,0.0,-2.0,1650824138338950.0
3.0,1.0,4.0,2.0,-5.0,-4.0,-7.0,-3.0,1650824138339940.0
-2.0,-3.0,-2.0,-5.0,-3.0,0.0,4.0,4.0,1650824138339940.0
3.0,8.0,3.0,0.0,13.0,6.0,-1.0,0.0,1650824138352974.0
-4.0,-9.0,-2.0,-9.0,-13.0,-2.0,1.0,-3.0,1650824138352974.0
-3.0,-2.0,-2.0,4.0,7.0,3.0,-3.0,2.0,1650824138353905.0
4.0,11.0,-4.0,-1.0,-6.0,-5.0,4.0,8.0,1650824138353905.0
-14.0,-36.0,-17.0,-13.0,-15.0,-7.0,-7.0,-10.0,1650824138375895.0
0.0,11.0,7.0,6.0,10.0,0.0,1.0,2.0,1650824138375895.0
4.0,5.0,4.0,6.0,-3.0,-4.0,-2.0,2.0,1650824138376886.0
-2.0,-12.0,-9.0,6.0,10.0,3.0,-2.0,-1.0,1650824138376886.0
4.0,10.0,8.0,-2.0,1.0,3.0,2.0,2.0,1650824138398036.0
2.0,0.0,-12.0,-13.0,-1.0,3.0,2.0,-1.0,1650824138398036.0
0.0,-1.0,11.0,13.0,1.0,1.0,-1.0,1.0,1650824138398968.0
0.0,15.0,38.0,33.0,4.0,1.0,1.0,2.0,1650824138398968.0
3.0,-6.0,-12.0,-21.0,-11.0,-3.0,-3.0,-1.0,1650824138413560.0
-10.0,-25.0,-55.0,-53.0,-16.0,-13.0,-8.0,-8.0,1650824138413560.0
-1.0,4.0,7.0,0.0,5.0,3.0,3.0,1.0,1650824138414498.0
-1.0,-1.0,4.0,3.0,1.0,4.0,2.0,0.0,1650824138414498.0
5.0,18.0,39.0,36.0,14.0,9.0,5.0,5.0,1650824138435445.0
0.0,3.0,5.0,11.0,4.0,4.0,-2.0,0.0,1650824138435445.0
0.0,-5.0,-12.0,-11.0,-13.0,-11.0,-6.0,-2.0,1650824138436431.0
-3.0,-5.0,3.0,1.0,-8.0,-5.0,4.0,0.0,1650824138436431.0
-1.0,1.0,-6.0,-3.0,3.0,1.0,0.0,-1.0,1650824138458436.0
1.0,9.0,5.0,7.0,4.0,0.0,1.0,2.0,1650824138458436.0
2.0,-9.0,1.0,7.0,3.0,0.0,-3.0,2.0,1650824138459370.0
-2.0,-4.0,-14.0,-15.0,-4.0,2.0,-4.0,-2.0,1650824138459370.0
-2.0,-6.0,-15.0,-20.0,-10.0,-9.0,-7.0,-3.0,1650824138473359.0
3.0,2.0,8.0,6.0,-1.0,-2.0,2.0,0.0,1650824138473359.0
3.0,10.0,15.0,8.0,4.0,3.0,-1.0,-1.0,1650824138474330.0
0.0,-3.0,-10.0,-3.0,0.0,0.0,6.0,4.0,1650824138474330.0
0.0,0.0,9.0,-2.0,0.0,-4.0,-4.0,-1.0,1650824138495568.0
-3.0,-6.0,-7.0,7.0,-4.0,-4.0,-5.0,-4.0,1650824138495568.0
-1.0,4.0,0.0,2.0,-2.0,-4.0,-3.0,-2.0,1650824138496572.0
5.0,11.0,27.0,15.0,7.0,4.0,0.0,1.0,1650824138496572.0
0.0,1.0,-38.0,-12.0,-2.0,0.0,2.0,2.0,1650824138518696.0
-9.0,-27.0,11.0,-12.0,-9.0,-6.0,-4.0,-5.0,1650824138518696.0
-3.0,-2.0,-4.0,-4.0,-5.0,-1.0,2.0,0.0,1650824138518696.0
-3.0,-4.0,-4.0,-5.0,1.0,-1.0,-2.0,-2.0,1650824138518696.0
5.0,18.0,38.0,34.0,9.0,4.0,5.0,3.0,1650824138533590.0
7.0,10.0,-4.0,1.0,6.0,8.0,2.0,2.0,1650824138533590.0
-2.0,-1.0,-14.0,-11.0,-3.0,-3.0,1.0,0.0,1650824138533590.0
-3.0,-5.0,1.0,-4.0,-4.0,-6.0,-4.0,-1.0,1650824138533590.0
-2.0,-24.0,-12.0,-5.0,-5.0,-5.0,-4.0,-4.0,1650824138555555.0
1.0,10.0,12.0,8.0,4.0,0.0,0.0,0.0,1650824138555555.0
-2.0,3.0,4.0,2.0,0.0,5.0,2.0,-1.0,1650824138556528.0
-1.0,13.0,-1.0,2.0,8.0,7.0,5.0,3.0,1650824138556528.0
1.0,-14.0,-13.0,-17.0,-7.0,-6.0,-4.0,-2.0,1650824138586663.0
-4.0,-21.0,-2.0,2.0,-2.0,-4.0,-3.0,0.0,1650824138586663.0
-4.0,-11.0,9.0,-2.0,-1.0,3.0,-5.0,-4.0,1650824138587621.0
-3.0,-3.0,-3.0,-7.0,-2.0,1.0,0.0,-2.0,1650824138587621.0
-2.0,-4.0,-8.0,1.0,2.0,-1.0,1.0,1.0,1650824138594575.0
4.0,18.0,20.0,24.0,5.0,1.0,2.0,2.0,1650824138594575.0
4.0,8.0,19.0,3.0,2.0,-2.0,1.0,4.0,1650824138595577.0
-9.0,-20.0,-59.0,-42.0,-16.0,-5.0,-5.0,-8.0,1650824138595577.0
-4.0,0.0,-1.0,-4.0,6.0,4.0,1.0,-1.0,1650824138615519.0
1.0,9.0,-3.0,3.0,3.0,-1.0,-1.0,-1.0,1650824138615519.0
1.0,3.0,2.0,11.0,2.0,0.0,2.0,-1.0,1650824138616530.0
2.0,4.0,15.0,13.0,4.0,-3.0,0.0,0.0,1650824138616530.0
0.0,6.0,1.0,1.0,-3.0,2.0,4.0,2.0,1650824138638669.0
-1.0,2.0,0.0,-14.0,-6.0,-5.0,-3.0,-2.0,1650824138638669.0
-2.0,-7.0,1.0,-1.0,-2.0,-2.0,-2.0,0.0,1650824138638669.0
-1.0,0.0,-1.0,-5.0,5.0,4.0,0.0,-2.0,1650824138638669.0
-1.0,-4.0,-2.0,-2.0,-16.0,-5.0,0.0,-1.0,1650824138653630.0
0.0,3.0,7.0,17.0,5.0,1.0,0.0,2.0,1650824138653630.0
2.0,6.0,8.0,18.0,9.0,1.0,4.0,2.0,1650824138653630.0
-2.0,-7.0,-6.0,-13.0,-9.0,-3.0,-4.0,-2.0,1650824138653630.0
-4.0,-1.0,-8.0,-22.0,1.0,-1.0,-2.0,-1.0,1650824138675618.0
-3.0,4.0,-1.0,-3.0,-2.0,0.0,-1.0,-3.0,1650824138675618.0
0.0,-5.0,-18.0,-10.0,-8.0,-7.0,-2.0,0.0,1650824138676615.0
-3.0,-3.0,9.0,20.0,4.0,-1.0,-1.0,-5.0,1650824138676615.0
3.0,7.0,10.0,16.0,6.0,4.0,1.0,2.0,1650824138698577.0
2.0,4.0,10.0,2.0,-4.0,-1.0,0.0,3.0,1650824138698577.0
-2.0,2.0,-16.0,-10.0,3.0,8.0,0.0,-2.0,1650824138699555.0
2.0,-10.0,-1.0,-2.0,-6.0,-5.0,-1.0,0.0,1650824138699555.0
-1.0,2.0,-3.0,-3.0,-2.0,-7.0,-3.0,1.0,1650824138713538.0
2.0,-1.0,1.0,1.0,2.0,3.0,2.0,-2.0,1650824138713538.0
-3.0,3.0,0.0,5.0,4.0,2.0,2.0,2.0,1650824138714513.0
0.0,-1.0,-6.0,-5.0,0.0,2.0,-1.0,4.0,1650824138714513.0
3.0,-1.0,1.0,-6.0,-5.0,-4.0,-3.0,-2.0,1650824138735458.0
-1.0,4.0,0.0,5.0,-1.0,-4.0,-1.0,0.0,1650824138735458.0
0.0,-5.0,-12.0,-14.0,-2.0,1.0,0.0,0.0,1650824138736455.0
0.0,1.0,3.0,7.0,0.0,-1.0,3.0,1.0,1650824138736455.0
0.0,-2.0,-5.0,0.0,2.0,2.0,0.0,-3.0,1650824138758397.0
0.0,4.0,12.0,1.0,3.0,1.0,-4.0,0.0,1650824138758397.0
-1.0,-6.0,-13.0,-11.0,-8.0,-2.0,-4.0,-1.0,1650824138759394.0
0.0,1.0,-2.0,-5.0,-7.0,-2.0,-1.0,-1.0,1650824138759394.0
1.0,8.0,-3.0,6.0,2.0,-2.0,2.0,3.0,1650824138772936.0
0.0,-1.0,-4.0,18.0,7.0,3.0,4.0,0.0,1650824138772936.0
0.0,-3.0,10.0,-20.0,-2.0,1.0,3.0,-2.0,1650824138773916.0
0.0,7.0,9.0,7.0,2.0,-3.0,-4.0,1.0,1650824138773916.0
-4.0,-8.0,-8.0,-7.0,7.0,8.0,3.0,-2.0,1650824138795907.0
-2.0,-1.0,-9.0,-13.0,-9.0,-6.0,-2.0,-2.0,1650824138795907.0
-1.0,-1.0,4.0,12.0,-3.0,-6.0,-3.0,-2.0,1650824138796866.0
0.0,2.0,2.0,1.0,0.0,4.0,2.0,1.0,1650824138796866.0
2.0,4.0,8.0,3.0,1.0,1.0,2.0,2.0,1650824138817880.0
1.0,-2.0,5.0,3.0,6.0,0.0,-1.0,1.0,1650824138817880.0
1.0,1.0,-13.0,4.0,-5.0,-2.0,-3.0,-2.0,1650824138825952.0
-3.0,-18.0,-28.0,-17.0,-2.0,-4.0,-1.0,0.0,1650824138825952.0
-2.0,5.0,12.0,7.0,12.0,8.0,-1.0,-2.0,1650824138832870.0
-2.0,-5.0,6.0,4.0,-7.0,0.0,3.0,-1.0,1650824138832870.0
-1.0,-3.0,-23.0,-14.0,-1.0,-3.0,0.0,1.0,1650824138833878.0
0.0,-2.0,-1.0,2.0,-8.0,-3.0,-2.0,-3.0,1650824138833878.0
-1.0,1.0,1.0,-5.0,-4.0,-3.0,-2.0,3.0,1650824138864001.0
-1.0,-1.0,-4.0,-4.0,0.0,1.0,-3.0,-7.0,1650824138864001.0
-2.0,-3.0,6.0,0.0,0.0,-1.0,0.0,-1.0,1650824138864939.0
-2.0,1.0,9.0,3.0,0.0,-2.0,0.0,-2.0,1650824138864939.0
1.0,0.0,-2.0,3.0,-3.0,0.0,-1.0,-1.0,1650824138877962.0
1.0,2.0,-1.0,-12.0,-1.0,-1.0,0.0,1.0,1650824138877962.0
2.0,2.0,6.0,5.0,-1.0,-3.0,-3.0,4.0,1650824138878914.0
3.0,3.0,-5.0,1.0,3.0,3.0,-1.0,-24.0,1650824138878914.0
-11.0,1.0,23.0,12.0,-4.0,-2.0,-3.0,-5.0,1650824138893697.0
-4.0,-15.0,-31.0,-24.0,-2.0,3.0,0.0,-2.0,1650824138893697.0
1.0,10.0,8.0,5.0,2.0,-4.0,0.0,-1.0,1650824138893989.0
-2.0,-16.0,-2.0,-3.0,0.0,-3.0,0.0,8.0,1650824138893989.0
4.0,4.0,0.0,7.0,-3.0,-3.0,-1.0,0.0,1650824138916062.0
-3.0,-3.0,3.0,-3.0,-3.0,-5.0,-2.0,-5.0,1650824138916062.0
4.0,-8.0,-6.0,-1.0,0.0,1.0,0.0,0.0,1650824138916062.0
0.0,13.0,6.0,0.0,1.0,2.0,2.0,4.0,1650824138916062.0
0.0,-9.0,-19.0,-2.0,2.0,0.0,0.0,-1.0,1650824138938582.0
-3.0,1.0,3.0,1.0,3.0,3.0,3.0,7.0,1650824138938582.0
1.0,8.0,19.0,14.0,4.0,-1.0,2.0,1.0,1650824138939518.0
9.0,0.0,-1.0,-3.0,3.0,0.0,-2.0,4.0,1650824138939518.0
3.0,-2.0,-5.0,-8.0,-11.0,-8.0,-6.0,-3.0,1650824138953546.0
-8.0,1.0,-1.0,-4.0,-4.0,0.0,1.0,0.0,1650824138953546.0
-2.0,-3.0,2.0,-2.0,-1.0,0.0,-4.0,-1.0,1650824138954481.0
-4.0,5.0,3.0,7.0,5.0,2.0,0.0,0.0,1650824138954481.0
4.0,7.0,11.0,6.0,9.0,6.0,3.0,3.0,1650824138983614.0
2.0,-3.0,-15.0,-4.0,3.0,7.0,0.0,-1.0,1650824138983614.0
-4.0,-6.0,-6.0,-9.0,-8.0,-8.0,-5.0,-4.0,1650824138984614.0
2.0,1.0,1.0,1.0,-7.0,-5.0,-2.0,2.0,1650824138984614.0
-1.0,0.0,-2.0,-4.0,0.0,3.0,2.0,0.0,1650824138998638.0
2.0,3.0,4.0,12.0,4.0,-4.0,-4.0,0.0,1650824138998638.0
0.0,-3.0,-6.0,3.0,10.0,8.0,2.0,-2.0,1650824138998638.0
0.0,0.0,-5.0,-14.0,-12.0,-4.0,2.0,3.0,1650824138998638.0
-4.0,-1.0,0.0,2.0,1.0,-1.0,0.0,-1.0,1650824139013605.0
1.0,0.0,1.0,-1.0,-3.0,1.0,1.0,-2.0,1650824139013605.0
-3.0,-6.0,-7.0,-5.0,-2.0,-2.0,-1.0,-2.0,1650824139014535.0
1.0,2.0,5.0,0.0,1.0,0.0,-1.0,1.0,1650824139014535.0
-2.0,4.0,1.0,-2.0,-4.0,1.0,1.0,-4.0,1650824139035540.0
5.0,-2.0,1.0,1.0,5.0,1.0,-1.0,3.0,1650824139035540.0
-1.0,-3.0,0.0,-1.0,-4.0,-1.0,-2.0,-2.0,1650824139036476.0
-6.0,3.0,1.0,1.0,0.0,1.0,1.0,-1.0,1650824139036476.0
1.0,2.0,5.0,5.0,0.0,-1.0,2.0,3.0,1650824139058570.0
4.0,5.0,1.0,6.0,0.0,2.0,-2.0,0.0,1650824139058570.0
0.0,-4.0,-5.0,-11.0,-4.0,-5.0,-2.0,-3.0,1650824139059500.0
-1.0,2.0,2.0,0.0,1.0,1.0,1.0,-1.0,1650824139059500.0
1.0,-2.0,-4.0,-4.0,-3.0,-4.0,-4.0,1.0,1650824139073472.0
3.0,-1.0,-3.0,-4.0,-4.0,-2.0,-3.0,-1.0,1650824139073472.0
-3.0,4.0,3.0,7.0,5.0,6.0,7.0,0.0,1650824139074461.0
-3.0,-3.0,2.0,6.0,12.0,4.0,-3.0,-3.0,1650824139074461.0
1.0,1.0,-7.0,-7.0,-8.0,-6.0,-2.0,0.0,1650824139104456.0
-2.0,-2.0,-3.0,-2.0,-2.0,-8.0,-4.0,1.0,1650824139104456.0
-2.0,1.0,4.0,1.0,-9.0,0.0,5.0,2.0,1650824139104456.0
1.0,0.0,2.0,5.0,1.0,-2.0,3.0,2.0,1650824139104456.0
-1.0,-1.0,-6.0,-11.0,7.0,4.0,2.0,-2.0,1650824139118406.0
-1.0,2.0,4.0,3.0,-3.0,-1.0,-1.0,0.0,1650824139118406.0
-1.0,-3.0,-12.0,-4.0,2.0,-2.0,-3.0,1.0,1650824139119341.0
-1.0,2.0,-6.0,-5.0,-2.0,0.0,-1.0,1.0,1650824139119341.0
0.0,-2.0,2.0,7.0,1.0,-1.0,-1.0,-1.0,1650824139141489.0
-1.0,-2.0,0.0,-5.0,-3.0,-1.0,0.0,-1.0,1650824139141489.0
0.0,-2.0,-7.0,-1.0,-1.0,0.0,-4.0,-1.0,1650824139142424.0
-1.0,-4.0,-1.0,1.0,-4.0,0.0,1.0,-3.0,1650824139142424.0
1.0,2.0,3.0,3.0,7.0,9.0,0.0,1.0,1650824139155392.0
-1.0,-3.0,-5.0,-7.0,-2.0,-4.0,-2.0,-1.0,1650824139155392.0
3.0,9.0,14.0,6.0,0.0,-3.0,1.0,2.0,1650824139156400.0
-4.0,-5.0,-7.0,-4.0,-3.0,-3.0,-3.0,-3.0,1650824139156400.0
-4.0,-5.0,-3.0,-8.0,-8.0,-2.0,-2.0,-2.0,1650824139178395.0
2.0,2.0,5.0,4.0,0.0,2.0,1.0,-3.0,1650824139178395.0
2.0,3.0,-1.0,-3.0,-2.0,0.0,-3.0,0.0,1650824139179326.0
1.0,1.0,2.0,5.0,4.0,4.0,3.0,4.0,1650824139179326.0
-2.0,-1.0,-2.0,7.0,1.0,1.0,3.0,-1.0,1650824139193316.0
-3.0,-8.0,-19.0,-14.0,-1.0,0.0,-2.0,-1.0,1650824139193316.0
-2.0,-1.0,17.0,-2.0,-5.0,-2.0,-2.0,-5.0,1650824139194286.0
-1.0,-5.0,-21.0,-16.0,-5.0,-6.0,-1.0,0.0,1650824139194286.0
2.0,1.0,8.0,5.0,-2.0,-6.0,1.0,0.0,1650824139215379.0
1.0,7.0,8.0,9.0,9.0,0.0,1.0,-1.0,1650824139215379.0
-4.0,-2.0,-5.0,-3.0,-8.0,-2.0,-3.0,-1.0,1650824139216379.0
0.0,0.0,9.0,2.0,-2.0,2.0,0.0,-4.0,1650824139216379.0
2.0,-2.0,-4.0,1.0,7.0,3.0,2.0,1.0,1650824139238388.0
3.0,0.0,2.0,5.0,0.0,0.0,1.0,0.0,1650824139238388.0
1.0,-2.0,0.0,1.0,5.0,2.0,1.0,-1.0,1650824139239318.0
1.0,1.0,4.0,6.0,0.0,0.0,-3.0,0.0,1650824139239318.0
0.0,-1.0,-6.0,-12.0,-4.0,2.0,-3.0,0.0,1650824139252353.0
-3.0,0.0,3.0,-2.0,-8.0,-7.0,-2.0,-1.0,1650824139252353.0
-1.0,-2.0,-2.0,-1.0,-1.0,-5.0,-2.0,-1.0,1650824139261358.0
-3.0,-1.0,-5.0,6.0,6.0,5.0,4.0,3.0,1650824139261358.0
-1.0,3.0,14.0,9.0,12.0,6.0,-1.0,-1.0,1650824139275633.0
-1.0,-2.0,-6.0,-6.0,-7.0,2.0,1.0,0.0,1650824139275633.0
0.0,-2.0,-7.0,-4.0,-2.0,-3.0,0.0,0.0,1650824139276567.0
0.0,-2.0,-5.0,-8.0,-5.0,-6.0,-2.0,-3.0,1650824139276567.0
7.0,1.0,1.0,4.0,-1.0,-3.0,-5.0,1.0,1650824139298625.0
-2.0,9.0,9.0,5.0,0.0,3.0,6.0,2.0,1650824139298625.0
-4.0,-6.0,-8.0,4.0,12.0,7.0,2.0,-3.0,1650824139298625.0
-1.0,-6.0,3.0,-2.0,0.0,0.0,-2.0,-2.0,1650824139298625.0
-1.0,-1.0,-4.0,-5.0,-6.0,-5.0,-3.0,-1.0,1650824139312521.0
1.0,3.0,-2.0,-3.0,-1.0,-4.0,-1.0,1.0,1650824139312521.0
2.0,0.0,-3.0,-2.0,-3.0,-2.0,0.0,2.0,1650824139320567.0
1.0,2.0,-1.0,-1.0,10.0,3.0,-1.0,0.0,1650824139320567.0
-2.0,2.0,1.0,-2.0,-18.0,-4.0,-2.0,-1.0,1650824139335463.0
-3.0,-12.0,-19.0,-1.0,4.0,7.0,4.0,-1.0,1650824139335463.0
-2.0,2.0,1.0,9.0,11.0,1.0,3.0,0.0,1650824139336461.0
-1.0,-2.0,1.0,-5.0,-6.0,-4.0,-5.0,-1.0,1650824139336461.0
-2.0,-1.0,-3.0,-4.0,0.0,-4.0,-2.0,-3.0,1650824139358465.0
1.0,5.0,2.0,-1.0,-1.0,0.0,-2.0,0.0,1650824139358465.0
0.0,0.0,1.0,-3.0,-4.0,2.0,-2.0,0.0,1650824139359396.0
0.0,2.0,-1.0,-3.0,2.0,-1.0,-5.0,-1.0,1650824139359396.0
1.0,-2.0,-3.0,0.0,-14.0,-7.0,-2.0,-2.0,1650824139373080.0
-1.0,4.0,11.0,10.0,6.0,5.0,9.0,3.0,1650824139373080.0
-3.0,-5.0,0.0,-7.0,6.0,2.0,1.0,-4.0,1650824139381088.0
5.0,2.0,4.0,3.0,1.0,2.0,2.0,0.0,1650824139381088.0
-3.0,0.0,-5.0,-5.0,2.0,0.0,-3.0,-1.0,1650824139395971.0
0.0,-1.0,3.0,1.0,-4.0,-5.0,-5.0,-2.0,1650824139395971.0
0.0,1.0,-3.0,-1.0,-3.0,-1.0,0.0,0.0,1650824139396929.0
-2.0,-2.0,-5.0,0.0,-5.0,-6.0,-3.0,0.0,1650824139396929.0
-5.0,-5.0,-3.0,-10.0,-6.0,-3.0,-3.0,-3.0,1650824139418620.0
1.0,6.0,10.0,28.0,2.0,3.0,5.0,0.0,1650824139418620.0
1.0,-4.0,-9.0,0.0,14.0,10.0,5.0,5.0,1650824139418620.0
-3.0,-4.0,-10.0,-21.0,-7.0,-1.0,-3.0,-4.0,1650824139418620.0
2.0,1.0,-2.0,3.0,4.0,-1.0,2.0,2.0,1650824139432612.0
-1.0,-4.0,-3.0,-15.0,-15.0,-10.0,-5.0,-3.0,1650824139432612.0
1.0,5.0,7.0,9.0,-5.0,-3.0,-4.0,0.0,1650824139440537.0
1.0,0.0,6.0,4.0,-3.0,3.0,-1.0,2.0,1650824139440537.0
0.0,-3.0,-6.0,-6.0,11.0,2.0,-1.0,-4.0,1650824139455569.0
0.0,4.0,3.0,10.0,1.0,-5.0,4.0,1.0,1650824139455569.0
-1.0,-3.0,-10.0,-3.0,-1.0,-1.0,-2.0,-2.0,1650824139456570.0
-1.0,0.0,1.0,-2.0,2.0,3.0,3.0,1.0,1650824139456570.0
1.0,-2.0,2.0,1.0,1.0,0.0,-1.0,1.0,1650824139478548.0
0.0,-2.0,-4.0,-6.0,1.0,1.0,-3.0,6.0,1650824139478548.0
-2.0,1.0,0.0,-5.0,-8.0,-7.0,-5.0,-16.0,1650824139479511.0
0.0,0.0,0.0,0.0,-5.0,-6.0,-1.0,2.0,1650824139479511.0
-5.0,-1.0,0.0,6.0,5.0,4.0,2.0,-5.0,1650824139492500.0
3.0,-2.0,-2.0,-3.0,4.0,5.0,1.0,1.0,1650824139492500.0
0.0,1.0,3.0,-4.0,-4.0,-2.0,-1.0,4.0,1650824139500461.0
1.0,1.0,-1.0,5.0,3.0,2.0,0.0,-2.0,1650824139500461.0
-1.0,0.0,4.0,-1.0,-1.0,-1.0,-1.0,-5.0,1650824139515416.0
-1.0,-3.0,-2.0,-8.0,-3.0,-5.0,-3.0,6.0,1650824139515416.0
0.0,2.0,1.0,-1.0,0.0,1.0,-1.0,2.0,1650824139516416.0
-1.0,0.0,1.0,5.0,0.0,0.0,5.0,0.0,1650824139516416.0
-2.0,-4.0,-3.0,-3.0,5.0,4.0,-2.0,3.0,1650824139538411.0
-1.0,-1.0,-3.0,1.0,-6.0,-1.0,-3.0,-6.0,1650824139538411.0
0.0,-1.0,20.0,7.0,-5.0,-7.0,1.0,0.0,1650824139539347.0
0.0,-2.0,-9.0,-1.0,0.0,-1.0,1.0,28.0,1650824139539347.0
-3.0,2.0,-1.0,0.0,7.0,4.0,-3.0,-43.0,1650824139553137.0
-3.0,-1.0,1.0,-2.0,3.0,3.0,-6.0,-11.0,1650824139553137.0
2.0,-1.0,-2.0,-2.0,-7.0,-1.0,-2.0,-2.0,1650824139561144.0
-4.0,-4.0,-6.0,-5.0,0.0,-2.0,-2.0,-7.0,1650824139561144.0
2.0,-1.0,1.0,-2.0,-5.0,-7.0,1.0,16.0,1650824139576146.0
0.0,3.0,2.0,-1.0,6.0,6.0,1.0,2.0,1650824139576146.0
1.0,3.0,-1.0,6.0,7.0,5.0,3.0,0.0,1650824139576146.0
-3.0,-1.0,2.0,-4.0,-4.0,-2.0,-3.0,-6.0,1650824139576146.0
2.0,-1.0,-4.0,1.0,-2.0,-5.0,0.0,9.0,1650824139598046.0
-3.0,-11.0,-9.0,-3.0,-3.0,-9.0,-6.0,-5.0,1650824139598046.0
0.0,0.0,-2.0,-1.0,0.0,0.0,0.0,3.0,1650824139599017.0
3.0,6.0,24.0,10.0,-5.0,1.0,6.0,3.0,1650824139599017.0
-2.0,-7.0,-29.0,-20.0,-2.0,2.0,-1.0,-13.0,1650824139621982.0
-1.0,-2.0,-1.0,-3.0,6.0,-1.0,-1.0,0.0,1650824139621982.0
-2.0,-7.0,-14.0,-9.0,-17.0,-8.0,-5.0,0.0,1650824139621982.0
-1.0,2.0,5.0,13.0,8.0,6.0,2.0,-5.0,1650824139621982.0
3.0,13.0,26.0,27.0,5.0,6.0,6.0,12.0,1650824139635993.0
0.0,-5.0,-21.0,-23.0,-3.0,-3.0,-2.0,0.0,1650824139635993.0
-3.0,-5.0,-2.0,-3.0,4.0,-4.0,-2.0,-2.0,1650824139636990.0
0.0,1.0,4.0,-1.0,-3.0,1.0,-3.0,-5.0,1650824139636990.0
0.0,0.0,9.0,8.0,-1.0,-2.0,4.0,10.0,1650824139658037.0
3.0,8.0,4.0,9.0,4.0,1.0,-1.0,1.0,1650824139658037.0
1.0,2.0,3.0,4.0,5.0,3.0,2.0,1.0,1650824139659036.0
0.0,-3.0,-5.0,-3.0,-7.0,-2.0,-1.0,-3.0,1650824139659036.0
0.0,0.0,-3.0,0.0,3.0,2.0,0.0,3.0,1650824139681998.0
-2.0,-2.0,5.0,-4.0,-7.0,0.0,1.0,-2.0,1650824139681998.0
0.0,-1.0,-4.0,-1.0,-1.0,-3.0,-3.0,-1.0,1650824139681998.0
-2.0,-1.0,1.0,0.0,3.0,-1.0,-1.0,-4.0,1650824139681998.0
0.0,-1.0,6.0,0.0,-4.0,-2.0,-2.0,14.0,1650824139695964.0
-4.0,-1.0,2.0,1.0,-6.0,-4.0,-7.0,-35.0,1650824139695964.0
-1.0,8.0,6.0,2.0,10.0,9.0,1.0,-29.0,1650824139696934.0
19.0,1.0,-17.0,-7.0,0.0,2.0,-2.0,-7.0,1650824139696934.0
-20.0,-24.0,-8.0,-23.0,-15.0,-11.0,-5.0,-2.0,1650824139717889.0
-4.0,-3.0,-21.0,-13.0,-7.0,-10.0,-2.0,6.0,1650824139717889.0
-1.0,5.0,8.0,15.0,11.0,9.0,6.0,10.0,1650824139718888.0
3.0,7.0,22.0,17.0,4.0,0.0,2.0,-2.0,1650824139718888.0
12.0,0.0,-15.0,-7.0,-9.0,-4.0,-1.0,15.0,1650824139741814.0
3.0,4.0,2.0,1.0,6.0,8.0,5.0,11.0,1650824139741814.0
1.0,5.0,9.0,7.0,0.0,-1.0,2.0,6.0,1650824139741814.0
-7.0,-12.0,-24.0,-25.0,-7.0,-5.0,-2.0,-1.0,1650824139741814.0
-3.0,-3.0,0.0,1.0,-1.0,-2.0,-4.0,-1.0,1650824139755839.0
-7.0,-4.0,6.0,2.0,1.0,1.0,4.0,-1.0,1650824139755839.0
3.0,1.0,-3.0,-1.0,-6.0,-3.0,-4.0,0.0,1650824139756774.0
2.0,15.0,10.0,20.0,15.0,12.0,8.0,6.0,1650824139756774.0
-3.0,-1.0,13.0,-9.0,-5.0,-4.0,-7.0,-11.0,1650824139786788.0
2.0,-1.0,3.0,4.0,-5.0,4.0,-7.0,-14.0,1650824139786788.0
0.0,1.0,16.0,12.0,0.0,-8.0,-1.0,3.0,1650824139786788.0
-3.0,4.0,14.0,11.0,3.0,-1.0,1.0,10.0,1650824139786788.0
-4.0,-3.0,-16.0,-14.0,5.0,2.0,-6.0,-37.0,1650824139801767.0
-2.0,-6.0,6.0,-6.0,-5.0,3.0,0.0,-2.0,1650824139801767.0
0.0,4.0,7.0,0.0,-2.0,-3.0,10.0,13.0,1650824139802744.0
-6.0,-2.0,7.0,5.0,3.0,1.0,-13.0,-16.0,1650824139802744.0
4.0,2.0,-11.0,3.0,-12.0,-6.0,0.0,15.0,1650824139815772.0
4.0,16.0,26.0,22.0,6.0,1.0,5.0,10.0,1650824139815772.0
-2.0,-10.0,-29.0,-35.0,-8.0,0.0,-5.0,5.0,1650824139816706.0
-8.0,-15.0,-6.0,2.0,-8.0,-7.0,-5.0,1.0,1650824139816706.0
-21.0,-5.0,-44.0,-22.0,9.0,10.0,6.0,-7.0,1650824139838700.0
3.0,13.0,34.0,11.0,-1.0,-5.0,-3.0,4.0,1650824139838700.0
-3.0,-19.0,-42.0,-11.0,-8.0,-7.0,-8.0,29.0,1650824139838700.0
-11.0,5.0,5.0,-3.0,-6.0,-5.0,6.0,-18.0,1650824139838700.0
7.0,1.0,4.0,-1.0,-3.0,-3.0,0.0,9.0,1650824139861653.0
2.0,-2.0,-5.0,2.0,0.0,-3.0,-13.0,-4.0,1650824139861653.0
0.0,6.0,16.0,13.0,10.0,10.0,17.0,9.0,1650824139862612.0
8.0,9.0,14.0,7.0,10.0,5.0,12.0,11.0,1650824139862612.0
5.0,1.0,3.0,14.0,6.0,2.0,-3.0,4.0,1650824139875641.0
-3.0,-8.0,-21.0,-21.0,-7.0,-6.0,-2.0,17.0,1650824139875641.0
9.0,7.0,21.0,-9.0,-4.0,4.0,-4.0,-30.0,1650824139876593.0
-24.0,-23.0,-36.0,-13.0,-22.0,-22.0,-24.0,-53.0,1650824139876593.0
16.0,22.0,41.0,30.0,8.0,3.0,16.0,34.0,1650824139898751.0
2.0,-7.0,-34.0,-5.0,1.0,5.0,14.0,2.0,1650824139898751.0
-8.0,-11.0,8.0,-3.0,5.0,-2.0,-12.0,9.0,1650824139898751.0
8.0,4.0,3.0,-10.0,21.0,14.0,15.0,29.0,1650824139898751.0
-2.0,33.0,42.0,14.0,0.0,3.0,19.0,-1.0,1650824139921171.0
-13.0,-84.0,-90.0,-62.0,-20.0,-15.0,-36.0,-20.0,1650824139921171.0
-6.0,21.0,19.0,0.0,1.0,5.0,22.0,24.0,1650824139922100.0
10.0,78.0,63.0,56.0,2.0,2.0,38.0,40.0,1650824139922100.0
18.0,-16.0,-41.0,-54.0,-8.0,-13.0,-49.0,-31.0,1650824139936221.0
-15.0,20.0,34.0,26.0,3.0,6.0,12.0,-16.0,1650824139936221.0
-6.0,-15.0,-19.0,-2.0,-3.0,-4.0,-18.0,11.0,1650824139936221.0
-8.0,-15.0,-26.0,-9.0,3.0,4.0,17.0,-18.0,1650824139936221.0
28.0,8.0,2.0,13.0,-2.0,-4.0,-10.0,48.0,1650824139958297.0
14.0,38.0,33.0,41.0,23.0,11.0,23.0,-29.0,1650824139958297.0
-7.0,-32.0,-77.0,-69.0,-21.0,-12.0,-16.0,-53.0,1650824139959267.0
5.0,19.0,52.0,40.0,-9.0,-5.0,-27.0,-14.0,1650824139959267.0
-5.0,0.0,-41.0,-43.0,14.0,8.0,11.0,0.0,1650824139981141.0
-10.0,-18.0,12.0,1.0,8.0,3.0,5.0,9.0,1650824139981141.0
-2.0,-14.0,9.0,63.0,3.0,4.0,18.0,29.0,1650824139982149.0
12.0,9.0,-18.0,-64.0,-1.0,-6.0,-3.0,9.0,1650824139982149.0
-3.0,-7.0,16.0,15.0,-3.0,3.0,-1.0,-9.0,1650824139996102.0
-11.0,-17.0,-32.0,-21.0,-12.0,-13.0,-2.0,15.0,1650824139996102.0
17.0,29.0,38.0,38.0,17.0,14.0,8.0,5.0,1650824139996102.0
-10.0,-39.0,-109.0,-70.0,-20.0,-10.0,-11.0,20.0,1650824139996102.0
-16.0,-33.0,-20.0,1.0,-9.0,-5.0,-4.0,-16.0,1650824140018051.0
22.0,63.0,50.0,27.0,9.0,3.0,17.0,24.0,1650824140018051.0
-46.0,-18.0,-2.0,-14.0,-11.0,-9.0,-26.0,-49.0,1650824140019042.0
0.0,-53.0,-52.0,-46.0,-12.0,-14.0,-44.0,-24.0,1650824140019042.0
-26.0,-4.0,22.0,6.0,-1.0,2.0,32.0,18.0,1650824140041980.0
23.0,19.0,6.0,9.0,6.0,7.0,-26.0,11.0,1650824140041980.0
-15.0,-5.0,-10.0,8.0,-1.0,-6.0,-14.0,-43.0,1650824140041980.0
15.0,32.0,50.0,44.0,21.0,16.0,12.0,35.0,1650824140041980.0
-35.0,-78.0,-81.0,-56.0,-28.0,-17.0,-17.0,-47.0,1650824140056009.0
-3.0,-11.0,12.0,17.0,-15.0,-16.0,5.0,2.0,1650824140056009.0
17.0,13.0,8.0,-28.0,10.0,7.0,-5.0,3.0,1650824140056968.0
2.0,7.0,60.0,33.0,15.0,16.0,9.0,-16.0,1650824140056968.0
19.0,26.0,17.0,36.0,25.0,15.0,15.0,7.0,1650824140077950.0
-5.0,-25.0,-53.0,-46.0,-25.0,-13.0,-2.0,0.0,1650824140077950.0
0.0,1.0,54.0,15.0,1.0,3.0,1.0,-4.0,1650824140078881.0
-21.0,-57.0,-40.0,-9.0,-12.0,-7.0,-3.0,-16.0,1650824140078881.0
-4.0,28.0,38.0,12.0,-10.0,-12.0,-8.0,6.0,1650824140101279.0
11.0,4.0,-9.0,10.0,13.0,9.0,-2.0,16.0,1650824140101279.0
14.0,21.0,20.0,15.0,3.0,2.0,19.0,11.0,1650824140102249.0
17.0,3.0,3.0,9.0,1.0,1.0,-15.0,-2.0,1650824140102249.0
12.0,11.0,41.0,1.0,-8.0,-9.0,-22.0,-4.0,1650824140115309.0
-12.0,-39.0,-43.0,-27.0,-5.0,0.0,-1.0,32.0,1650824140115309.0
-4.0,-3.0,-8.0,4.0,-4.0,0.0,-4.0,-33.0,1650824140116308.0
-3.0,15.0,0.0,9.0,9.0,2.0,5.0,58.0,1650824140116308.0
10.0,18.0,35.0,42.0,18.0,3.0,6.0,-11.0,1650824140138317.0
-6.0,-10.0,-5.0,-42.0,-19.0,0.0,3.0,-4.0,1650824140138317.0
8.0,10.0,29.0,42.0,15.0,2.0,-2.0,-33.0,1650824140139247.0
-16.0,-25.0,-66.0,-50.0,-32.0,-22.0,-16.0,3.0,1650824140139247.0
6.0,25.0,50.0,5.0,0.0,-2.0,1.0,5.0,1650824140161190.0
-10.0,-40.0,-66.0,1.0,14.0,5.0,11.0,-7.0,1650824140161190.0
-5.0,-20.0,-16.0,-20.0,-7.0,-1.0,-1.0,16.0,1650824140162185.0
17.0,61.0,79.0,49.0,20.0,18.0,26.0,-3.0,1650824140162185.0
-7.0,-12.0,-59.0,-23.0,-12.0,-4.0,-5.0,-9.0,1650824140176148.0
-2.0,-17.0,24.0,21.0,3.0,-2.0,-2.0,-12.0,1650824140176148.0
0.0,-6.0,-26.0,-29.0,-4.0,-1.0,6.0,20.0,1650824140176148.0
21.0,45.0,22.0,12.0,-4.0,-4.0,-2.0,14.0,1650824140176148.0
11.0,0.0,-2.0,17.0,4.0,9.0,12.0,59.0,1650824140197964.0
-14.0,21.0,27.0,6.0,4.0,-4.0,-31.0,-86.0,1650824140197964.0
11.0,3.0,-34.0,-9.0,-6.0,-1.0,-10.0,42.0,1650824140198898.0
-20.0,-32.0,2.0,-11.0,0.0,-1.0,16.0,6.0,1650824140198898.0
11.0,10.0,8.0,24.0,8.0,7.0,-7.0,-12.0,1650824140221905.0
-1.0,12.0,-18.0,-23.0,3.0,0.0,8.0,21.0,1650824140221905.0
-1.0,1.0,20.0,-27.0,-22.0,-12.0,-4.0,-2.0,1650824140221905.0
3.0,12.0,30.0,30.0,-9.0,-7.0,1.0,-20.0,1650824140221905.0
-2.0,-26.0,-30.0,-16.0,21.0,13.0,11.0,8.0,1650824140234976.0
2.0,-13.0,17.0,4.0,-10.0,0.0,-4.0,-3.0,1650824140234976.0
4.0,8.0,9.0,4.0,13.0,8.0,12.0,17.0,1650824140242956.0
-5.0,-31.0,-32.0,-8.0,-3.0,1.0,-3.0,5.0,1650824140242956.0
-6.0,1.0,-42.0,2.0,-5.0,-10.0,-4.0,-17.0,1650824140257889.0
8.0,27.0,49.0,-1.0,-5.0,-1.0,-9.0,-22.0,1650824140257889.0
-4.0,1.0,-5.0,4.0,4.0,1.0,2.0,25.0,1650824140258886.0
2.0,13.0,9.0,-6.0,-10.0,-14.0,-9.0,-39.0,1650824140258886.0
-8.0,9.0,23.0,21.0,2.0,2.0,-3.0,2.0,1650824140281926.0
21.0,12.0,13.0,16.0,5.0,3.0,20.0,-24.0,1650824140281926.0
-25.0,14.0,0.0,-3.0,-4.0,-6.0,-33.0,-31.0,1650824140281926.0
-11.0,-23.0,-36.0,-32.0,3.0,9.0,15.0,55.0,1650824140281926.0
0.0,15.0,40.0,18.0,2.0,3.0,5.0,-19.0,1650824140294824.0
-8.0,-9.0,-36.0,-12.0,4.0,1.0,-12.0,-22.0,1650824140294824.0
6.0,0.0,23.0,38.0,1.0,-6.0,6.0,28.0,1650824140302802.0
15.0,-21.0,-7.0,-6.0,1.0,0.0,4.0,0.0,1650824140302802.0
-19.0,-25.0,-72.0,-72.0,-23.0,-5.0,-1.0,5.0,1650824140317789.0
11.0,23.0,77.0,65.0,-4.0,-3.0,4.0,38.0,1650824140317789.0
6.0,2.0,-14.0,-53.0,12.0,8.0,5.0,-34.0,1650824140318758.0
-2.0,-16.0,-34.0,-19.0,-10.0,-5.0,-2.0,12.0,1650824140318758.0
12.0,12.0,18.0,17.0,0.0,-3.0,-6.0,-11.0,1650824140341764.0
-7.0,0.0,7.0,0.0,-1.0,0.0,6.0,26.0,1650824140341764.0
21.0,33.0,26.0,26.0,4.0,7.0,-1.0,-7.0,1650824140342700.0
2.0,-6.0,9.0,3.0,0.0,-2.0,10.0,-7.0,1650824140342700.0
-7.0,-9.0,-3.0,-8.0,0.0,1.0,-11.0,-19.0,1650824140355455.0
0.0,-17.0,-3.0,11.0,4.0,2.0,28.0,44.0,1650824140355455.0
-3.0,-9.0,-16.0,-5.0,-9.0,-11.0,-20.0,12.0,1650824140370411.0
-17.0,-2.0,14.0,-6.0,4.0,3.0,3.0,-33.0,1650824140370411.0
12.0,5.0,26.0,29.0,2.0,4.0,1.0,31.0,1650824140378457.0
-4.0,-1.0,-21.0,-15.0,-4.0,-7.0,-9.0,10.0,1650824140378457.0
7.0,0.0,-10.0,-2.0,-18.0,-7.0,0.0,-15.0,1650824140379414.0
-5.0,-18.0,-9.0,-13.0,23.0,7.0,-12.0,-17.0,1650824140379414.0
-6.0,-28.0,-24.0,-26.0,-19.0,-12.0,3.0,-5.0,1650824140400359.0
-11.0,-12.0,-5.0,-14.0,11.0,5.0,2.0,8.0,1650824140400359.0
1.0,-9.0,19.0,7.0,-6.0,-2.0,10.0,-1.0,1650824140408377.0
-2.0,-2.0,3.0,28.0,-2.0,-5.0,-14.0,-2.0,1650824140408377.0
-9.0,3.0,33.0,15.0,-1.0,0.0,-4.0,-23.0,1650824140415319.0
-4.0,17.0,14.0,-22.0,-7.0,-4.0,-4.0,10.0,1650824140415319.0
5.0,-8.0,-28.0,0.0,-1.0,-2.0,6.0,22.0,1650824140423340.0
1.0,24.0,16.0,20.0,5.0,4.0,-2.0,-19.0,1650824140423340.0
-3.0,7.0,7.0,-7.0,2.0,-4.0,4.0,-15.0,1650824140438451.0
9.0,-2.0,-13.0,-3.0,-6.0,1.0,-9.0,-32.0,1650824140438451.0
8.0,-6.0,-3.0,3.0,1.0,-4.0,3.0,12.0,1650824140439409.0
13.0,17.0,37.0,22.0,11.0,7.0,-7.0,3.0,1650824140439409.0
-4.0,13.0,-16.0,-29.0,-6.0,-2.0,-5.0,-12.0,1650824140461352.0
-3.0,-5.0,-23.0,-18.0,-5.0,-5.0,-17.0,-65.0,1650824140461352.0
-7.0,-8.0,-8.0,8.0,5.0,6.0,9.0,2.0,1650824140462321.0
-4.0,8.0,6.0,-8.0,-13.0,-4.0,5.0,-13.0,1650824140462321.0
9.0,1.0,-2.0,33.0,33.0,14.0,9.0,28.0,1650824140475402.0
12.0,31.0,14.0,7.0,6.0,4.0,4.0,17.0,1650824140475402.0
-5.0,-12.0,-5.0,-34.0,-10.0,-2.0,8.0,-1.0,1650824140483408.0
-11.0,-4.0,17.0,27.0,9.0,2.0,-9.0,-17.0,1650824140483408.0
4.0,-43.0,-63.0,-36.0,-14.0,-5.0,14.0,12.0,1650824140498423.0
8.0,3.0,15.0,15.0,1.0,0.0,5.0,14.0,1650824140498423.0
-17.0,-17.0,-33.0,-9.0,0.0,-5.0,-8.0,6.0,1650824140499421.0
15.0,64.0,47.0,13.0,-7.0,-3.0,-3.0,23.0,1650824140499421.0
-8.0,-30.0,-46.0,-27.0,-13.0,-8.0,0.0,5.0,1650824140520393.0
8.0,-3.0,-11.0,-4.0,5.0,4.0,22.0,-4.0,1650824140520393.0
-8.0,0.0,26.0,7.0,-4.0,-2.0,-5.0,35.0,1650824140528411.0
5.0,-32.0,-53.0,-19.0,-8.0,-9.0,-21.0,-36.0,1650824140528411.0
-1.0,17.0,21.0,11.0,4.0,-2.0,-7.0,9.0,1650824140544301.0
-9.0,12.0,-5.0,6.0,2.0,1.0,-1.0,7.0,1650824140544301.0
7.0,22.0,43.0,9.0,-1.0,5.0,14.0,20.0,1650824140544301.0
9.0,-23.0,-62.0,-4.0,1.0,-2.0,4.0,32.0,1650824140544301.0
4.0,50.0,80.0,30.0,-4.0,3.0,2.0,-4.0,1650824140558333.0
-17.0,-82.0,-80.0,-69.0,2.0,-5.0,-8.0,-5.0,1650824140558333.0
5.0,38.0,58.0,40.0,15.0,7.0,-7.0,-35.0,1650824140559262.0
-4.0,-7.0,-42.0,-52.0,-8.0,1.0,8.0,21.0,1650824140559262.0
3.0,13.0,35.0,13.0,-7.0,-4.0,-8.0,-10.0,1650824140581349.0
-12.0,30.0,42.0,40.0,1.0,-2.0,-27.0,-39.0,1650824140581349.0
12.0,12.0,-11.0,15.0,18.0,6.0,20.0,30.0,1650824140582283.0
-8.0,-34.0,-53.0,-55.0,-20.0,-9.0,-2.0,13.0,1650824140582283.0
-8.0,-23.0,19.0,18.0,2.0,-1.0,-2.0,-32.0,1650824140604245.0
0.0,16.0,4.0,-3.0,-9.0,-2.0,-11.0,7.0,1650824140604245.0
6.0,11.0,-25.0,-4.0,-4.0,-5.0,-11.0,-10.0,1650824140605222.0
5.0,50.0,44.0,31.0,15.0,12.0,15.0,18.0,1650824140605222.0
-21.0,-10.0,-15.0,-13.0,-9.0,-1.0,5.0,28.0,1650824140618354.0
-4.0,6.0,-1.0,3.0,-2.0,1.0,1.0,33.0,1650824140618354.0
5.0,-25.0,-10.0,-3.0,-3.0,0.0,-6.0,-48.0,1650824140619288.0
2.0,2.0,19.0,13.0,3.0,0.0,-2.0,-2.0,1650824140619288.0
-10.0,-1.0,-28.0,-16.0,-5.0,-1.0,4.0,11.0,1650824140641452.0
30.0,13.0,64.0,50.0,18.0,7.0,15.0,34.0,1650824140641452.0
1.0,21.0,-44.0,-55.0,4.0,13.0,8.0,-1.0,1650824140642383.0
-23.0,-64.0,-1.0,-31.0,-35.0,-19.0,-15.0,-28.0,1650824140642383.0
1.0,2.0,8.0,17.0,13.0,2.0,-5.0,-21.0,1650824140664323.0
11.0,44.0,63.0,63.0,10.0,4.0,13.0,21.0,1650824140664323.0
10.0,-16.0,-30.0,-40.0,-6.0,0.0,-5.0,-8.0,1650824140664323.0
3.0,24.0,25.0,4.0,8.0,8.0,12.0,26.0,1650824140664323.0
1.0,-40.0,-64.0,-35.0,-10.0,-5.0,-12.0,-13.0,1650824140678315.0
-13.0,0.0,-12.0,1.0,-9.0,-9.0,-12.0,-16.0,1650824140678315.0
7.0,-34.0,-7.0,10.0,-1.0,-8.0,-17.0,-19.0,1650824140679283.0
-14.0,59.0,23.0,8.0,-1.0,-3.0,-1.0,-2.0,1650824140679283.0
27.0,22.0,40.0,11.0,4.0,5.0,33.0,30.0,1650824140701252.0
-25.0,8.0,-21.0,-17.0,-2.0,-1.0,15.0,-25.0,1650824140701252.0
-7.0,-25.0,-8.0,2.0,-6.0,-11.0,-21.0,6.0,1650824140702222.0
2.0,-19.0,-5.0,7.0,5.0,10.0,6.0,-28.0,1650824140702222.0
11.0,7.0,20.0,29.0,8.0,3.0,1.0,27.0,1650824140724230.0
-2.0,-27.0,-48.0,-35.0,2.0,2.0,3.0,-28.0,1650824140724230.0
-9.0,-3.0,7.0,-2.0,-15.0,-4.0,10.0,-8.0,1650824140725161.0
-4.0,10.0,41.0,43.0,12.0,7.0,-11.0,-14.0,1650824140725161.0
-9.0,-14.0,-49.0,-29.0,8.0,7.0,8.0,-18.0,1650824140738213.0
-4.0,-18.0,9.0,-17.0,-9.0,-8.0,-12.0,12.0,1650824140738213.0
-10.0,-9.0,-40.0,-16.0,-1.0,-4.0,-3.0,0.0,1650824140739210.0
2.0,-8.0,-5.0,7.0,1.0,-4.0,-4.0,-12.0,1650824140739210.0
4.0,-3.0,16.0,12.0,0.0,2.0,-5.0,14.0,1650824140761218.0
7.0,27.0,59.0,33.0,4.0,-3.0,-8.0,-18.0,1650824140761218.0
-16.0,0.0,-43.0,-31.0,-10.0,-6.0,-13.0,-10.0,1650824140762148.0
-1.0,-19.0,-20.0,-5.0,0.0,-3.0,10.0,0.0,1650824140762148.0
-11.0,9.0,9.0,-3.0,-3.0,2.0,-12.0,-31.0,1650824140785086.0
5.0,-21.0,-20.0,-15.0,-11.0,-11.0,-5.0,32.0,1650824140785086.0
-12.0,11.0,26.0,21.0,5.0,2.0,20.0,10.0,1650824140786093.0
-17.0,-22.0,-32.0,-18.0,-3.0,3.0,14.0,-30.0,1650824140786093.0
-13.0,-15.0,-13.0,-1.0,-3.0,-10.0,-15.0,-16.0,1650824140806102.0
18.0,22.0,17.0,5.0,3.0,7.0,-11.0,-7.0,1650824140806102.0
-1.0,8.0,31.0,29.0,-7.0,-5.0,2.0,10.0,1650824140807040.0
3.0,-11.0,-42.0,-41.0,-11.0,-5.0,1.0,10.0,1650824140807040.0
0.0,3.0,20.0,25.0,10.0,5.0,3.0,2.0,1650824140820992.0
2.0,6.0,-12.0,-5.0,-3.0,1.0,2.0,-5.0,1650824140820992.0
-1.0,-39.0,-7.0,-3.0,12.0,2.0,2.0,4.0,1650824140821989.0
-4.0,-5.0,30.0,11.0,-8.0,2.0,-5.0,0.0,1650824140821989.0
9.0,35.0,20.0,-6.0,-1.0,-1.0,0.0,7.0,1650824140843953.0
1.0,21.0,-2.0,17.0,0.0,3.0,-3.0,19.0,1650824140843953.0
-3.0,-4.0,7.0,10.0,-5.0,-2.0,8.0,3.0,1650824140844928.0
12.0,5.0,-15.0,-1.0,4.0,-8.0,-19.0,-5.0,1650824140844928.0
2.0,2.0,-46.0,-21.0,-8.0,-1.0,-13.0,-8.0,1650824140857953.0
0.0,-25.0,-9.0,-2.0,3.0,8.0,19.0,51.0,1650824140857953.0
15.0,13.0,19.0,3.0,1.0,2.0,3.0,-41.0,1650824140858898.0
-36.0,-2.0,2.0,-2.0,0.0,-7.0,-15.0,-27.0,1650824140858898.0
-12.0,-4.0,12.0,9.0,-3.0,-5.0,0.0,-18.0,1650824140880830.0
10.0,-7.0,-9.0,-14.0,-1.0,3.0,15.0,27.0,1650824140880830.0
-5.0,-23.0,-11.0,7.0,2.0,3.0,-2.0,-20.0,1650824140881829.0
11.0,17.0,27.0,3.0,1.0,6.0,2.0,-5.0,1650824140881829.0
4.0,-18.0,-30.0,-6.0,-3.0,-7.0,-13.0,0.0,1650824140903769.0
-21.0,-21.0,-18.0,-45.0,-17.0,-14.0,-20.0,-36.0,1650824140903769.0
-3.0,-8.0,-4.0,29.0,15.0,14.0,6.0,8.0,1650824140904767.0
9.0,3.0,-24.0,-10.0,3.0,1.0,6.0,15.0,1650824140904767.0
10.0,29.0,44.0,26.0,16.0,9.0,8.0,9.0,1650824140918731.0
6.0,7.0,-23.0,-12.0,-8.0,-2.0,-1.0,1.0,1650824140918731.0
1.0,7.0,16.0,-17.0,-9.0,-2.0,-3.0,17.0,1650824140918731.0
5.0,1.0,3.0,5.0,0.0,-4.0,-1.0,23.0,1650824140918731.0
10.0,-24.0,6.0,13.0,-3.0,-1.0,2.0,-3.0,1650824140940671.0
-5.0,9.0,6.0,0.0,9.0,10.0,-15.0,-18.0,1650824140940671.0
15.0,21.0,25.0,25.0,3.0,3.0,6.0,25.0,1650824140941668.0
7.0,37.0,-26.0,-31.0,-11.0,-10.0,3.0,6.0,1650824140941668.0
-17.0,-18.0,5.0,-14.0,-12.0,-7.0,-11.0,-20.0,1650824140964416.0
-21.0,2.0,8.0,6.0,-2.0,0.0,10.0,-15.0,1650824140964416.0
-2.0,3.0,2.0,-8.0,-4.0,-5.0,-20.0,-3.0,1650824140964416.0
0.0,-16.0,17.0,24.0,17.0,8.0,2.0,6.0,1650824140964416.0
1.0,-10.0,-28.0,-12.0,7.0,1.0,7.0,21.0,1650824140978304.0
8.0,36.0,50.0,29.0,-2.0,1.0,-3.0,1.0,1650824140978304.0
-14.0,-27.0,-1.0,-33.0,-16.0,-16.0,-3.0,-6.0,1650824140979234.0
-6.0,-54.0,-59.0,-40.0,-29.0,-10.0,-5.0,1.0,1650824140979234.0
11.0,25.0,34.0,29.0,10.0,6.0,10.0,10.0,1650824141001280.0
-5.0,-34.0,-30.0,8.0,2.0,-3.0,2.0,-2.0,1650824141001280.0
2.0,7.0,-11.0,-22.0,-15.0,-3.0,4.0,4.0,1650824141001280.0
10.0,18.0,32.0,32.0,17.0,15.0,2.0,-12.0,1650824141001280.0
0.0,7.0,-4.0,-25.0,-12.0,-9.0,-4.0,-5.0,1650824141023636.0
0.0,-13.0,6.0,17.0,7.0,2.0,5.0,12.0,1650824141023636.0
17.0,17.0,-12.0,7.0,7.0,7.0,2.0,83.0,1650824141024575.0
5.0,26.0,23.0,2.0,0.0,-7.0,-10.0,-8.0,1650824141024575.0
24.0,-2.0,-2.0,-3.0,1.0,7.0,8.0,-7.0,1650824141037536.0
-33.0,30.0,3.0,3.0,4.0,-1.0,-5.0,-6.0,1650824141037536.0
2.0,38.0,24.0,13.0,4.0,-2.0,18.0,2.0,1650824141045578.0
2.0,6.0,11.0,-13.0,2.0,0.0,0.0,13.0,1650824141045578.0
0.0,7.0,30.0,13.0,-15.0,-7.0,-7.0,21.0,1650824141060471.0
2.0,-24.0,-2.0,32.0,6.0,-1.0,-3.0,-5.0,1650824141060471.0
-3.0,-28.0,-34.0,-35.0,15.0,14.0,3.0,-13.0,1650824141061471.0
-1.0,2.0,12.0,22.0,2.0,-3.0,-3.0,-10.0,1650824141061471.0
-24.0,-38.0,-39.0,-51.0,-24.0,-19.0,-10.0,-15.0,1650824141084615.0
1.0,-11.0,-9.0,-3.0,4.0,4.0,-5.0,-13.0,1650824141084615.0
8.0,33.0,24.0,9.0,-5.0,1.0,9.0,17.0,1650824141085656.0
5.0,-29.0,-13.0,17.0,11.0,0.0,-1.0,0.0,1650824141085656.0
4.0,25.0,24.0,17.0,6.0,7.0,8.0,14.0,1650824141098657.0
11.0,-10.0,-14.0,-16.0,-3.0,-7.0,-6.0,-8.0,1650824141098657.0
-13.0,5.0,2.0,10.0,-1.0,-5.0,-12.0,-13.0,1650824141098657.0
-8.0,22.0,7.0,-10.0,-3.0,2.0,7.0,0.0,1650824141098657.0
-1.0,-1.0,-4.0,1.0,-1.0,-2.0,-3.0,9.0,1650824141120684.0
12.0,19.0,10.0,-4.0,2.0,5.0,1.0,7.0,1650824141120684.0
-10.0,-49.0,-37.0,6.0,4.0,1.0,-5.0,-28.0,1650824141121681.0
-3.0,-2.0,1.0,-10.0,-5.0,2.0,10.0,13.0,1650824141121681.0
-13.0,-1.0,13.0,6.0,-13.0,-16.0,-20.0,-40.0,1650824141143764.0
2.0,19.0,13.0,-34.0,4.0,1.0,13.0,4.0,1650824141143764.0
16.0,7.0,1.0,22.0,6.0,-1.0,-4.0,-9.0,1650824141144730.0
3.0,-3.0,16.0,32.0,12.0,10.0,-1.0,-7.0,1650824141144730.0
-3.0,-13.0,-20.0,-33.0,-5.0,-2.0,3.0,8.0,1650824141157765.0
-6.0,-29.0,-48.0,-39.0,-27.0,-13.0,-2.0,-1.0,1650824141157765.0
-1.0,-6.0,2.0,13.0,0.0,-6.0,-1.0,-4.0,1650824141165744.0
4.0,35.0,31.0,19.0,7.0,9.0,5.0,1.0,1650824141165744.0
-1.0,8.0,-1.0,12.0,14.0,11.0,8.0,-3.0,1650824141180760.0
12.0,-2.0,8.0,5.0,-10.0,-7.0,-9.0,-7.0,1650824141180760.0
-23.0,-2.0,-3.0,-6.0,0.0,3.0,5.0,-3.0,1650824141181759.0
-6.0,-34.0,-23.0,-8.0,-3.0,-8.0,-18.0,-63.0,1650824141181759.0
13.0,5.0,2.0,-2.0,5.0,4.0,20.0,15.0,1650824141204700.0
-13.0,-2.0,1.0,2.0,-10.0,-4.0,-10.0,-4.0,1650824141204700.0
4.0,4.0,8.0,-2.0,-10.0,-9.0,-9.0,-6.0,1650824141204700.0
7.0,2.0,-7.0,0.0,-6.0,0.0,28.0,30.0,1650824141204700.0
2.0,27.0,25.0,12.0,13.0,9.0,-5.0,-1.0,1650824141217728.0
7.0,11.0,25.0,-33.0,-9.0,-9.0,-1.0,-9.0,1650824141217728.0
-12.0,-41.0,-47.0,-40.0,-4.0,0.0,-2.0,-12.0,1650824141225733.0
-7.0,-8.0,-23.0,-5.0,-6.0,0.0,0.0,0.0,1650824141225733.0
-12.0,-8.0,-2.0,14.0,8.0,-6.0,-17.0,1.0,1650824141240694.0
10.0,18.0,20.0,28.0,-8.0,2.0,9.0,13.0,1650824141240694.0
5.0,10.0,16.0,1.0,0.0,1.0,7.0,11.0,1650824141241622.0
-7.0,-18.0,-2.0,-7.0,5.0,2.0,0.0,20.0,1650824141241622.0
18.0,19.0,7.0,11.0,2.0,8.0,9.0,11.0,1650824141263623.0
2.0,2.0,-19.0,-2.0,8.0,-1.0,-5.0,-11.0,1650824141263623.0
-49.0,-9.0,8.0,-3.0,-6.0,-7.0,-2.0,-5.0,1650824141264563.0
22.0,1.0,6.0,1.0,1.0,-1.0,-7.0,-25.0,1650824141264563.0
-24.0,-18.0,-22.0,-2.0,-5.0,-3.0,-3.0,-5.0,1650824141277554.0
1.0,-11.0,2.0,-1.0,1.0,0.0,8.0,11.0,1650824141277554.0
16.0,8.0,-12.0,-11.0,9.0,6.0,-2.0,-4.0,1650824141285505.0
-4.0,2.0,17.0,11.0,2.0,-4.0,9.0,20.0,1650824141285505.0
-1.0,4.0,-4.0,-7.0,2.0,2.0,0.0,1.0,1650824141300582.0
1.0,-15.0,3.0,4.0,2.0,3.0,1.0,-5.0,1650824141300582.0
3.0,6.0,5.0,11.0,9.0,1.0,-9.0,-7.0,1650824141301578.0
-6.0,-32.0,-32.0,-13.0,-7.0,-3.0,-15.0,-3.0,1650824141301578.0
7.0,1.0,-4.0,-11.0,-2.0,-5.0,-5.0,-4.0,1650824141324421.0
-1.0,8.0,0.0,21.0,6.0,8.0,9.0,5.0,1650824141324421.0
12.0,17.0,15.0,5.0,-3.0,1.0,-1.0,-2.0,1650824141324421.0
-2.0,-19.0,-4.0,0.0,-5.0,-3.0,-8.0,10.0,1650824141324421.0
-5.0,7.0,6.0,6.0,0.0,1.0,-1.0,-8.0,1650824141337389.0
-3.0,-7.0,-1.0,-2.0,-3.0,-4.0,8.0,37.0,1650824141337389.0
-25.0,-8.0,-7.0,-11.0,-4.0,-2.0,3.0,5.0,1650824141345433.0
12.0,16.0,2.0,-9.0,9.0,-1.0,5.0,-3.0,1650824141345433.0
-1.0,-3.0,-2.0,5.0,-11.0,-2.0,-1.0,-1.0,1650824141360389.0
3.0,-1.0,-1.0,0.0,16.0,11.0,1.0,-2.0,1650824141360389.0
12.0,-5.0,-4.0,15.0,7.0,5.0,15.0,14.0,1650824141361335.0
-6.0,17.0,11.0,-6.0,-5.0,0.0,-7.0,-1.0,1650824141361335.0
4.0,-3.0,17.0,-2.0,1.0,0.0,-1.0,5.0,1650824141384451.0
-2.0,-6.0,-10.0,-1.0,-1.0,-3.0,-7.0,-5.0,1650824141384451.0
15.0,7.0,-9.0,1.0,-7.0,-2.0,-7.0,-7.0,1650824141384451.0
-10.0,-9.0,-3.0,-5.0,-6.0,-8.0,-9.0,-3.0,1650824141384451.0
2.0,7.0,-4.0,-1.0,5.0,0.0,0.0,1.0,1650824141397335.0
-5.0,-3.0,3.0,-1.0,3.0,3.0,-3.0,-6.0,1650824141397335.0
-4.0,-1.0,3.0,6.0,-1.0,0.0,1.0,-9.0,1650824141406312.0
1.0,-1.0,0.0,1.0,-7.0,-4.0,1.0,4.0,1650824141406312.0
-1.0,-9.0,-9.0,-9.0,-5.0,-4.0,-1.0,5.0,1650824141420302.0
-4.0,-8.0,-9.0,0.0,1.0,1.0,6.0,-8.0,1650824141420302.0
-3.0,14.0,9.0,0.0,-6.0,-9.0,1.0,-4.0,1650824141421272.0
20.0,11.0,8.0,4.0,3.0,5.0,-4.0,8.0,1650824141421272.0
-12.0,-3.0,-13.0,3.0,3.0,2.0,0.0,-3.0,1650824141444237.0
-5.0,-22.0,-13.0,-10.0,-5.0,-4.0,-9.0,-14.0,1650824141444237.0
14.0,10.0,4.0,-2.0,0.0,-3.0,-5.0,-4.0,1650824141445221.0
-21.0,-10.0,-5.0,-5.0,-3.0,-2.0,-2.0,1.0,1650824141445221.0
32.0,5.0,6.0,0.0,0.0,1.0,4.0,5.0,1650824141458173.0
12.0,28.0,15.0,5.0,2.0,2.0,2.0,1.0,1650824141458173.0
-56.0,-18.0,-1.0,-1.0,-5.0,-1.0,1.0,-2.0,1650824141466218.0
6.0,1.0,-3.0,-1.0,-2.0,-2.0,3.0,4.0,1650824141466218.0
-26.0,-23.0,-5.0,0.0,0.0,1.0,4.0,-1.0,1650824141481179.0
15.0,-4.0,-6.0,-2.0,-3.0,-6.0,-12.0,-16.0,1650824141481179.0
28.0,16.0,9.0,0.0,1.0,1.0,-3.0,0.0,1650824141481179.0
-9.0,2.0,3.0,8.0,0.0,-1.0,3.0,3.0,1650824141481179.0
0.0,0.0,-12.0,-17.0,-5.0,0.0,-2.0,-1.0,1650824141504081.0
-5.0,-7.0,2.0,2.0,0.0,0.0,-2.0,1.0,1650824141504081.0
11.0,7.0,9.0,4.0,0.0,0.0,-3.0,-3.0,1650824141505049.0
13.0,4.0,3.0,-1.0,-6.0,0.0,2.0,5.0,1650824141505049.0
1.0,-10.0,-13.0,-3.0,-1.0,-4.0,2.0,-1.0,1650824141526657.0
-10.0,3.0,-2.0,-1.0,-5.0,-3.0,0.0,-3.0,1650824141526657.0
12.0,-7.0,-6.0,-12.0,-6.0,-4.0,-5.0,-2.0,1650824141527584.0
-6.0,13.0,14.0,17.0,8.0,5.0,8.0,4.0,1650824141527584.0
-1.0,-9.0,2.0,3.0,9.0,-1.0,-1.0,0.0,1650824141540615.0
-2.0,-8.0,-5.0,-3.0,2.0,4.0,4.0,4.0,1650824141540615.0
-2.0,-4.0,-2.0,4.0,0.0,-4.0,-1.0,-1.0,1650824141541548.0
-3.0,-2.0,-12.0,-13.0,-10.0,-6.0,-7.0,-5.0,1650824141541548.0
0.0,-1.0,3.0,5.0,0.0,-2.0,-2.0,-7.0,1650824141563574.0
5.0,9.0,-1.0,6.0,2.0,-3.0,0.0,1.0,1650824141563574.0
5.0,-5.0,1.0,-3.0,-5.0,-1.0,-4.0,0.0,1650824141564571.0
0.0,-1.0,0.0,3.0,8.0,6.0,5.0,2.0,1650824141564571.0
12.0,3.0,-7.0,-8.0,-3.0,3.0,2.0,2.0,1650824141586512.0
-13.0,-1.0,3.0,-1.0,-1.0,-5.0,-9.0,-7.0,1650824141586512.0
6.0,7.0,-9.0,1.0,8.0,3.0,2.0,0.0,1650824141587509.0
7.0,-18.0,9.0,-6.0,-15.0,-7.0,-3.0,-5.0,1650824141587509.0
-13.0,9.0,6.0,6.0,1.0,2.0,4.0,6.0,1650824141600505.0
-2.0,-7.0,-4.0,0.0,0.0,4.0,9.0,7.0,1650824141600505.0
-5.0,-2.0,3.0,11.0,2.0,-3.0,-12.0,-19.0,1650824141601473.0
18.0,15.0,-8.0,-8.0,2.0,-3.0,-4.0,2.0,1650824141601473.0
-26.0,2.0,5.0,-4.0,-2.0,0.0,2.0,-1.0,1650824141624433.0
-25.0,-24.0,-6.0,-2.0,0.0,0.0,0.0,-2.0,1650824141624433.0
-4.0,-6.0,-3.0,-2.0,-6.0,2.0,4.0,4.0,1650824141624433.0
4.0,5.0,-3.0,2.0,13.0,6.0,-2.0,-2.0,1650824141624433.0
12.0,3.0,-1.0,4.0,-1.0,0.0,1.0,2.0,1650824141646421.0
-3.0,12.0,-4.0,-8.0,-6.0,-5.0,-9.0,-6.0,1650824141646421.0
9.0,-8.0,3.0,-3.0,-1.0,-3.0,0.0,0.0,1650824141647350.0
-9.0,1.0,-4.0,0.0,0.0,0.0,0.0,0.0,1650824141647350.0
8.0,9.0,4.0,3.0,2.0,2.0,-1.0,1.0,1650824141661328.0
2.0,9.0,-2.0,2.0,3.0,2.0,3.0,1.0,1650824141661328.0
-5.0,-28.0,-23.0,-18.0,-11.0,-4.0,-5.0,-4.0,1650824141661328.0
-6.0,-10.0,2.0,-2.0,-7.0,-4.0,-2.0,-4.0,1650824141661328.0
-2.0,-6.0,-2.0,6.0,1.0,2.0,0.0,-1.0,1650824141683820.0
11.0,14.0,0.0,3.0,3.0,0.0,2.0,4.0,1650824141683820.0
6.0,4.0,0.0,-13.0,-2.0,1.0,2.0,6.0,1650824141684758.0
-13.0,-7.0,-7.0,-7.0,1.0,-3.0,-3.0,-3.0,1650824141684758.0
-4.0,2.0,7.0,2.0,1.0,-1.0,-4.0,-3.0,1650824141706712.0
7.0,-6.0,-9.0,-2.0,-13.0,-2.0,0.0,-2.0,1650824141706712.0
-2.0,15.0,11.0,11.0,9.0,6.0,6.0,2.0,1650824141707725.0
-3.0,-7.0,-6.0,0.0,-1.0,-1.0,-3.0,-2.0,1650824141707725.0
8.0,7.0,8.0,2.0,-1.0,-1.0,0.0,-2.0,1650824141720748.0
2.0,-9.0,-1.0,0.0,7.0,3.0,1.0,1.0,1650824141720748.0
1.0,4.0,4.0,2.0,2.0,4.0,3.0,0.0,1650824141721681.0
7.0,10.0,6.0,4.0,0.0,-2.0,0.0,2.0,1650824141721681.0
-6.0,-12.0,-9.0,-12.0,-11.0,-5.0,-5.0,-4.0,1650824141743730.0
-5.0,-4.0,5.0,3.0,5.0,1.0,4.0,0.0,1650824141743730.0
6.0,-4.0,2.0,3.0,-5.0,-3.0,-1.0,-2.0,1650824141744695.0
-7.0,4.0,1.0,-1.0,1.0,3.0,1.0,1.0,1650824141744695.0
3.0,-6.0,-9.0,-7.0,-3.0,-3.0,-7.0,-4.0,1650824141767636.0
-6.0,-1.0,0.0,-7.0,-3.0,-3.0,0.0,-2.0,1650824141767636.0
0.0,2.0,6.0,7.0,1.0,3.0,3.0,-1.0,1650824141769631.0
-2.0,0.0,-4.0,0.0,-1.0,-3.0,2.0,1.0,1650824141769631.0
-1.0,-1.0,-2.0,1.0,-2.0,0.0,-3.0,-2.0,1650824141780628.0
0.0,-1.0,3.0,5.0,6.0,2.0,-1.0,-1.0,1650824141780628.0
3.0,2.0,-2.0,-2.0,0.0,-3.0,-1.0,1.0,1650824141781606.0
-1.0,-2.0,-4.0,-2.0,-2.0,0.0,1.0,1.0,1650824141781606.0
-10.0,-1.0,-2.0,-1.0,0.0,0.0,-1.0,-2.0,1650824141803540.0
4.0,0.0,3.0,-3.0,-2.0,0.0,-1.0,0.0,1650824141803540.0
-4.0,1.0,-2.0,0.0,-3.0,-5.0,-5.0,-3.0,1650824141804542.0
-9.0,-9.0,-5.0,-3.0,-4.0,-2.0,-2.0,-4.0,1650824141804542.0
11.0,2.0,0.0,6.0,9.0,9.0,5.0,3.0,1650824141826546.0
-1.0,4.0,3.0,0.0,-8.0,1.0,0.0,0.0,1650824141826546.0
2.0,0.0,4.0,-3.0,-3.0,-5.0,-1.0,0.0,1650824141828473.0
2.0,1.0,1.0,-4.0,-4.0,0.0,2.0,0.0,1650824141828473.0
3.0,-3.0,-1.0,-2.0,-4.0,-6.0,-2.0,-1.0,1650824141840476.0
-6.0,-6.0,-5.0,4.0,-3.0,-5.0,-3.0,-3.0,1650824141840476.0
-1.0,-4.0,-2.0,-13.0,3.0,3.0,-1.0,-1.0,1650824141841439.0
0.0,1.0,-1.0,-3.0,-5.0,-3.0,-3.0,-2.0,1650824141841439.0
-2.0,4.0,3.0,7.0,1.0,-4.0,1.0,1.0,1650824141864376.0
1.0,-6.0,-7.0,-1.0,8.0,5.0,1.0,3.0,1650824141864376.0
-3.0,2.0,1.0,1.0,-1.0,-1.0,-2.0,-1.0,1650824141864376.0
2.0,-2.0,-9.0,-2.0,3.0,3.0,0.0,0.0,1650824141864376.0
-2.0,-11.0,-5.0,-9.0,-8.0,-4.0,-1.0,-2.0,1650824141886346.0
0.0,-1.0,3.0,-3.0,-11.0,-9.0,-5.0,-2.0,1650824141886346.0
-1.0,2.0,2.0,4.0,2.0,6.0,2.0,1.0,1650824141887341.0
6.0,8.0,8.0,10.0,1.0,1.0,5.0,2.0,1650824141887341.0
-9.0,1.0,-1.0,-1.0,11.0,6.0,4.0,1.0,1650824141901278.0
0.0,-2.0,0.0,-2.0,2.0,-1.0,-3.0,-3.0,1650824141901278.0
2.0,-4.0,-6.0,-2.0,-4.0,-4.0,-4.0,-2.0,1650824141901278.0
-2.0,-3.0,-3.0,-4.0,-7.0,0.0,-1.0,2.0,1650824141901278.0
-1.0,9.0,6.0,5.0,1.0,0.0,1.0,1.0,1650824141924368.0
-4.0,-5.0,3.0,-2.0,1.0,0.0,-1.0,-1.0,1650824141924368.0
-1.0,0.0,-1.0,-3.0,0.0,-4.0,-2.0,-1.0,1650824141924368.0
2.0,-1.0,0.0,2.0,2.0,1.0,0.0,-1.0,1650824141924368.0
4.0,-2.0,-8.0,-2.0,-1.0,2.0,1.0,1.0,1650824141946658.0
-1.0,-2.0,-5.0,-8.0,2.0,-1.0,-1.0,1.0,1650824141946658.0
1.0,4.0,14.0,13.0,0.0,-3.0,1.0,2.0,1650824141947614.0
-7.0,-9.0,-20.0,-19.0,-3.0,-4.0,-2.0,-4.0,1650824141947614.0
-1.0,2.0,11.0,1.0,-6.0,-4.0,-3.0,-1.0,1650824141960620.0
3.0,-5.0,-26.0,-10.0,-5.0,-2.0,-3.0,-1.0,1650824141960620.0
3.0,-1.0,10.0,-5.0,-14.0,-8.0,-2.0,-3.0,1650824141961565.0
-5.0,6.0,13.0,14.0,15.0,13.0,9.0,2.0,1650824141961565.0
-2.0,0.0,0.0,5.0,12.0,7.0,2.0,-1.0,1650824141983972.0
3.0,2.0,5.0,1.0,0.0,-2.0,0.0,0.0,1650824141983972.0
1.0,-2.0,-5.0,2.0,-1.0,-2.0,-1.0,0.0,1650824141984906.0
-2.0,-3.0,-1.0,-6.0,-6.0,-6.0,-6.0,-2.0,1650824141984906.0
3.0,0.0,-2.0,-4.0,-15.0,-7.0,-3.0,-3.0,1650824142006668.0
6.0,4.0,5.0,-1.0,1.0,2.0,1.0,1.0,1650824142006668.0
-18.0,-4.0,-6.0,0.0,-7.0,-3.0,-2.0,-4.0,1650824142007610.0
0.0,0.0,5.0,4.0,8.0,1.0,4.0,0.0,1650824142007610.0
2.0,2.0,0.0,-1.0,6.0,1.0,-1.0,0.0,1650824142020630.0
-1.0,1.0,2.0,2.0,-2.0,0.0,1.0,0.0,1650824142020630.0
5.0,-1.0,-6.0,-3.0,-2.0,2.0,1.0,-1.0,1650824142021561.0
-3.0,0.0,2.0,3.0,3.0,2.0,-1.0,-1.0,1650824142021561.0
2.0,-1.0,0.0,2.0,-2.0,-4.0,-1.0,-1.0,1650824142044511.0
-2.0,-2.0,-2.0,-6.0,-1.0,2.0,0.0,-1.0,1650824142044511.0
-1.0,1.0,-8.0,-1.0,3.0,1.0,0.0,-1.0,1650824142044511.0
2.0,0.0,9.0,3.0,-11.0,-6.0,-4.0,-1.0,1650824142044511.0
1.0,-1.0,4.0,-9.0,3.0,1.0,-5.0,-2.0,1650824142066531.0
-3.0,-5.0,-17.0,4.0,-9.0,0.0,5.0,-1.0,1650824142066531.0
3.0,8.0,-15.0,-1.0,10.0,5.0,5.0,6.0,1650824142067545.0
-4.0,-13.0,6.0,2.0,0.0,-7.0,-4.0,-5.0,1650824142067545.0
-1.0,-3.0,-3.0,-4.0,-4.0,0.0,-5.0,-2.0,1650824142080493.0
3.0,3.0,9.0,1.0,0.0,-1.0,1.0,-1.0,1650824142080493.0
0.0,1.0,2.0,4.0,8.0,5.0,1.0,0.0,1650824142088535.0
9.0,2.0,-8.0,-4.0,-6.0,-5.0,0.0,1.0,1650824142088535.0
-7.0,4.0,0.0,2.0,-6.0,-9.0,-4.0,0.0,1650824142103626.0
-3.0,-4.0,1.0,-5.0,-9.0,-6.0,-7.0,-6.0,1650824142103626.0
-3.0,-2.0,4.0,8.0,7.0,7.0,7.0,0.0,1650824142104632.0
0.0,3.0,3.0,-2.0,9.0,7.0,4.0,3.0,1650824142104632.0
4.0,-2.0,-1.0,2.0,-2.0,3.0,1.0,0.0,1650824142126634.0
1.0,3.0,-1.0,-2.0,6.0,2.0,-1.0,3.0,1650824142126634.0
-2.0,-5.0,-1.0,-4.0,-4.0,-5.0,-4.0,0.0,1650824142127591.0
2.0,-1.0,-3.0,0.0,-6.0,-3.0,-3.0,-1.0,1650824142127591.0
-1.0,-2.0,-3.0,-1.0,-1.0,5.0,1.0,-1.0,1650824142140559.0
-4.0,-3.0,1.0,-4.0,-1.0,-4.0,-3.0,0.0,1650824142140559.0
0.0,2.0,1.0,-3.0,-3.0,-1.0,-3.0,-3.0,1650824142148570.0
-3.0,-1.0,-1.0,1.0,-2.0,-1.0,3.0,1.0,1650824142148570.0
1.0,6.0,5.0,-3.0,7.0,4.0,6.0,4.0,1650824142164421.0
-3.0,-1.0,2.0,2.0,2.0,3.0,-1.0,-2.0,1650824142164421.0
1.0,-1.0,3.0,-3.0,-3.0,-2.0,-2.0,0.0,1650824142164421.0
-4.0,2.0,-1.0,-3.0,1.0,0.0,-2.0,-3.0,1650824142164421.0
-1.0,-3.0,-5.0,-1.0,-14.0,-7.0,-4.0,0.0,1650824142202316.0
4.0,3.0,4.0,5.0,4.0,0.0,1.0,1.0,1650824142202316.0
3.0,3.0,6.0,0.0,-1.0,-1.0,0.0,2.0,1650824142203275.0
-5.0,-5.0,-13.0,-1.0,1.0,2.0,-2.0,-2.0,1650824142203275.0
2.0,-3.0,2.0,-4.0,-1.0,-1.0,0.0,1.0,1650824142204244.0
0.0,0.0,-1.0,-2.0,1.0,-1.0,0.0,-2.0,1650824142204244.0
1.0,-4.0,-1.0,-1.0,-1.0,-2.0,-1.0,2.0,1650824142208233.0
1.0,2.0,4.0,1.0,1.0,1.0,0.0,0.0,1650824142208233.0
0.0,-3.0,-2.0,-1.0,0.0,-2.0,0.0,-1.0,1650824142224371.0
-1.0,0.0,-1.0,-1.0,-5.0,-2.0,-2.0,0.0,1650824142224371.0
-4.0,-4.0,-4.0,-6.0,1.0,1.0,-2.0,-2.0,1650824142225370.0
3.0,-2.0,0.0,-1.0,-18.0,-9.0,-1.0,0.0,1650824142225370.0
0.0,0.0,-2.0,3.0,2.0,3.0,2.0,-1.0,1650824142246614.0
1.0,2.0,2.0,5.0,14.0,8.0,3.0,3.0,1650824142246614.0
-1.0,1.0,1.0,1.0,0.0,-2.0,2.0,-1.0,1650824142248541.0
-1.0,-2.0,0.0,-5.0,0.0,2.0,-3.0,-3.0,1650824142248541.0
-2.0,-2.0,-2.0,-1.0,-7.0,-6.0,-3.0,-4.0,1650824142260537.0
-1.0,1.0,4.0,1.0,-4.0,-2.0,0.0,0.0,1650824142260537.0
-2.0,-2.0,0.0,7.0,3.0,2.0,1.0,-2.0,1650824142269541.0
3.0,6.0,2.0,-4.0,0.0,1.0,-1.0,1.0,1650824142269541.0
-4.0,-1.0,0.0,-7.0,-3.0,-3.0,-3.0,-2.0,1650824142283568.0
-2.0,-2.0,-1.0,-6.0,1.0,2.0,3.0,0.0,1650824142283568.0
-2.0,-3.0,-4.0,-2.0,-2.0,-3.0,2.0,-2.0,1650824142285505.0
-1.0,4.0,4.0,7.0,8.0,1.0,1.0,0.0,1650824142285505.0
0.0,1.0,1.0,3.0,-6.0,-1.0,-3.0,-1.0,1650824142305903.0
-2.0,0.0,1.0,1.0,-1.0,-4.0,-3.0,-1.0,1650824142305903.0
0.0,1.0,1.0,-1.0,-5.0,0.0,-3.0,1.0,1650824142312783.0
-1.0,-3.0,-3.0,-2.0,0.0,0.0,-1.0,-1.0,1650824142312783.0
0.0,-1.0,-3.0,-1.0,5.0,1.0,1.0,0.0,1650824142319671.0
0.0,-5.0,-2.0,3.0,7.0,-2.0,-1.0,-2.0,1650824142319671.0
-1.0,0.0,1.0,-2.0,-14.0,-4.0,-1.0,-1.0,1650824142329646.0
-2.0,-5.0,1.0,0.0,2.0,-1.0,-1.0,0.0,1650824142329646.0
1.0,-1.0,-1.0,1.0,6.0,3.0,-3.0,0.0,1650824142351658.0
-1.0,0.0,1.0,1.0,-2.0,3.0,1.0,0.0,1650824142351658.0
-1.0,0.0,-1.0,0.0,3.0,-1.0,0.0,-2.0,1650824142352584.0
-3.0,-2.0,0.0,0.0,1.0,0.0,-1.0,0.0,1650824142352584.0
6.0,1.0,-1.0,6.0,0.0,-2.0,4.0,0.0,1650824142366614.0
2.0,-1.0,-3.0,-7.0,-4.0,-3.0,0.0,3.0,1650824142366614.0
-3.0,-3.0,-4.0,1.0,-1.0,-4.0,-3.0,-4.0,1650824142367544.0
-4.0,-1.0,1.0,1.0,-1.0,2.0,2.0,-1.0,1650824142367544.0
-1.0,-3.0,-3.0,3.0,6.0,5.0,-1.0,-2.0,1650824142380572.0
2.0,0.0,-4.0,-7.0,-1.0,-1.0,-2.0,1.0,1650824142380572.0
2.0,7.0,7.0,0.0,-4.0,0.0,-1.0,1.0,1650824142388851.0
-1.0,-4.0,1.0,8.0,-6.0,-1.0,0.0,-1.0,1650824142388851.0
2.0,1.0,-2.0,-7.0,16.0,4.0,1.0,-1.0,1650824142403108.0
-3.0,1.0,-1.0,3.0,-17.0,-6.0,-2.0,-2.0,1650824142403108.0
1.0,2.0,4.0,-4.0,-1.0,-4.0,-3.0,0.0,1650824142412098.0
0.0,-3.0,-4.0,-2.0,5.0,3.0,-1.0,-3.0,1650824142412098.0
-1.0,1.0,2.0,2.0,-6.0,2.0,-1.0,-1.0,1650824142426752.0
-1.0,-3.0,2.0,2.0,3.0,-3.0,-1.0,-2.0,1650824142426752.0
-1.0,0.0,-2.0,-3.0,-2.0,-5.0,-2.0,4.0,1650824142427680.0
-1.0,-1.0,-3.0,-6.0,-8.0,-4.0,-3.0,1.0,1650824142427680.0
-1.0,-1.0,-2.0,5.0,6.0,3.0,3.0,0.0,1650824142448691.0
0.0,1.0,-1.0,-1.0,-2.0,5.0,-2.0,-3.0,1650824142448691.0
0.0,-6.0,-7.0,2.0,3.0,1.0,-1.0,-2.0,1650824142450619.0
-1.0,2.0,-1.0,-3.0,-2.0,-1.0,1.0,-1.0,1650824142450619.0
-1.0,-1.0,-1.0,-2.0,-8.0,-6.0,-2.0,0.0,1650824142463584.0
-1.0,0.0,-1.0,-3.0,-3.0,-1.0,0.0,-1.0,1650824142463584.0
-1.0,0.0,0.0,1.0,-2.0,-1.0,-2.0,-1.0,1650824142471563.0
0.0,-2.0,-3.0,-1.0,16.0,6.0,1.0,-1.0,1650824142471563.0
-4.0,-2.0,0.0,-2.0,-17.0,-5.0,-1.0,-1.0,1650824142486522.0
2.0,1.0,1.0,3.0,3.0,-1.0,0.0,0.0,1650824142486522.0
0.0,-3.0,-4.0,-2.0,-7.0,-2.0,-5.0,-1.0,1650824142488516.0
4.0,6.0,-1.0,-7.0,-1.0,-2.0,-3.0,0.0,1650824142488516.0
-2.0,0.0,5.0,4.0,4.0,6.0,6.0,0.0,1650824142509486.0
-1.0,-1.0,-3.0,10.0,4.0,0.0,1.0,-1.0,1650824142509486.0
0.0,-3.0,-4.0,-8.0,2.0,3.0,2.0,0.0,1650824142510471.0
2.0,1.0,0.0,-3.0,-1.0,-4.0,-3.0,1.0,1650824142510471.0
2.0,-2.0,-6.0,-9.0,-5.0,1.0,-1.0,0.0,1650824142522964.0
-1.0,0.0,7.0,2.0,0.0,1.0,0.0,2.0,1650824142522964.0
0.0,-1.0,-2.0,0.0,1.0,4.0,3.0,-1.0,1650824142529940.0
0.0,1.0,0.0,6.0,-5.0,-5.0,-2.0,-1.0,1650824142529940.0
-3.0,-5.0,-7.0,-1.0,1.0,-3.0,-3.0,0.0,1650824142546896.0
-1.0,0.0,-1.0,-3.0,-6.0,-1.0,-2.0,-3.0,1650824142546896.0
-1.0,-5.0,-2.0,-4.0,-3.0,-3.0,-2.0,0.0,1650824142547893.0
-1.0,-2.0,2.0,-3.0,-6.0,-1.0,0.0,-1.0,1650824142547893.0
-3.0,2.0,1.0,2.0,-4.0,-4.0,1.0,-2.0,1650824142568857.0
-1.0,2.0,1.0,3.0,2.0,-1.0,5.0,8.0,1650824142568857.0
-2.0,1.0,3.0,3.0,5.0,5.0,-1.0,-18.0,1650824142570832.0
0.0,-2.0,-2.0,0.0,-5.0,-7.0,-2.0,9.0,1650824142570832.0
0.0,-1.0,-4.0,-2.0,4.0,4.0,-3.0,-2.0,1650824142590779.0
0.0,-1.0,-2.0,-3.0,2.0,5.0,1.0,0.0,1650824142590779.0
1.0,2.0,1.0,-1.0,0.0,-6.0,1.0,5.0,1650824142597826.0
-1.0,-2.0,-1.0,-1.0,0.0,2.0,2.0,3.0,1650824142597826.0
1.0,2.0,5.0,1.0,-3.0,-1.0,-4.0,-6.0,1650824142606822.0
-2.0,-1.0,-5.0,-7.0,2.0,-1.0,-4.0,-4.0,1650824142606822.0
1.0,-3.0,1.0,7.0,-8.0,0.0,6.0,26.0,1650824142607820.0
-6.0,0.0,-5.0,0.0,5.0,0.0,-5.0,-49.0,1650824142607820.0
3.0,-1.0,2.0,-2.0,-4.0,-7.0,-4.0,0.0,1650824142630061.0
-1.0,0.0,-2.0,-3.0,2.0,3.0,-1.0,-5.0,1650824142630061.0
0.0,1.0,3.0,3.0,4.0,-2.0,-1.0,-3.0,1650824142644421.0
0.0,0.0,-3.0,-2.0,-4.0,2.0,5.0,12.0,1650824142644421.0
1.0,-1.0,-1.0,4.0,4.0,3.0,4.0,10.0,1650824142644969.0
-4.0,-1.0,-3.0,1.0,-3.0,-4.0,-6.0,-22.0,1650824142644969.0
-1.0,0.0,-4.0,-10.0,0.0,2.0,0.0,-5.0,1650824142649958.0
-1.0,-3.0,17.0,10.0,-1.0,-3.0,-1.0,14.0,1650824142649958.0
-1.0,-1.0,-1.0,-3.0,6.0,-1.0,-4.0,-6.0,1650824142666932.0
-3.0,-9.0,-19.0,-10.0,-14.0,-3.0,-1.0,9.0,1650824142666932.0
0.0,3.0,2.0,7.0,3.0,-1.0,1.0,2.0,1650824142667910.0
4.0,4.0,-3.0,0.0,-4.0,-1.0,-1.0,3.0,1650824142667910.0
-2.0,0.0,-1.0,0.0,4.0,3.0,-2.0,-14.0,1650824142688853.0
1.0,-1.0,11.0,6.0,-2.0,0.0,-1.0,4.0,1650824142688853.0
-3.0,-2.0,2.0,-7.0,-7.0,-2.0,-5.0,-8.0,1650824142690854.0
-3.0,0.0,1.0,2.0,10.0,5.0,5.0,2.0,1650824142690854.0
1.0,1.0,-2.0,10.0,2.0,-2.0,3.0,7.0,1650824142702816.0
0.0,1.0,-4.0,-7.0,-3.0,-1.0,-3.0,-2.0,1650824142702816.0
-5.0,-4.0,-4.0,-1.0,-11.0,-8.0,-4.0,-5.0,1650824142711793.0
1.0,-3.0,-9.0,-14.0,5.0,2.0,2.0,19.0,1650824142711793.0
-1.0,-1.0,6.0,-3.0,-10.0,-4.0,6.0,2.0,1650824142726819.0
4.0,6.0,1.0,13.0,12.0,3.0,3.0,7.0,1650824142726819.0
2.0,2.0,15.0,16.0,6.0,4.0,-9.0,-4.0,1650824142727750.0
-3.0,-5.0,-33.0,-24.0,-3.0,0.0,5.0,4.0,1650824142727750.0
-3.0,-8.0,-2.0,-5.0,-6.0,-1.0,-3.0,-3.0,1650824142756840.0
-1.0,3.0,-1.0,-1.0,0.0,1.0,3.0,2.0,1650824142756840.0
3.0,-1.0,2.0,-10.0,-2.0,-2.0,10.0,34.0,1650824142758836.0
-3.0,6.0,17.0,14.0,-2.0,2.0,2.0,-50.0,1650824142758836.0
13.0,9.0,24.0,21.0,12.0,3.0,-20.0,2.0,1650824142763841.0
-27.0,3.0,-20.0,-15.0,-3.0,1.0,5.0,3.0,1650824142763841.0
0.0,-36.0,-26.0,-12.0,3.0,-1.0,-11.0,-25.0,1650824142769806.0
-6.0,3.0,19.0,20.0,-6.0,0.0,18.0,16.0,1650824142769806.0
3.0,1.0,-15.0,-18.0,5.0,4.0,-18.0,-10.0,1650824142786617.0
5.0,4.0,47.0,19.0,-7.0,-6.0,-5.0,-4.0,1650824142786617.0
3.0,17.0,3.0,17.0,13.0,8.0,9.0,31.0,1650824142787615.0
-7.0,-22.0,-17.0,-29.0,-12.0,-6.0,-8.0,-9.0,1650824142787615.0
-1.0,0.0,-14.0,2.0,-2.0,-22.0,0.0,7.0,1650824142809537.0
7.0,-4.0,-11.0,2.0,4.0,7.0,1.0,5.0,1650824142809537.0
-1.0,11.0,27.0,10.0,-2.0,-3.0,1.0,-12.0,1650824142810533.0
6.0,-2.0,0.0,17.0,6.0,10.0,5.0,22.0,1650824142810533.0
-1.0,5.0,6.0,-6.0,-9.0,4.0,3.0,6.0,1650824142823135.0
4.0,3.0,6.0,3.0,3.0,-3.0,7.0,23.0,1650824142823135.0
-1.0,-23.0,-10.0,-15.0,-2.0,4.0,-8.0,-28.0,1650824142832116.0
-10.0,-13.0,-54.0,-47.0,-8.0,-4.0,14.0,-4.0,1650824142832116.0
-5.0,1.0,10.0,-8.0,-1.0,1.0,2.0,-17.0,1650824142846230.0
-1.0,2.0,9.0,5.0,-3.0,-3.0,-14.0,10.0,1650824142846230.0
14.0,31.0,23.0,27.0,-1.0,-7.0,-17.0,18.0,1650824142848178.0
-6.0,0.0,6.0,6.0,-2.0,-11.0,-20.0,-3.0,1650824142848178.0
-1.0,1.0,12.0,15.0,3.0,-1.0,20.0,5.0,1650824142869280.0
10.0,-20.0,-55.0,-30.0,-5.0,3.0,18.0,-17.0,1650824142869280.0
-43.0,-7.0,-5.0,-4.0,-2.0,-4.0,-20.0,-36.0,1650824142870231.0
3.0,7.0,14.0,12.0,6.0,-1.0,-4.0,-12.0,1650824142870231.0
20.0,-14.0,-48.0,-34.0,-12.0,-1.0,14.0,62.0,1650824142882243.0
-16.0,6.0,3.0,-9.0,3.0,6.0,1.0,23.0,1650824142882243.0
13.0,34.0,6.0,30.0,12.0,9.0,17.0,-13.0,1650824142891154.0
-11.0,-8.0,40.0,-2.0,-2.0,-5.0,-13.0,3.0,1650824142891154.0
-7.0,11.0,29.0,23.0,1.0,11.0,31.0,10.0,1650824142906667.0
6.0,-20.0,-8.0,-28.0,-8.0,-20.0,-82.0,-71.0,1650824142906667.0
30.0,39.0,1.0,7.0,3.0,4.0,8.0,11.0,1650824142907598.0
6.0,-16.0,17.0,27.0,7.0,4.0,-2.0,13.0,1650824142907598.0
45.0,16.0,-13.0,-10.0,5.0,11.0,25.0,83.0,1650824142929539.0
-24.0,9.0,29.0,8.0,-2.0,-5.0,-7.0,-64.0,1650824142929539.0
-11.0,-20.0,-7.0,12.0,2.0,3.0,10.0,1.0,1650824142930536.0
15.0,64.0,52.0,17.0,8.0,4.0,-12.0,-25.0,1650824142930536.0
-6.0,-28.0,-84.0,-58.0,-10.0,-6.0,7.0,23.0,1650824142942572.0
-4.0,-18.0,16.0,-2.0,-6.0,-4.0,15.0,18.0,1650824142942572.0
7.0,-16.0,-24.0,-5.0,21.0,29.0,25.0,24.0,1650824142951492.0
17.0,24.0,21.0,9.0,-1.0,-1.0,17.0,19.0,1650824142951492.0
-25.0,-14.0,17.0,33.0,7.0,2.0,-25.0,-57.0,1650824142966939.0
4.0,-3.0,-12.0,-3.0,-9.0,-7.0,1.0,17.0,1650824142966939.0
-14.0,-12.0,-27.0,-47.0,-4.0,-3.0,-3.0,3.0,1650824142967937.0
37.0,48.0,5.0,48.0,7.0,13.0,41.0,101.0,1650824142967937.0
-13.0,-7.0,4.0,-63.0,-28.0,-25.0,-56.0,-38.0,1650824142988994.0
-5.0,-39.0,-26.0,7.0,5.0,-2.0,-8.0,-20.0,1650824142988994.0
2.0,-45.0,18.0,35.0,16.0,8.0,36.0,18.0,1650824142990990.0
-57.0,-28.0,-10.0,-9.0,-16.0,-12.0,-29.0,24.0,1650824142990990.0
15.0,28.0,-9.0,-13.0,1.0,-3.0,3.0,37.0,1650824143012931.0
9.0,-10.0,-17.0,58.0,7.0,4.0,12.0,18.0,1650824143012931.0
-3.0,29.0,29.0,-43.0,-12.0,-6.0,8.0,13.0,1650824143014925.0
16.0,2.0,-40.0,-14.0,1.0,10.0,-6.0,-18.0,1650824143014925.0
