EMG_s0,EMG_s1,EMG_s2,EMG_s3,EMG_s4,EMG_s5,EMG_s6,EMG_s7,timestamp
2.0,-5.0,-2.0,-2.0,2.0,2.0,0.0,-2.0,1650823936064610.0
3.0,1.0,2.0,5.0,-7.0,0.0,0.0,3.0,1650823936064610.0
-2.0,-3.0,3.0,6.0,2.0,-2.0,-1.0,0.0,1650823936065598.0
-1.0,0.0,-1.0,-1.0,6.0,1.0,0.0,-1.0,1650823936065598.0
-3.0,0.0,-2.0,0.0,-1.0,-2.0,-2.0,-3.0,1650823936066594.0
-3.0,-4.0,-10.0,-10.0,-2.0,-1.0,-4.0,-3.0,1650823936066594.0
0.0,3.0,1.0,4.0,3.0,-13.0,4.0,0.0,1650823936067590.0
1.0,3.0,10.0,5.0,-10.0,-7.0,1.0,2.0,1650823936067590.0
-3.0,-1.0,-10.0,-3.0,1.0,6.0,2.0,0.0,1650823936073602.0
0.0,1.0,-3.0,-1.0,-4.0,1.0,0.0,0.0,1650823936073602.0
-2.0,-6.0,-11.0,-14.0,-4.0,8.0,-3.0,-1.0,1650823936077592.0
-1.0,8.0,3.0,4.0,2.0,-1.0,-1.0,-3.0,1650823936077592.0
2.0,0.0,10.0,4.0,-5.0,-6.0,-2.0,2.0,1650823936093543.0
-3.0,-3.0,3.0,-5.0,-4.0,-6.0,-2.0,-2.0,1650823936093543.0
0.0,-2.0,-3.0,4.0,-3.0,-1.0,-3.0,-2.0,1650823936102525.0
1.0,6.0,5.0,1.0,6.0,7.0,2.0,1.0,1650823936102525.0
-1.0,1.0,1.0,2.0,3.0,-1.0,-2.0,0.0,1650823936107484.0
-1.0,4.0,-1.0,-1.0,6.0,-4.0,0.0,-1.0,1650823936107484.0
0.0,1.0,4.0,2.0,-13.0,0.0,1.0,1.0,1650823936131654.0
2.0,-5.0,-6.0,-2.0,-1.0,-1.0,0.0,1.0,1650823936131654.0
0.0,-4.0,-1.0,-12.0,-4.0,-4.0,0.0,-2.0,1650823936171106.0
1.0,-1.0,1.0,-3.0,-2.0,0.0,-3.0,-2.0,1650823936171106.0
-1.0,-3.0,-6.0,-5.0,1.0,-3.0,0.0,-1.0,1650823936172103.0
2.0,2.0,0.0,-2.0,2.0,-2.0,0.0,2.0,1650823936172103.0
0.0,-3.0,-3.0,3.0,2.0,3.0,-1.0,1.0,1650823936173101.0
0.0,-1.0,-1.0,-3.0,0.0,0.0,1.0,-2.0,1650823936173101.0
1.0,4.0,2.0,-1.0,-2.0,-1.0,-2.0,-1.0,1650823936176117.0
-2.0,-1.0,-2.0,-1.0,-4.0,-4.0,-2.0,-2.0,1650823936176117.0
-1.0,1.0,-1.0,-1.0,-1.0,-1.0,-1.0,-1.0,1650823936183075.0
-1.0,-1.0,0.0,-1.0,-4.0,0.0,-1.0,0.0,1650823936183075.0
-3.0,-2.0,-5.0,3.0,2.0,5.0,2.0,-2.0,1650823936191080.0
2.0,0.0,1.0,1.0,2.0,-3.0,4.0,0.0,1650823936191080.0
-1.0,-4.0,-1.0,6.0,-2.0,-1.0,-2.0,-2.0,1650823936198061.0
-1.0,1.0,4.0,-7.0,-1.0,-4.0,-3.0,-2.0,1650823936198061.0
0.0,-1.0,1.0,-2.0,-8.0,-5.0,-1.0,-2.0,1650823936213992.0
-3.0,-2.0,-1.0,0.0,-12.0,0.0,-3.0,-2.0,1650823936213992.0
0.0,3.0,1.0,2.0,9.0,8.0,5.0,-2.0,1650823936220042.0
1.0,5.0,10.0,9.0,5.0,-5.0,1.0,2.0,1650823936220042.0
2.0,-6.0,-10.0,2.0,4.0,5.0,0.0,3.0,1650823936242823.0
0.0,-2.0,1.0,-7.0,4.0,1.0,-3.0,-1.0,1650823936242823.0
-1.0,-1.0,3.0,1.0,-11.0,-13.0,-3.0,-1.0,1650823936251816.0
-1.0,1.0,-5.0,-1.0,-3.0,1.0,1.0,1.0,1650823936251816.0
1.0,1.0,2.0,0.0,2.0,0.0,0.0,-1.0,1650823936258852.0
-1.0,0.0,-2.0,0.0,-2.0,4.0,0.0,0.0,1650823936258852.0
-1.0,0.0,-3.0,-2.0,0.0,4.0,-2.0,0.0,1650823936260779.0
-3.0,-9.0,-8.0,-10.0,-6.0,-9.0,-3.0,-2.0,1650823936260779.0
0.0,2.0,6.0,8.0,7.0,1.0,2.0,1.0,1650823936288910.0
3.0,2.0,0.0,2.0,9.0,10.0,4.0,1.0,1650823936288910.0
0.0,-2.0,10.0,0.0,-1.0,-3.0,2.0,0.0,1650823936290906.0
1.0,-2.0,-2.0,3.0,0.0,0.0,-2.0,-1.0,1650823936290906.0
-2.0,0.0,2.0,-3.0,-16.0,-3.0,-2.0,-1.0,1650823936304445.0
-2.0,-1.0,-2.0,-2.0,-8.0,-9.0,-3.0,-1.0,1650823936304445.0
0.0,3.0,2.0,2.0,15.0,12.0,0.0,1.0,1650823936305449.0
-1.0,-4.0,-5.0,2.0,-7.0,-6.0,4.0,0.0,1650823936305449.0
-4.0,3.0,0.0,-3.0,10.0,3.0,-1.0,-2.0,1650823936319591.0
0.0,-6.0,-11.0,-2.0,2.0,-4.0,-3.0,-2.0,1650823936319591.0
-3.0,-2.0,-12.0,-8.0,-4.0,4.0,-4.0,-2.0,1650823936320591.0
0.0,6.0,7.0,9.0,3.0,-3.0,1.0,-1.0,1650823936320591.0
-1.0,0.0,-3.0,-1.0,-2.0,-2.0,0.0,0.0,1650823936341442.0
-2.0,-4.0,5.0,-4.0,-3.0,-3.0,-1.0,1.0,1650823936341442.0
0.0,-1.0,3.0,-2.0,-2.0,0.0,-4.0,0.0,1650823936343433.0
0.0,1.0,-15.0,-13.0,1.0,6.0,-1.0,-2.0,1650823936343433.0
-2.0,-1.0,6.0,3.0,-3.0,-5.0,-1.0,-2.0,1650823936364453.0
-2.0,3.0,0.0,3.0,-4.0,-1.0,-2.0,-1.0,1650823936364453.0
0.0,-1.0,0.0,-4.0,3.0,-3.0,0.0,1.0,1650823936365396.0
-2.0,-1.0,5.0,6.0,-3.0,3.0,2.0,1.0,1650823936365396.0
2.0,-1.0,-4.0,-4.0,-9.0,-2.0,-2.0,1.0,1650823936378424.0
1.0,-1.0,2.0,2.0,5.0,1.0,1.0,-2.0,1650823936378424.0
0.0,5.0,2.0,1.0,-7.0,-4.0,1.0,-1.0,1650823936385344.0
-1.0,-4.0,-3.0,0.0,5.0,-2.0,-7.0,-1.0,1650823936385344.0
-1.0,-3.0,-6.0,-9.0,-2.0,13.0,-3.0,-1.0,1650823936409525.0
2.0,4.0,6.0,1.0,-10.0,-21.0,1.0,1.0,1650823936409525.0
0.0,-2.0,-3.0,5.0,13.0,1.0,1.0,1.0,1650823936411079.0
1.0,3.0,1.0,-1.0,3.0,8.0,1.0,0.0,1650823936411079.0
-1.0,-2.0,-3.0,-1.0,-1.0,0.0,1.0,-1.0,1650823936424499.0
-1.0,-3.0,-7.0,-1.0,1.0,4.0,-2.0,-2.0,1650823936424499.0
-1.0,-1.0,-6.0,-9.0,-8.0,-4.0,-2.0,1.0,1650823936425501.0
-1.0,-1.0,-4.0,7.0,0.0,-2.0,-2.0,-1.0,1650823936425501.0
-1.0,-1.0,-4.0,-13.0,2.0,-2.0,2.0,0.0,1650823936446653.0
-3.0,4.0,0.0,-8.0,2.0,3.0,0.0,-2.0,1650823936446653.0
1.0,-10.0,-13.0,3.0,-3.0,-3.0,-1.0,1.0,1650823936448608.0
0.0,1.0,-3.0,-6.0,12.0,4.0,-2.0,-1.0,1650823936448608.0
-1.0,-1.0,1.0,6.0,-15.0,-10.0,0.0,-1.0,1650823936461574.0
0.0,-2.0,1.0,5.0,2.0,2.0,1.0,-1.0,1650823936461574.0
1.0,3.0,5.0,-2.0,-2.0,0.0,-1.0,1.0,1650823936463541.0
-2.0,-2.0,1.0,-1.0,-2.0,-4.0,-3.0,-1.0,1650823936463541.0
0.0,-2.0,-1.0,-5.0,-3.0,-5.0,-4.0,-1.0,1650823936483740.0
-1.0,0.0,3.0,3.0,9.0,9.0,5.0,-2.0,1650823936483740.0
-1.0,-2.0,3.0,10.0,11.0,10.0,2.0,-1.0,1650823936485614.0
1.0,0.0,1.0,0.0,-3.0,-2.0,3.0,1.0,1650823936485614.0
-2.0,-2.0,-2.0,-5.0,-1.0,-7.0,-3.0,-2.0,1650823936498578.0
-2.0,-2.0,-2.0,-2.0,-11.0,-3.0,-5.0,-1.0,1650823936498578.0
-1.0,4.0,-8.0,-13.0,-10.0,-7.0,-5.0,-1.0,1650823936505627.0
-3.0,-4.0,-1.0,2.0,1.0,6.0,4.0,-2.0,1650823936505627.0
1.0,1.0,3.0,8.0,7.0,4.0,2.0,2.0,1650823936521981.0
0.0,-1.0,1.0,0.0,2.0,1.0,-1.0,1.0,1650823936521981.0
-2.0,0.0,4.0,1.0,-4.0,-1.0,-1.0,0.0,1650823936522914.0
-2.0,-1.0,0.0,-5.0,-7.0,-2.0,-3.0,0.0,1650823936522914.0
-1.0,4.0,6.0,3.0,12.0,-1.0,2.0,-2.0,1650823936543926.0
0.0,-10.0,-8.0,-3.0,-13.0,-1.0,0.0,-1.0,1650823936543926.0
3.0,2.0,4.0,-1.0,-1.0,-1.0,2.0,3.0,1650823936545876.0
-1.0,12.0,17.0,1.0,-9.0,-5.0,-2.0,-2.0,1650823936545876.0
0.0,-1.0,-1.0,5.0,3.0,0.0,1.0,1.0,1650823936566555.0
0.0,2.0,0.0,1.0,11.0,5.0,1.0,0.0,1650823936566555.0
-1.0,0.0,1.0,-1.0,-5.0,-2.0,-1.0,-3.0,1650823936568541.0
1.0,-3.0,-4.0,-3.0,-2.0,-2.0,-2.0,1.0,1650823936568541.0
1.0,-2.0,-3.0,-8.0,-4.0,-4.0,-3.0,-3.0,1650823936581533.0
-4.0,-4.0,-7.0,-5.0,-1.0,0.0,1.0,0.0,1650823936581533.0
-1.0,-1.0,2.0,3.0,3.0,3.0,2.0,0.0,1650823936583500.0
0.0,-3.0,-2.0,1.0,2.0,9.0,-1.0,-1.0,1650823936583500.0
-1.0,1.0,2.0,-2.0,-4.0,-13.0,-3.0,1.0,1650823936604527.0
1.0,-1.0,-2.0,-1.0,-4.0,1.0,-1.0,-1.0,1650823936604527.0
-2.0,2.0,2.0,1.0,1.0,2.0,1.0,-2.0,1650823936605447.0
-1.0,-6.0,-7.0,0.0,6.0,7.0,0.0,0.0,1650823936605447.0
0.0,-1.0,0.0,-1.0,-3.0,-1.0,-1.0,-1.0,1650823936618407.0
1.0,0.0,0.0,3.0,12.0,6.0,-1.0,-1.0,1650823936618407.0
-2.0,-4.0,-2.0,0.0,-21.0,-14.0,-2.0,-1.0,1650823936625416.0
0.0,-2.0,-10.0,-14.0,-10.0,-8.0,-1.0,-1.0,1650823936625416.0
0.0,-1.0,-2.0,3.0,0.0,3.0,1.0,-1.0,1650823936641516.0
-1.0,3.0,3.0,-3.0,7.0,1.0,1.0,-2.0,1650823936641516.0
-3.0,-2.0,3.0,12.0,5.0,3.0,-4.0,-3.0,1650823936643532.0
0.0,-3.0,-10.0,-11.0,-6.0,2.0,2.0,0.0,1650823936643532.0
-1.0,2.0,6.0,-1.0,5.0,4.0,0.0,1.0,1650823936663834.0
-1.0,-4.0,-2.0,3.0,0.0,0.0,-1.0,1.0,1650823936663834.0
1.0,0.0,1.0,-10.0,-3.0,-6.0,-3.0,-3.0,1650823936665761.0
0.0,6.0,7.0,4.0,-3.0,-9.0,-2.0,-2.0,1650823936665761.0
2.0,1.0,0.0,2.0,0.0,5.0,1.0,1.0,1650823936686705.0
-1.0,1.0,2.0,2.0,6.0,7.0,2.0,1.0,1650823936686705.0
2.0,2.0,-1.0,1.0,1.0,-3.0,0.0,1.0,1650823936687730.0
-1.0,-3.0,-2.0,-1.0,-2.0,-3.0,-1.0,0.0,1650823936687730.0
-2.0,-1.0,0.0,-3.0,0.0,4.0,-2.0,-2.0,1650823936701665.0
-5.0,-3.0,-5.0,-5.0,-8.0,-12.0,-3.0,-3.0,1650823936701665.0
-3.0,-1.0,-1.0,2.0,-5.0,-1.0,2.0,1.0,1650823936703693.0
1.0,2.0,4.0,4.0,6.0,6.0,2.0,-2.0,1650823936703693.0
0.0,2.0,1.0,6.0,5.0,3.0,2.0,0.0,1650823936723635.0
1.0,-2.0,-1.0,2.0,12.0,1.0,-1.0,0.0,1650823936723635.0
-1.0,-2.0,-7.0,-3.0,-8.0,1.0,-1.0,-2.0,1650823936725601.0
0.0,-1.0,2.0,-5.0,-3.0,-6.0,-3.0,-1.0,1650823936725601.0
-2.0,-4.0,-6.0,-3.0,-3.0,-2.0,-2.0,-1.0,1650823936737636.0
-2.0,-5.0,-2.0,-2.0,-3.0,-2.0,-1.0,-3.0,1650823936737636.0
0.0,3.0,2.0,1.0,3.0,1.0,2.0,1.0,1650823936746545.0
0.0,-1.0,-3.0,5.0,9.0,5.0,1.0,1.0,1650823936746545.0
-1.0,-3.0,-4.0,-2.0,1.0,0.0,-1.0,-1.0,1650823936761669.0
1.0,4.0,3.0,-5.0,-9.0,-8.0,-3.0,-1.0,1650823936761669.0
0.0,-1.0,-2.0,0.0,-1.0,-4.0,3.0,-1.0,1650823936763624.0
1.0,-2.0,1.0,3.0,2.0,7.0,2.0,0.0,1650823936763624.0
0.0,1.0,-1.0,-3.0,-2.0,-4.0,-3.0,-1.0,1650823936784540.0
1.0,3.0,-1.0,-2.0,-3.0,-3.0,-3.0,-2.0,1650823936784540.0
-1.0,-7.0,-10.0,-7.0,-14.0,-14.0,-3.0,-1.0,1650823936785551.0
-1.0,0.0,3.0,4.0,13.0,7.0,3.0,1.0,1650823936785551.0
-3.0,5.0,4.0,6.0,15.0,6.0,3.0,-1.0,1650823936797505.0
1.0,6.0,3.0,1.0,-14.0,4.0,0.0,0.0,1650823936797505.0
1.0,-4.0,0.0,-6.0,6.0,0.0,-4.0,-2.0,1650823936806641.0
-1.0,1.0,0.0,-1.0,5.0,-8.0,-1.0,-1.0,1650823936806641.0
0.0,-2.0,-6.0,-1.0,-17.0,-2.0,1.0,0.0,1650823936821702.0
-2.0,-6.0,-3.0,-6.0,-4.0,-3.0,0.0,-1.0,1650823936821702.0
-1.0,1.0,4.0,0.0,5.0,4.0,0.0,0.0,1650823936823645.0
-1.0,-2.0,-2.0,2.0,-2.0,1.0,3.0,2.0,1650823936823645.0
2.0,-1.0,-3.0,-1.0,2.0,1.0,-2.0,-3.0,1650823936844613.0
-7.0,-1.0,-8.0,0.0,0.0,0.0,0.0,0.0,1650823936844613.0
0.0,-2.0,-6.0,-8.0,-5.0,-6.0,-4.0,-1.0,1650823936845571.0
-2.0,3.0,7.0,8.0,-2.0,-2.0,-2.0,-1.0,1650823936845571.0
-1.0,-3.0,0.0,-11.0,-2.0,-1.0,0.0,0.0,1650823936857565.0
3.0,2.0,3.0,6.0,1.0,0.0,2.0,-2.0,1650823936857565.0
-1.0,-2.0,0.0,6.0,15.0,8.0,1.0,-2.0,1650823936866514.0
0.0,0.0,-7.0,-5.0,-12.0,-14.0,-2.0,0.0,1650823936866514.0
-2.0,-1.0,-2.0,-2.0,-11.0,1.0,-1.0,1.0,1650823936881502.0
0.0,-2.0,0.0,-4.0,0.0,-3.0,-2.0,0.0,1650823936881502.0
0.0,-1.0,5.0,7.0,6.0,10.0,2.0,-2.0,1650823936883491.0
0.0,1.0,-7.0,-3.0,-2.0,-2.0,-3.0,0.0,1650823936883491.0
0.0,-6.0,-6.0,-3.0,-5.0,-10.0,-4.0,-2.0,1650823936904604.0
0.0,0.0,2.0,0.0,5.0,7.0,0.0,1.0,1650823936904604.0
1.0,0.0,-2.0,-1.0,-12.0,-1.0,-2.0,-1.0,1650823936905603.0
0.0,-4.0,-5.0,-5.0,-5.0,-2.0,0.0,-1.0,1650823936905603.0
-1.0,3.0,2.0,-1.0,4.0,2.0,3.0,0.0,1650823936917634.0
2.0,0.0,-2.0,3.0,-4.0,-6.0,1.0,1.0,1650823936917634.0
0.0,-2.0,-4.0,-5.0,5.0,-1.0,0.0,-1.0,1650823936926639.0
0.0,-3.0,0.0,0.0,1.0,0.0,-1.0,-2.0,1650823936926639.0
1.0,2.0,5.0,8.0,2.0,-1.0,2.0,4.0,1650823936941792.0
1.0,2.0,-3.0,-5.0,0.0,1.0,0.0,0.0,1650823936941792.0
-1.0,-2.0,-2.0,2.0,4.0,-3.0,-1.0,0.0,1650823936942721.0
0.0,-1.0,8.0,-3.0,-14.0,3.0,-3.0,-1.0,1650823936942721.0
0.0,-2.0,-3.0,-5.0,1.0,-7.0,-1.0,-2.0,1650823936963691.0
-7.0,-2.0,-1.0,7.0,-3.0,-1.0,-1.0,-1.0,1650823936963691.0
1.0,-2.0,-6.0,-11.0,0.0,1.0,0.0,0.0,1650823936965666.0
-2.0,-1.0,2.0,0.0,-3.0,-6.0,-1.0,-1.0,1650823936965666.0
2.0,1.0,3.0,9.0,10.0,5.0,-1.0,1.0,1650823936977627.0
2.0,2.0,4.0,-2.0,0.0,2.0,2.0,1.0,1650823936977627.0
-3.0,0.0,2.0,1.0,7.0,0.0,-2.0,-3.0,1650823936986611.0
-2.0,-2.0,-5.0,0.0,-8.0,6.0,1.0,-1.0,1650823936986611.0
0.0,-3.0,-4.0,-5.0,-7.0,-4.0,-1.0,0.0,1650823937001563.0
-1.0,-2.0,1.0,-2.0,2.0,-7.0,-5.0,0.0,1650823937001563.0
3.0,3.0,1.0,2.0,0.0,3.0,0.0,0.0,1650823937003559.0
-5.0,0.0,4.0,1.0,13.0,4.0,5.0,-1.0,1650823937003559.0
0.0,-2.0,-1.0,1.0,-4.0,-3.0,-3.0,-1.0,1650823937024499.0
1.0,0.0,-1.0,-2.0,-8.0,13.0,0.0,-1.0,1650823937024499.0
-2.0,-1.0,2.0,0.0,7.0,-3.0,1.0,0.0,1650823937025499.0
1.0,-1.0,-3.0,-1.0,-9.0,-11.0,-2.0,-2.0,1650823937025499.0
3.0,0.0,-2.0,-4.0,1.0,-6.0,-3.0,-1.0,1650823937037476.0
-6.0,-3.0,0.0,1.0,-8.0,-4.0,0.0,-2.0,1650823937037476.0
8.0,-1.0,4.0,5.0,3.0,7.0,2.0,1.0,1650823937046516.0
1.0,1.0,-4.0,4.0,11.0,4.0,-1.0,1.0,1650823937046516.0
-5.0,-2.0,3.0,1.0,-2.0,1.0,1.0,0.0,1650823937061694.0
1.0,2.0,7.0,-7.0,0.0,-6.0,-5.0,-1.0,1650823937061694.0
-3.0,-4.0,1.0,-2.0,-14.0,4.0,0.0,-2.0,1650823937063650.0
-4.0,1.0,-3.0,-7.0,2.0,-3.0,2.0,-1.0,1650823937063650.0
0.0,-1.0,2.0,4.0,5.0,3.0,1.0,1.0,1650823937083759.0
3.0,4.0,7.0,6.0,5.0,1.0,0.0,-1.0,1650823937083759.0
-4.0,-1.0,-1.0,-1.0,6.0,-2.0,-2.0,-3.0,1650823937085689.0
1.0,-3.0,-1.0,-6.0,-14.0,-4.0,-5.0,-2.0,1650823937085689.0
-4.0,-1.0,-5.0,-9.0,-14.0,2.0,-4.0,-3.0,1650823937097722.0
2.0,2.0,2.0,2.0,7.0,-3.0,6.0,4.0,1650823937097722.0
-3.0,4.0,2.0,5.0,8.0,2.0,0.0,2.0,1650823937106631.0
13.0,3.0,1.0,6.0,12.0,5.0,5.0,3.0,1650823937106631.0
-10.0,-3.0,-3.0,-3.0,3.0,3.0,-2.0,2.0,1650823937122589.0
-6.0,-4.0,-3.0,-2.0,-16.0,-5.0,-1.0,-4.0,1650823937122589.0
0.0,0.0,-13.0,-11.0,-19.0,-2.0,-1.0,-2.0,1650823937123587.0
-6.0,-6.0,-6.0,-4.0,-1.0,-4.0,0.0,-2.0,1650823937123587.0
3.0,-1.0,7.0,6.0,5.0,4.0,3.0,3.0,1650823937143560.0
4.0,1.0,-3.0,4.0,10.0,7.0,-3.0,2.0,1650823937143560.0
2.0,2.0,11.0,0.0,-9.0,-13.0,-3.0,-3.0,1650823937150542.0
0.0,0.0,-4.0,0.0,-7.0,-5.0,-4.0,5.0,1650823937150542.0
-2.0,-5.0,-7.0,-9.0,-7.0,-8.0,-5.0,-4.0,1650823937166499.0
-2.0,-4.0,1.0,-3.0,-1.0,6.0,-1.0,-4.0,1650823937166499.0
0.0,0.0,2.0,6.0,13.0,-1.0,3.0,2.0,1650823937168466.0
1.0,-1.0,3.0,-3.0,-11.0,-1.0,-2.0,-2.0,1650823937168466.0
-3.0,1.0,-2.0,8.0,8.0,1.0,2.0,-1.0,1650823937189476.0
4.0,-2.0,-4.0,0.0,8.0,7.0,1.0,-1.0,1650823937189476.0
0.0,3.0,-5.0,-6.0,3.0,3.0,-4.0,0.0,1650823937190415.0
-5.0,-3.0,0.0,8.0,-7.0,1.0,4.0,-1.0,1650823937190415.0
-2.0,1.0,3.0,-9.0,-6.0,-4.0,-1.0,-2.0,1650823937203383.0
4.0,1.0,-3.0,-1.0,2.0,-5.0,-2.0,0.0,1650823937203383.0
3.0,5.0,0.0,-1.0,-11.0,-8.0,-4.0,-1.0,1650823937210415.0
3.0,-7.0,-2.0,-3.0,4.0,0.0,-4.0,-2.0,1650823937210415.0
-8.0,-3.0,-3.0,-1.0,0.0,13.0,0.0,-4.0,1650823937226549.0
-4.0,-2.0,7.0,4.0,-4.0,-18.0,2.0,-1.0,1650823937226549.0
2.0,2.0,1.0,8.0,14.0,11.0,8.0,12.0,1650823937228477.0
-1.0,7.0,7.0,7.0,4.0,2.0,-2.0,-16.0,1650823937228477.0
2.0,-2.0,-4.0,-6.0,-11.0,-1.0,-5.0,-2.0,1650823937248546.0
-1.0,-9.0,-9.0,-18.0,-9.0,-8.0,1.0,0.0,1650823937248546.0
-5.0,2.0,6.0,11.0,-4.0,7.0,-5.0,-1.0,1650823937250516.0
2.0,-1.0,0.0,1.0,14.0,5.0,1.0,2.0,1650823937250516.0
1.0,2.0,-9.0,1.0,0.0,-3.0,2.0,2.0,1650823937262548.0
7.0,5.0,2.0,0.0,10.0,-2.0,-4.0,-3.0,1650823937262548.0
-11.0,-4.0,-10.0,-11.0,-29.0,-8.0,-1.0,-3.0,1650823937277504.0
-1.0,0.0,9.0,2.0,7.0,7.0,0.0,2.0,1650823937277504.0
10.0,5.0,3.0,12.0,8.0,1.0,4.0,3.0,1650823937286524.0
-2.0,4.0,1.0,4.0,8.0,3.0,2.0,3.0,1650823937286524.0
-21.0,-8.0,-2.0,11.0,9.0,-1.0,-4.0,-10.0,1650823937288539.0
-3.0,-9.0,-10.0,-15.0,-10.0,-1.0,-6.0,-3.0,1650823937288539.0
0.0,-3.0,-9.0,-11.0,-7.0,-11.0,0.0,-1.0,1650823937309460.0
10.0,17.0,6.0,1.0,0.0,11.0,9.0,12.0,1650823937309460.0
48.0,42.0,24.0,10.0,9.0,6.0,14.0,53.0,1650823937310482.0
-29.0,-58.0,-11.0,-16.0,-20.0,-24.0,-26.0,-79.0,1650823937310482.0
-9.0,0.0,-5.0,-1.0,-3.0,-4.0,-7.0,-17.0,1650823937322494.0
-16.0,17.0,-14.0,-9.0,-10.0,3.0,-3.0,-11.0,1650823937322494.0
0.0,-17.0,3.0,1.0,22.0,-2.0,-3.0,8.0,1650823937331404.0
29.0,35.0,10.0,16.0,-5.0,18.0,12.0,13.0,1650823937331404.0
-35.0,-32.0,-8.0,-7.0,-10.0,-18.0,-12.0,-22.0,1650823937346513.0
3.0,14.0,16.0,4.0,3.0,-5.0,-1.0,-7.0,1650823937346513.0
-5.0,-10.0,-15.0,-6.0,-7.0,0.0,4.0,-16.0,1650823937348509.0
13.0,7.0,-6.0,-2.0,7.0,-2.0,-1.0,29.0,1650823937348509.0
17.0,34.0,9.0,7.0,11.0,14.0,6.0,7.0,1650823937369452.0
5.0,-25.0,-3.0,3.0,-1.0,6.0,7.0,13.0,1650823937369452.0
-35.0,-18.0,-2.0,-13.0,-9.0,-9.0,-7.0,-4.0,1650823937370451.0
-19.0,6.0,-6.0,-7.0,3.0,4.0,4.0,18.0,1650823937370451.0
48.0,29.0,19.0,9.0,-1.0,-1.0,-5.0,-14.0,1650823937382484.0
-67.0,3.0,-23.0,1.0,1.0,-6.0,-11.0,-9.0,1650823937382484.0
46.0,-22.0,3.0,-6.0,-4.0,6.0,15.0,46.0,1650823937399373.0
-9.0,-12.0,10.0,7.0,6.0,-8.0,18.0,-8.0,1650823937399373.0
59.0,41.0,11.0,10.0,1.0,5.0,-21.0,-24.0,1650823937406359.0
-11.0,28.0,-5.0,-11.0,-3.0,0.0,2.0,-10.0,1650823937406359.0
-23.0,-43.0,30.0,13.0,6.0,-4.0,-15.0,-41.0,1650823937408349.0
-12.0,6.0,-48.0,-23.0,-7.0,14.0,16.0,36.0,1650823937408349.0
-30.0,-81.0,-13.0,-27.0,-11.0,-14.0,17.0,37.0,1650823937429358.0
-2.0,16.0,-4.0,7.0,-6.0,-3.0,-20.0,-25.0,1650823937429358.0
20.0,43.0,10.0,-10.0,-8.0,-4.0,0.0,28.0,1650823937430290.0
42.0,-3.0,-6.0,6.0,9.0,7.0,-22.0,-85.0,1650823937430290.0
17.0,26.0,16.0,19.0,12.0,15.0,52.0,78.0,1650823937443275.0
-31.0,-38.0,7.0,-11.0,-6.0,-7.0,-50.0,-30.0,1650823937443275.0
-63.0,-21.0,-50.0,-17.0,-16.0,-27.0,-47.0,-40.0,1650823937452231.0
-50.0,-6.0,4.0,0.0,-1.0,-9.0,-20.0,-17.0,1650823937452231.0
-75.0,-68.0,-13.0,-3.0,0.0,10.0,20.0,-10.0,1650823937465938.0
89.0,1.0,17.0,16.0,5.0,-3.0,9.0,2.0,1650823937465938.0
-23.0,29.0,24.0,12.0,12.0,24.0,41.0,-10.0,1650823937472966.0
-23.0,-38.0,-7.0,17.0,-7.0,-14.0,-8.0,60.0,1650823937472966.0
-14.0,-5.0,-45.0,-33.0,2.0,-8.0,-39.0,-42.0,1650823937488934.0
-33.0,-118.0,-57.0,-41.0,-18.0,-7.0,4.0,21.0,1650823937488934.0
57.0,72.0,-7.0,4.0,-7.0,4.0,-3.0,-6.0,1650823937490854.0
-1.0,30.0,49.0,6.0,0.0,3.0,12.0,34.0,1650823937490854.0
41.0,15.0,-18.0,2.0,4.0,8.0,30.0,52.0,1650823937502823.0
-10.0,9.0,-4.0,5.0,-2.0,-1.0,1.0,-25.0,1650823937502823.0
55.0,9.0,-11.0,10.0,18.0,18.0,40.0,37.0,1650823937517809.0
-26.0,19.0,12.0,-9.0,-17.0,-4.0,-7.0,31.0,1650823937517809.0
24.0,-22.0,12.0,7.0,7.0,-5.0,-36.0,-72.0,1650823937526905.0
9.0,-25.0,7.0,-9.0,-15.0,-4.0,-42.0,-9.0,1650823937526905.0
-42.0,51.0,54.0,21.0,-3.0,-14.0,72.0,27.0,1650823937527884.0
-18.0,-81.0,-38.0,28.0,30.0,4.0,-6.0,-20.0,1650823937527884.0
50.0,50.0,51.0,7.0,5.0,-9.0,-48.0,-19.0,1650823937547901.0
-76.0,-80.0,-31.0,0.0,5.0,10.0,-21.0,-41.0,1650823937547901.0
15.0,-30.0,-5.0,-25.0,-12.0,-3.0,3.0,66.0,1650823937556878.0
45.0,94.0,0.0,-14.0,-28.0,-19.0,15.0,0.0,1650823937556878.0
-25.0,1.0,14.0,40.0,-2.0,13.0,28.0,34.0,1650823937562889.0
78.0,121.0,-5.0,-38.0,19.0,6.0,17.0,16.0,1650823937562889.0
-60.0,-90.0,23.0,-3.0,-12.0,2.0,-17.0,-3.0,1650823937571838.0
24.0,116.0,54.0,-6.0,0.0,-8.0,24.0,5.0,1650823937571838.0
-19.0,-77.0,-32.0,3.0,-8.0,2.0,-12.0,-27.0,1650823937585800.0
-3.0,50.0,13.0,19.0,2.0,-7.0,29.0,80.0,1650823937585800.0
-7.0,0.0,-8.0,12.0,6.0,-4.0,-39.0,-61.0,1650823937592850.0
79.0,26.0,-36.0,4.0,6.0,2.0,-14.0,-19.0,1650823937592850.0
-112.0,-85.0,-2.0,-14.0,-13.0,-3.0,13.0,-67.0,1650823937608766.0
40.0,17.0,-51.0,-19.0,-3.0,-2.0,-13.0,21.0,1650823937608766.0
117.0,51.0,5.0,-5.0,-2.0,-14.0,-11.0,6.0,1650823937610734.0
-57.0,-111.0,-6.0,-2.0,-7.0,-2.0,1.0,6.0,1650823937610734.0
-18.0,97.0,29.0,7.0,-7.0,2.0,19.0,49.0,1650823937631707.0
7.0,3.0,43.0,21.0,11.0,-4.0,-14.0,-84.0,1650823937631707.0
-14.0,2.0,-30.0,-9.0,-8.0,1.0,-33.0,-4.0,1650823937632696.0
-2.0,-2.0,9.0,-5.0,1.0,-13.0,-30.0,-32.0,1650823937632696.0
36.0,7.0,-31.0,-10.0,0.0,-3.0,19.0,42.0,1650823937645714.0
-3.0,-29.0,43.0,14.0,14.0,9.0,32.0,45.0,1650823937645714.0
-5.0,4.0,-4.0,-10.0,-10.0,4.0,18.0,13.0,1650823937652659.0
-34.0,-9.0,-35.0,-25.0,6.0,12.0,11.0,-1.0,1650823937652659.0
-13.0,-51.0,-61.0,-36.0,-8.0,3.0,-12.0,-8.0,1650823937676633.0
60.0,56.0,22.0,44.0,11.0,17.0,35.0,64.0,1650823937676633.0
-98.0,-88.0,-33.0,-15.0,-6.0,-20.0,-60.0,-89.0,1650823937678585.0
62.0,57.0,15.0,-6.0,1.0,12.0,22.0,41.0,1650823937678585.0
44.0,71.0,25.0,17.0,1.0,-3.0,-8.0,0.0,1650823937691588.0
-22.0,-37.0,-31.0,-9.0,-12.0,-15.0,18.0,10.0,1650823937691588.0
-2.0,44.0,21.0,18.0,11.0,14.0,6.0,-24.0,1650823937693545.0
32.0,15.0,1.0,3.0,0.0,9.0,-44.0,78.0,1650823937693545.0
-26.0,2.0,-1.0,-11.0,-1.0,-18.0,-39.0,-77.0,1650823937706554.0
-1.0,3.0,-25.0,1.0,-7.0,-7.0,13.0,-5.0,1650823937706554.0
-1.0,-109.0,-24.0,-6.0,0.0,0.0,-3.0,-5.0,1650823937708510.0
-22.0,-90.0,-2.0,-8.0,-8.0,-6.0,15.0,3.0,1650823937708510.0
25.0,39.0,3.0,25.0,16.0,14.0,21.0,45.0,1650823937728608.0
15.0,102.0,44.0,10.0,6.0,10.0,-20.0,-8.0,1650823937728608.0
46.0,-32.0,-29.0,-65.0,-26.0,-1.0,23.0,13.0,1650823937730558.0
-41.0,-52.0,-72.0,-32.0,-2.0,4.0,3.0,-28.0,1650823937730558.0
5.0,19.0,30.0,22.0,13.0,7.0,22.0,37.0,1650823937750510.0
66.0,68.0,73.0,28.0,-5.0,-18.0,-20.0,-19.0,1650823937750510.0
-45.0,20.0,-75.0,-41.0,-7.0,-6.0,-6.0,-29.0,1650823937751481.0
-5.0,13.0,25.0,24.0,10.0,4.0,16.0,12.0,1650823937751481.0
-35.0,43.0,-2.0,-34.0,-25.0,-7.0,2.0,-15.0,1650823937766448.0
70.0,-31.0,-2.0,4.0,-5.0,-4.0,-12.0,-16.0,1650823937766448.0
33.0,69.0,25.0,26.0,13.0,-3.0,43.0,60.0,1650823937766448.0
-104.0,-119.0,-7.0,-2.0,8.0,12.0,-18.0,-43.0,1650823937766448.0
-1.0,29.0,14.0,-1.0,-14.0,-33.0,-51.0,-76.0,1650823937788383.0
0.0,14.0,0.0,1.0,-1.0,4.0,-5.0,0.0,1650823937788383.0
-15.0,-61.0,-37.0,6.0,11.0,11.0,23.0,-11.0,1650823937789380.0
48.0,123.0,71.0,49.0,16.0,12.0,-2.0,-19.0,1650823937789380.0
7.0,-116.0,-14.0,-34.0,-9.0,2.0,18.0,56.0,1650823937810921.0
-46.0,-34.0,-18.0,-4.0,-10.0,-6.0,0.0,-5.0,1650823937810921.0
-5.0,-8.0,-5.0,-2.0,2.0,2.0,-23.0,-24.0,1650823937811921.0
-25.0,12.0,-3.0,9.0,-4.0,-14.0,9.0,-13.0,1650823937811921.0
-8.0,19.0,-16.0,-14.0,-11.0,3.0,-2.0,4.0,1650823937825951.0
-20.0,-29.0,-12.0,-21.0,22.0,20.0,22.0,14.0,1650823937825951.0
29.0,73.0,32.0,19.0,7.0,3.0,-8.0,5.0,1650823937826881.0
15.0,-58.0,19.0,18.0,-18.0,-5.0,-6.0,-16.0,1650823937826881.0
-13.0,29.0,18.0,5.0,12.0,12.0,33.0,42.0,1650823937848861.0
-28.0,-43.0,-22.0,-13.0,-4.0,-8.0,-10.0,-77.0,1650823937848861.0
-35.0,49.0,43.0,26.0,2.0,-4.0,0.0,27.0,1650823937848861.0
8.0,-9.0,-23.0,-19.0,-4.0,-8.0,0.0,-52.0,1650823937848861.0
31.0,-11.0,0.0,9.0,-6.0,-15.0,-69.0,-11.0,1650823937870764.0
-63.0,20.0,19.0,20.0,7.0,6.0,7.0,15.0,1650823937870764.0
38.0,-1.0,-3.0,-20.0,-7.0,-5.0,13.0,15.0,1650823937871761.0
-31.0,-45.0,-14.0,-31.0,-14.0,-8.0,-8.0,-33.0,1650823937871761.0
-1.0,-3.0,24.0,16.0,2.0,6.0,27.0,14.0,1650823937885751.0
31.0,4.0,26.0,10.0,3.0,8.0,-4.0,16.0,1650823937885751.0
0.0,-44.0,-71.0,4.0,-3.0,-14.0,-23.0,-9.0,1650823937886721.0
0.0,9.0,-2.0,-23.0,-1.0,0.0,4.0,28.0,1650823937886721.0
18.0,-11.0,-23.0,-1.0,10.0,11.0,19.0,17.0,1650823937908724.0
-58.0,4.0,26.0,16.0,2.0,0.0,0.0,-6.0,1650823937908724.0
-6.0,-24.0,-3.0,-8.0,-1.0,6.0,-3.0,19.0,1650823937908724.0
69.0,31.0,-5.0,-12.0,-3.0,4.0,16.0,1.0,1650823937908724.0
29.0,16.0,-9.0,10.0,12.0,-1.0,17.0,27.0,1650823937930631.0
-16.0,-49.0,-17.0,-12.0,-20.0,-14.0,-14.0,-13.0,1650823937930631.0
9.0,18.0,34.0,22.0,5.0,9.0,18.0,32.0,1650823937931614.0
-10.0,32.0,-18.0,4.0,6.0,-13.0,-37.0,-29.0,1650823937931614.0
49.0,14.0,13.0,11.0,29.0,15.0,-1.0,-35.0,1650823937954541.0
23.0,31.0,-17.0,-28.0,-38.0,-12.0,-12.0,13.0,1650823937954541.0
-5.0,5.0,44.0,15.0,-3.0,6.0,57.0,-7.0,1650823937954541.0
-23.0,-26.0,-40.0,-9.0,12.0,-2.0,-65.0,-12.0,1650823937954541.0
25.0,59.0,50.0,35.0,11.0,11.0,14.0,17.0,1650823937968530.0
-34.0,-85.0,-56.0,-49.0,-7.0,-4.0,10.0,7.0,1650823937968530.0
-10.0,-63.0,-37.0,7.0,-16.0,-11.0,-17.0,-32.0,1650823937969500.0
39.0,58.0,20.0,-11.0,-8.0,2.0,28.0,28.0,1650823937969500.0
-56.0,-24.0,2.0,17.0,10.0,8.0,-7.0,-10.0,1650823937991507.0
37.0,73.0,22.0,5.0,22.0,22.0,13.0,23.0,1650823937991507.0
-23.0,-54.0,12.0,8.0,-1.0,1.0,-8.0,1.0,1650823937992438.0
-13.0,3.0,-2.0,-15.0,-13.0,-14.0,-7.0,10.0,1650823937992438.0
-6.0,-18.0,-28.0,-10.0,-14.0,-13.0,-35.0,-61.0,1650823938005403.0
25.0,5.0,15.0,5.0,3.0,2.0,34.0,26.0,1650823938005403.0
3.0,0.0,-23.0,4.0,11.0,3.0,-23.0,-43.0,1650823938013382.0
33.0,-3.0,27.0,25.0,9.0,3.0,32.0,34.0,1650823938013382.0
-8.0,-19.0,-22.0,-29.0,-16.0,-22.0,-41.0,-58.0,1650823938028409.0
-5.0,15.0,7.0,13.0,2.0,-1.0,-6.0,3.0,1650823938028409.0
11.0,47.0,15.0,-7.0,3.0,4.0,2.0,-15.0,1650823938029339.0
29.0,41.0,14.0,14.0,9.0,20.0,-33.0,-44.0,1650823938029339.0
-17.0,-39.0,-17.0,-5.0,-12.0,-14.0,-6.0,2.0,1650823938050429.0
-20.0,-59.0,-18.0,3.0,-3.0,-9.0,9.0,13.0,1650823938050429.0
18.0,73.0,51.0,4.0,10.0,2.0,-13.0,21.0,1650823938051414.0
23.0,-9.0,1.0,8.0,0.0,11.0,26.0,19.0,1650823938051414.0
-15.0,36.0,32.0,-16.0,2.0,8.0,24.0,33.0,1650823938065362.0
-16.0,-27.0,-15.0,-18.0,-29.0,-17.0,-28.0,-31.0,1650823938065362.0
22.0,16.0,3.0,-3.0,9.0,1.0,-2.0,10.0,1650823938073423.0
65.0,103.0,46.0,36.0,9.0,17.0,36.0,28.0,1650823938073423.0
-18.0,-101.0,-29.0,-6.0,6.0,1.0,-14.0,-34.0,1650823938088386.0
-11.0,20.0,23.0,10.0,11.0,10.0,30.0,54.0,1650823938088386.0
17.0,10.0,-17.0,-2.0,-10.0,-12.0,-36.0,-39.0,1650823938089395.0
6.0,-8.0,16.0,2.0,3.0,-8.0,-14.0,-37.0,1650823938089395.0
-9.0,0.0,-16.0,-5.0,-8.0,11.0,26.0,46.0,1650823938111385.0
20.0,-24.0,-15.0,-6.0,-1.0,-7.0,13.0,39.0,1650823938111385.0
-21.0,45.0,6.0,8.0,6.0,8.0,10.0,31.0,1650823938112321.0
-48.0,-36.0,-36.0,-9.0,2.0,-6.0,-26.0,-2.0,1650823938112321.0
15.0,7.0,-6.0,-10.0,-6.0,-6.0,-9.0,-40.0,1650823938125689.0
4.0,33.0,48.0,40.0,9.0,2.0,1.0,1.0,1650823938125689.0
-4.0,-3.0,-26.0,-13.0,3.0,8.0,13.0,25.0,1650823938133627.0
-23.0,-36.0,-7.0,-18.0,-17.0,-10.0,18.0,47.0,1650823938133627.0
-30.0,6.0,-7.0,-4.0,-7.0,-9.0,-6.0,12.0,1650823938148638.0
24.0,-19.0,-38.0,-22.0,3.0,12.0,-1.0,-8.0,1650823938148638.0
7.0,2.0,41.0,26.0,-6.0,-8.0,-13.0,-6.0,1650823938149634.0
-21.0,20.0,2.0,-22.0,0.0,-1.0,6.0,-11.0,1650823938149634.0
1.0,-17.0,-52.0,-3.0,-7.0,-5.0,-19.0,-20.0,1650823938170705.0
-9.0,18.0,-2.0,4.0,6.0,8.0,-1.0,-28.0,1650823938170705.0
3.0,-45.0,-28.0,-19.0,-9.0,-13.0,9.0,36.0,1650823938171716.0
2.0,-33.0,8.0,2.0,-7.0,-2.0,10.0,-7.0,1650823938171716.0
61.0,36.0,41.0,13.0,-2.0,-1.0,23.0,66.0,1650823938185669.0
-57.0,11.0,-23.0,-13.0,23.0,-3.0,-51.0,-85.0,1650823938185669.0
20.0,15.0,22.0,26.0,-13.0,7.0,-7.0,-1.0,1650823938193671.0
55.0,28.0,-23.0,-21.0,0.0,7.0,33.0,54.0,1650823938193671.0
-62.0,-1.0,28.0,14.0,9.0,10.0,1.0,-23.0,1650823938209454.0
41.0,9.0,2.0,-2.0,-9.0,-7.0,-11.0,39.0,1650823938209454.0
-27.0,-25.0,8.0,-3.0,10.0,-2.0,1.0,-28.0,1650823938210465.0
-17.0,-50.0,-21.0,11.0,6.0,2.0,-7.0,-21.0,1650823938210465.0
42.0,54.0,2.0,23.0,4.0,7.0,23.0,20.0,1650823938230907.0
-23.0,-11.0,-25.0,-55.0,-19.0,-13.0,-10.0,-4.0,1650823938230907.0
-9.0,-17.0,1.0,1.0,0.0,-4.0,-9.0,-25.0,1650823938231838.0
0.0,20.0,0.0,11.0,-6.0,-1.0,5.0,36.0,1650823938231838.0
13.0,-9.0,-9.0,-7.0,2.0,1.0,5.0,8.0,1650823938244803.0
-23.0,26.0,-7.0,3.0,-4.0,4.0,14.0,3.0,1650823938244803.0
3.0,-12.0,-5.0,-11.0,-3.0,-2.0,2.0,22.0,1650823938253778.0
-38.0,-5.0,-5.0,7.0,2.0,-6.0,-10.0,-39.0,1650823938253778.0
3.0,27.0,26.0,14.0,3.0,4.0,11.0,46.0,1650823938268738.0
-32.0,-36.0,-5.0,16.0,1.0,-5.0,-10.0,-47.0,1650823938268738.0
27.0,19.0,-4.0,-13.0,0.0,14.0,36.0,33.0,1650823938268738.0
-18.0,-9.0,-1.0,0.0,-13.0,-22.0,-70.0,-38.0,1650823938268738.0
-7.0,13.0,5.0,-3.0,7.0,0.0,13.0,-53.0,1650823938290794.0
40.0,9.0,22.0,8.0,3.0,8.0,18.0,42.0,1650823938290794.0
1.0,34.0,-4.0,-3.0,4.0,4.0,3.0,0.0,1650823938291794.0
-14.0,-30.0,-7.0,1.0,-1.0,-2.0,4.0,2.0,1650823938291794.0
9.0,4.0,2.0,-5.0,-2.0,-5.0,-4.0,-1.0,1650823938304758.0
25.0,20.0,6.0,-2.0,-11.0,8.0,14.0,10.0,1650823938304758.0
-10.0,-8.0,39.0,20.0,-11.0,-16.0,-26.0,-29.0,1650823938313802.0
39.0,54.0,9.0,8.0,24.0,17.0,20.0,10.0,1650823938313802.0
-55.0,-16.0,-28.0,-62.0,-10.0,-1.0,-12.0,-20.0,1650823938328762.0
-9.0,-57.0,-28.0,32.0,0.0,-6.0,9.0,13.0,1650823938328762.0
-21.0,22.0,-39.0,-30.0,1.0,-1.0,-12.0,-24.0,1650823938328762.0
3.0,-20.0,14.0,3.0,-5.0,-4.0,11.0,2.0,1650823938328762.0
11.0,38.0,24.0,23.0,14.0,26.0,38.0,89.0,1650823938350783.0
-1.0,-19.0,1.0,-11.0,-5.0,-15.0,-36.0,-56.0,1650823938350783.0
32.0,11.0,17.0,7.0,-1.0,8.0,39.0,32.0,1650823938351753.0
-5.0,1.0,2.0,2.0,2.0,-12.0,-49.0,-54.0,1650823938351753.0
-30.0,-20.0,-17.0,-7.0,-3.0,-3.0,19.0,7.0,1650823938364718.0
32.0,-28.0,-1.0,4.0,3.0,4.0,19.0,50.0,1650823938364718.0
-15.0,6.0,16.0,6.0,5.0,0.0,-28.0,-20.0,1650823938373715.0
-77.0,-61.0,-14.0,-18.0,-6.0,-3.0,11.0,-43.0,1650823938373715.0
33.0,-23.0,3.0,2.0,-15.0,-13.0,-25.0,-16.0,1650823938388674.0
-35.0,8.0,8.0,17.0,4.0,0.0,9.0,2.0,1650823938388674.0
10.0,4.0,-12.0,-16.0,6.0,7.0,4.0,-2.0,1650823938388674.0
27.0,21.0,8.0,-1.0,-7.0,4.0,19.0,32.0,1650823938388674.0
-25.0,-12.0,-39.0,-17.0,6.0,0.0,13.0,21.0,1650823938410615.0
44.0,-26.0,14.0,-1.0,-2.0,-2.0,-3.0,-10.0,1650823938410615.0
3.0,-27.0,-55.0,8.0,13.0,5.0,-3.0,10.0,1650823938411595.0
-1.0,16.0,-25.0,-20.0,-11.0,-2.0,12.0,14.0,1650823938411595.0
36.0,36.0,40.0,25.0,2.0,1.0,-16.0,-21.0,1650823938425555.0
-15.0,15.0,-7.0,-9.0,-2.0,4.0,-3.0,-28.0,1650823938425555.0
-4.0,-12.0,3.0,8.0,-3.0,-6.0,-15.0,-11.0,1650823938433555.0
23.0,59.0,36.0,19.0,9.0,4.0,15.0,2.0,1650823938433555.0
-26.0,-81.0,-29.0,-15.0,-14.0,-9.0,-26.0,-28.0,1650823938448494.0
10.0,43.0,7.0,-7.0,-3.0,4.0,4.0,37.0,1650823938448494.0
-3.0,-6.0,12.0,6.0,4.0,-6.0,-32.0,-19.0,1650823938449492.0
-14.0,-3.0,-2.0,4.0,0.0,-1.0,15.0,-5.0,1650823938449492.0
23.0,41.0,29.0,-4.0,-3.0,-8.0,-28.0,-26.0,1650823938470474.0
-24.0,-19.0,-5.0,1.0,-3.0,-2.0,0.0,-19.0,1650823938470474.0
-18.0,-18.0,5.0,10.0,5.0,9.0,9.0,-3.0,1650823938471433.0
54.0,18.0,-11.0,-12.0,-2.0,6.0,21.0,62.0,1650823938471433.0
-49.0,-69.0,-59.0,-2.0,2.0,5.0,11.0,9.0,1650823938485683.0
2.0,-5.0,16.0,-13.0,-8.0,-15.0,-19.0,-9.0,1650823938485683.0
-23.0,12.0,-20.0,-38.0,-17.0,-4.0,-13.0,-20.0,1650823938493932.0
10.0,41.0,25.0,30.0,15.0,3.0,6.0,21.0,1650823938493932.0
-15.0,-86.0,18.0,20.0,9.0,9.0,-1.0,-22.0,1650823938509363.0
-7.0,25.0,-18.0,-10.0,3.0,6.0,21.0,10.0,1650823938509363.0
12.0,-3.0,2.0,-7.0,-10.0,-12.0,-10.0,-17.0,1650823938509363.0
-44.0,-21.0,-20.0,-21.0,-11.0,-6.0,-10.0,-12.0,1650823938509363.0
52.0,85.0,19.0,11.0,-1.0,-1.0,10.0,65.0,1650823938530744.0
-32.0,-21.0,-20.0,5.0,9.0,9.0,0.0,-8.0,1650823938530744.0
19.0,-18.0,2.0,-2.0,-2.0,-1.0,16.0,-11.0,1650823938531674.0
-25.0,-15.0,5.0,8.0,4.0,0.0,-4.0,32.0,1650823938531674.0
59.0,-3.0,13.0,3.0,8.0,-4.0,-19.0,-11.0,1650823938545761.0
11.0,13.0,-20.0,-3.0,1.0,8.0,10.0,12.0,1650823938545761.0
-40.0,-29.0,10.0,28.0,6.0,-5.0,-11.0,-18.0,1650823938553800.0
27.0,-39.0,4.0,-6.0,8.0,4.0,-5.0,8.0,1650823938553800.0
-33.0,12.0,-13.0,-23.0,-20.0,-9.0,2.0,-16.0,1650823938568848.0
35.0,30.0,7.0,5.0,-3.0,4.0,17.0,24.0,1650823938568848.0
-25.0,-67.0,2.0,4.0,10.0,-7.0,-40.0,-45.0,1650823938568848.0
17.0,29.0,13.0,19.0,-1.0,0.0,0.0,-35.0,1650823938568848.0
4.0,-33.0,-66.0,-38.0,-9.0,-10.0,-17.0,-39.0,1650823938590906.0
-9.0,8.0,-11.0,-4.0,1.0,-4.0,8.0,37.0,1650823938590906.0
32.0,56.0,40.0,11.0,-14.0,-2.0,23.0,49.0,1650823938591906.0
-22.0,-77.0,-9.0,-1.0,4.0,1.0,-15.0,-33.0,1650823938591906.0
16.0,23.0,26.0,13.0,9.0,8.0,13.0,17.0,1650823938614607.0
-3.0,18.0,13.0,6.0,0.0,-10.0,-44.0,-66.0,1650823938614607.0
0.0,13.0,-5.0,-17.0,-2.0,-1.0,13.0,35.0,1650823938614607.0
-7.0,-30.0,-21.0,2.0,-4.0,2.0,24.0,39.0,1650823938614607.0
24.0,59.0,27.0,3.0,-14.0,-17.0,-33.0,-25.0,1650823938628602.0
5.0,-63.0,11.0,16.0,12.0,12.0,21.0,28.0,1650823938628602.0
-44.0,5.0,12.0,4.0,8.0,4.0,4.0,-2.0,1650823938629537.0
16.0,-7.0,-35.0,-59.0,-25.0,-13.0,0.0,-13.0,1650823938629537.0
-17.0,-23.0,18.0,21.0,16.0,8.0,21.0,25.0,1650823938650821.0
-6.0,39.0,24.0,15.0,-4.0,1.0,24.0,41.0,1650823938650821.0
3.0,-6.0,-22.0,-19.0,-9.0,1.0,-3.0,-16.0,1650823938651752.0
-13.0,-29.0,-14.0,-5.0,-5.0,-3.0,3.0,11.0,1650823938651752.0
-3.0,10.0,0.0,-12.0,-2.0,-3.0,-17.0,-43.0,1650823938673805.0
31.0,36.0,5.0,16.0,6.0,-1.0,-3.0,-1.0,1650823938673805.0
14.0,-4.0,-5.0,-2.0,-6.0,5.0,-6.0,-11.0,1650823938674775.0
38.0,41.0,11.0,21.0,15.0,11.0,2.0,6.0,1650823938674775.0
-39.0,-43.0,-37.0,-12.0,-7.0,-23.0,-16.0,-10.0,1650823938688740.0
14.0,10.0,2.0,-9.0,1.0,2.0,-5.0,2.0,1650823938688740.0
-19.0,16.0,2.0,-1.0,-3.0,-3.0,-8.0,-64.0,1650823938688740.0
11.0,22.0,11.0,8.0,-2.0,2.0,-6.0,28.0,1650823938688740.0
14.0,42.0,27.0,20.0,5.0,10.0,16.0,6.0,1650823938711406.0
-6.0,-40.0,-30.0,-18.0,2.0,3.0,20.0,22.0,1650823938711406.0
-12.0,24.0,19.0,3.0,-1.0,-3.0,2.0,18.0,1650823938711406.0
41.0,32.0,12.0,-10.0,1.0,1.0,-5.0,12.0,1650823938711406.0
-11.0,-6.0,3.0,37.0,13.0,17.0,24.0,19.0,1650823938734388.0
-63.0,-41.0,21.0,-26.0,-12.0,-20.0,-35.0,-45.0,1650823938734388.0
12.0,1.0,-30.0,-33.0,-15.0,-3.0,18.0,36.0,1650823938735355.0
-5.0,16.0,23.0,24.0,13.0,-6.0,-6.0,-7.0,1650823938735355.0
-8.0,-29.0,-21.0,-15.0,-15.0,-4.0,10.0,21.0,1650823938748758.0
15.0,31.0,9.0,10.0,-9.0,-4.0,-24.0,-42.0,1650823938748758.0
21.0,-11.0,7.0,21.0,23.0,16.0,19.0,28.0,1650823938748758.0
-8.0,-8.0,-7.0,6.0,12.0,17.0,32.0,-6.0,1650823938748758.0
-36.0,-77.0,-28.0,-16.0,-11.0,-17.0,-56.0,-92.0,1650823938770642.0
18.0,11.0,1.0,-9.0,-5.0,-8.0,-33.0,0.0,1650823938770642.0
-1.0,0.0,-10.0,-10.0,-11.0,-19.0,2.0,53.0,1650823938771639.0
-13.0,5.0,16.0,5.0,-10.0,-7.0,1.0,0.0,1650823938771639.0
7.0,22.0,15.0,7.0,12.0,19.0,26.0,29.0,1650823938794630.0
-10.0,19.0,18.0,8.0,14.0,10.0,3.0,-14.0,1650823938794630.0
-6.0,2.0,-4.0,-1.0,-12.0,1.0,-6.0,2.0,1650823938794630.0
-17.0,-14.0,6.0,22.0,-4.0,-6.0,-11.0,-13.0,1650823938794630.0
5.0,28.0,16.0,-2.0,19.0,10.0,5.0,2.0,1650823938808650.0
51.0,9.0,-25.0,-32.0,-12.0,-3.0,9.0,10.0,1650823938808650.0
-5.0,-29.0,30.0,20.0,12.0,5.0,14.0,17.0,1650823938809581.0
-54.0,-18.0,-70.0,-57.0,-22.0,-13.0,-19.0,-14.0,1650823938809581.0
-13.0,-41.0,10.0,-7.0,-20.0,-22.0,-30.0,-26.0,1650823938830677.0
22.0,7.0,0.0,18.0,14.0,15.0,25.0,15.0,1650823938830677.0
34.0,41.0,17.0,10.0,3.0,-6.0,-16.0,-24.0,1650823938831677.0
1.0,-32.0,21.0,12.0,5.0,3.0,-17.0,-30.0,1650823938831677.0
-45.0,25.0,-1.0,-1.0,-5.0,5.0,7.0,9.0,1650823938853871.0
-26.0,-22.0,3.0,4.0,0.0,0.0,7.0,81.0,1650823938853871.0
49.0,25.0,-6.0,7.0,5.0,-2.0,-20.0,-62.0,1650823938854802.0
-14.0,-23.0,-1.0,-3.0,0.0,-2.0,6.0,30.0,1650823938854802.0
17.0,11.0,-23.0,-5.0,4.0,11.0,18.0,22.0,1650823938868807.0
10.0,61.0,39.0,14.0,10.0,-2.0,-5.0,-9.0,1650823938868807.0
-39.0,-70.0,-29.0,-9.0,-14.0,-9.0,2.0,-9.0,1650823938868807.0
-5.0,22.0,-6.0,-17.0,-7.0,-3.0,-9.0,-27.0,1650823938868807.0
24.0,28.0,24.0,12.0,-3.0,-4.0,14.0,16.0,1650823938890733.0
-13.0,-20.0,-22.0,-12.0,-17.0,2.0,-9.0,-12.0,1650823938890733.0
13.0,25.0,-7.0,6.0,4.0,3.0,12.0,14.0,1650823938891749.0
6.0,23.0,18.0,11.0,17.0,11.0,-11.0,-20.0,1650823938891749.0
4.0,-38.0,-28.0,-9.0,12.0,6.0,8.0,17.0,1650823938913673.0
-3.0,-2.0,2.0,0.0,-4.0,-6.0,-3.0,-28.0,1650823938913673.0
-7.0,-3.0,-11.0,-20.0,-16.0,-12.0,-15.0,-5.0,1650823938914641.0
21.0,54.0,29.0,21.0,6.0,-3.0,15.0,47.0,1650823938914641.0
2.0,-26.0,5.0,-2.0,-10.0,-7.0,-15.0,-5.0,1650823938928668.0
-35.0,-32.0,-15.0,-7.0,-4.0,1.0,-1.0,-33.0,1650823938928668.0
-10.0,-2.0,1.0,-5.0,2.0,2.0,-20.0,-4.0,1650823938929602.0
37.0,13.0,2.0,6.0,2.0,9.0,11.0,16.0,1650823938929602.0
-4.0,36.0,7.0,-1.0,15.0,5.0,23.0,1.0,1650823938950741.0
-9.0,-20.0,-7.0,-3.0,-13.0,-8.0,-19.0,-4.0,1650823938950741.0
-3.0,3.0,4.0,9.0,14.0,12.0,9.0,-29.0,1650823938951712.0
-2.0,-4.0,2.0,0.0,-4.0,-1.0,-8.0,-13.0,1650823938951712.0
16.0,13.0,-1.0,-11.0,-13.0,-12.0,-10.0,6.0,1650823938974660.0
-9.0,-19.0,-4.0,2.0,-3.0,-2.0,14.0,5.0,1650823938974660.0
-3.0,17.0,2.0,-1.0,2.0,5.0,9.0,21.0,1650823938974660.0
-7.0,-11.0,-5.0,-3.0,-9.0,-7.0,-2.0,5.0,1650823938974660.0
0.0,3.0,3.0,-2.0,-10.0,-5.0,2.0,-12.0,1650823938988613.0
1.0,1.0,1.0,6.0,19.0,9.0,7.0,-3.0,1650823938988613.0
8.0,4.0,-4.0,1.0,4.0,4.0,10.0,17.0,1650823938989613.0
-17.0,-13.0,-4.0,-4.0,-10.0,-7.0,-19.0,-24.0,1650823938989613.0
10.0,13.0,9.0,11.0,-2.0,7.0,2.0,18.0,1650823939010615.0
6.0,4.0,-5.0,-13.0,8.0,-1.0,5.0,-4.0,1650823939010615.0
-6.0,-7.0,-10.0,-8.0,-9.0,1.0,-2.0,-3.0,1650823939011551.0
-9.0,-8.0,2.0,2.0,1.0,-5.0,2.0,0.0,1650823939011551.0
6.0,16.0,11.0,11.0,7.0,0.0,-6.0,5.0,1650823939033494.0
2.0,-1.0,4.0,14.0,7.0,4.0,0.0,0.0,1650823939033494.0
-2.0,-3.0,-2.0,4.0,1.0,-5.0,6.0,1.0,1650823939034490.0
-5.0,-2.0,-9.0,-14.0,7.0,2.0,-1.0,3.0,1650823939034490.0
12.0,5.0,5.0,-7.0,-25.0,-8.0,-4.0,0.0,1650823939048452.0
-7.0,-6.0,1.0,-7.0,-5.0,0.0,6.0,14.0,1650823939048452.0
24.0,5.0,24.0,13.0,4.0,2.0,-5.0,-28.0,1650823939049450.0
-44.0,-9.0,-4.0,-3.0,2.0,7.0,0.0,-10.0,1650823939049450.0
1.0,2.0,-4.0,1.0,8.0,-7.0,-6.0,-24.0,1650823939079445.0
30.0,-1.0,8.0,21.0,5.0,-4.0,3.0,31.0,1650823939079445.0
16.0,-2.0,-31.0,-32.0,-10.0,0.0,7.0,9.0,1650823939079445.0
-27.0,-11.0,-11.0,-12.0,-7.0,-5.0,-12.0,-28.0,1650823939079445.0
-7.0,6.0,7.0,2.0,9.0,7.0,-5.0,-3.0,1650823939093408.0
-11.0,-3.0,-2.0,-18.0,-12.0,-2.0,1.0,-18.0,1650823939093408.0
1.0,-1.0,-6.0,-13.0,1.0,-5.0,-1.0,42.0,1650823939094352.0
15.0,9.0,6.0,11.0,6.0,6.0,8.0,7.0,1650823939094352.0
-3.0,-3.0,15.0,20.0,4.0,7.0,2.0,13.0,1650823939108305.0
3.0,-2.0,-14.0,-3.0,-4.0,1.0,-5.0,-16.0,1650823939108305.0
-14.0,3.0,10.0,26.0,9.0,-4.0,2.0,8.0,1650823939109343.0
-8.0,-7.0,-15.0,-12.0,5.0,1.0,8.0,32.0,1650823939109343.0
15.0,-16.0,-68.0,-66.0,-26.0,-17.0,-9.0,-14.0,1650823939130602.0
9.0,-1.0,10.0,9.0,-1.0,-3.0,-12.0,-38.0,1650823939130602.0
-6.0,0.0,-5.0,-13.0,-3.0,10.0,4.0,-3.0,1650823939131533.0
6.0,14.0,50.0,46.0,7.0,3.0,10.0,5.0,1650823939131533.0
10.0,1.0,6.0,2.0,11.0,0.0,3.0,23.0,1650823939153657.0
3.0,-31.0,-40.0,-27.0,2.0,-5.0,-3.0,8.0,1650823939153657.0
-22.0,16.0,15.0,1.0,-11.0,-1.0,-2.0,5.0,1650823939154588.0
20.0,14.0,12.0,13.0,2.0,2.0,1.0,-2.0,1650823939154588.0
3.0,-14.0,-6.0,-8.0,-5.0,-1.0,-1.0,-5.0,1650823939168549.0
-4.0,19.0,6.0,-8.0,-5.0,0.0,0.0,-3.0,1650823939168549.0
-7.0,-9.0,0.0,5.0,5.0,-5.0,-7.0,-9.0,1650823939169548.0
11.0,-12.0,-9.0,5.0,15.0,6.0,0.0,1.0,1650823939169548.0
-1.0,9.0,12.0,5.0,-8.0,2.0,3.0,0.0,1650823939190518.0
-8.0,3.0,-7.0,6.0,1.0,-2.0,-2.0,1.0,1650823939190518.0
9.0,13.0,3.0,21.0,5.0,3.0,10.0,9.0,1650823939191500.0
2.0,-13.0,-26.0,-22.0,-12.0,-9.0,-4.0,-3.0,1650823939191500.0
-3.0,-1.0,24.0,-7.0,1.0,8.0,-4.0,1.0,1650823939213534.0
-12.0,-11.0,-2.0,2.0,-3.0,-16.0,-5.0,-6.0,1650823939213534.0
-1.0,4.0,7.0,14.0,-1.0,-5.0,1.0,4.0,1650823939220611.0
2.0,-3.0,-11.0,-13.0,-11.0,0.0,0.0,-5.0,1650823939220611.0
-4.0,-4.0,-4.0,8.0,6.0,0.0,2.0,-3.0,1650823939227662.0
0.0,11.0,3.0,-1.0,-2.0,9.0,-1.0,5.0,1650823939227662.0
-8.0,-21.0,0.0,-7.0,8.0,3.0,-3.0,-9.0,1650823939235604.0
2.0,8.0,17.0,4.0,-6.0,-10.0,-4.0,3.0,1650823939235604.0
6.0,3.0,1.0,15.0,0.0,3.0,4.0,7.0,1650823939250561.0
3.0,19.0,11.0,9.0,1.0,0.0,3.0,5.0,1650823939250561.0
-12.0,-15.0,-12.0,-13.0,-11.0,-4.0,-3.0,-3.0,1650823939251530.0
0.0,-6.0,30.0,1.0,2.0,3.0,-2.0,-5.0,1650823939251530.0
-7.0,-16.0,-44.0,-6.0,17.0,9.0,0.0,1.0,1650823939273652.0
3.0,9.0,14.0,13.0,6.0,4.0,1.0,1.0,1650823939273652.0
2.0,-8.0,-6.0,0.0,-1.0,-3.0,2.0,0.0,1650823939273652.0
5.0,6.0,-15.0,-10.0,-15.0,-5.0,-2.0,-1.0,1650823939273652.0
0.0,15.0,33.0,7.0,0.0,-4.0,0.0,-2.0,1650823939287636.0
-8.0,-9.0,-4.0,0.0,-1.0,-1.0,-1.0,-3.0,1650823939287636.0
0.0,0.0,-11.0,-8.0,-9.0,-4.0,-7.0,-1.0,1650823939303595.0
-1.0,7.0,-2.0,-8.0,-8.0,0.0,0.0,-2.0,1650823939303595.0
3.0,-8.0,-12.0,8.0,13.0,9.0,3.0,4.0,1650823939310613.0
-12.0,-8.0,5.0,4.0,5.0,4.0,-1.0,-4.0,1650823939310613.0
5.0,20.0,3.0,-10.0,4.0,1.0,-2.0,1.0,1650823939311544.0
-4.0,-37.0,-23.0,-4.0,-14.0,-11.0,-6.0,-7.0,1650823939311544.0
-4.0,3.0,-3.0,1.0,-9.0,-8.0,-2.0,-3.0,1650823939342126.0
3.0,-7.0,-3.0,0.0,-5.0,-3.0,1.0,5.0,1650823939342126.0
2.0,-5.0,-16.0,4.0,8.0,2.0,1.0,1.0,1650823939342126.0
0.0,8.0,-1.0,1.0,4.0,2.0,-2.0,-3.0,1650823939342126.0
3.0,17.0,15.0,3.0,1.0,1.0,2.0,1.0,1650823939358090.0
6.0,6.0,9.0,6.0,0.0,1.0,4.0,5.0,1650823939358090.0
-9.0,-12.0,-5.0,-6.0,-4.0,1.0,-2.0,-5.0,1650823939359102.0
1.0,4.0,-2.0,0.0,-1.0,1.0,-1.0,-1.0,1650823939359102.0
-5.0,-10.0,4.0,2.0,0.0,-3.0,-2.0,-1.0,1650823939371112.0
3.0,10.0,9.0,2.0,0.0,-3.0,-1.0,0.0,1650823939371112.0
3.0,6.0,10.0,5.0,3.0,2.0,0.0,2.0,1650823939372072.0
-3.0,-15.0,-18.0,-4.0,5.0,6.0,1.0,-2.0,1650823939372072.0
-1.0,13.0,8.0,2.0,-3.0,0.0,-1.0,0.0,1650823939393823.0
-7.0,-46.0,-33.0,-10.0,-3.0,-5.0,-4.0,-4.0,1650823939393823.0
0.0,3.0,4.0,3.0,-7.0,5.0,0.0,0.0,1650823939394032.0
-2.0,2.0,4.0,-7.0,-1.0,-14.0,0.0,-3.0,1650823939394032.0
3.0,14.0,-4.0,5.0,6.0,0.0,4.0,3.0,1650823939408001.0
-6.0,-15.0,-11.0,-5.0,0.0,2.0,1.0,-1.0,1650823939408001.0
4.0,2.0,13.0,1.0,4.0,2.0,-3.0,1.0,1650823939415975.0
1.0,7.0,17.0,1.0,-9.0,1.0,-1.0,1.0,1650823939415975.0
-2.0,10.0,6.0,1.0,2.0,-5.0,-4.0,-3.0,1650823939430983.0
7.0,24.0,33.0,5.0,0.0,1.0,3.0,4.0,1650823939430983.0
-1.0,10.0,-3.0,0.0,0.0,-1.0,-2.0,-3.0,1650823939431914.0
-1.0,-5.0,-8.0,0.0,2.0,2.0,-1.0,-1.0,1650823939431914.0
1.0,8.0,4.0,-2.0,-5.0,-2.0,1.0,2.0,1650823939461900.0
-9.0,-22.0,3.0,0.0,-6.0,-2.0,-4.0,-6.0,1650823939461900.0
3.0,5.0,0.0,6.0,5.0,-5.0,1.0,1.0,1650823939462831.0
1.0,5.0,-4.0,-6.0,-2.0,-2.0,-3.0,0.0,1650823939462831.0
-1.0,-3.0,7.0,-3.0,-10.0,-4.0,-2.0,-1.0,1650823939467845.0
2.0,16.0,1.0,7.0,17.0,2.0,4.0,1.0,1650823939467845.0
-1.0,-7.0,-9.0,0.0,-9.0,1.0,2.0,-2.0,1650823939476389.0
-1.0,3.0,-6.0,-3.0,3.0,-3.0,-1.0,-2.0,1650823939476389.0
-2.0,-17.0,-3.0,-3.0,1.0,11.0,2.0,0.0,1650823939491325.0
1.0,10.0,-4.0,-10.0,-8.0,-5.0,1.0,1.0,1650823939491325.0
2.0,1.0,15.0,1.0,-4.0,-11.0,-1.0,2.0,1650823939491325.0
-4.0,4.0,-2.0,2.0,2.0,5.0,-5.0,-4.0,1650823939491325.0
-2.0,-8.0,-10.0,-5.0,-11.0,-4.0,0.0,-1.0,1650823939513930.0
1.0,18.0,-1.0,7.0,1.0,-1.0,0.0,-1.0,1650823939513930.0
1.0,-11.0,1.0,-6.0,3.0,0.0,0.0,-1.0,1650823939513930.0
0.0,-1.0,-11.0,3.0,5.0,4.0,1.0,1.0,1650823939513930.0
-3.0,-6.0,-2.0,-8.0,11.0,1.0,1.0,-1.0,1650823939536935.0
-3.0,7.0,-9.0,-3.0,-17.0,-1.0,-1.0,-2.0,1650823939536935.0
0.0,-19.0,-9.0,-3.0,-2.0,-3.0,-4.0,-1.0,1650823939537866.0
1.0,3.0,14.0,7.0,2.0,0.0,2.0,-1.0,1650823939537866.0
1.0,11.0,1.0,4.0,6.0,-1.0,0.0,2.0,1650823939550861.0
3.0,3.0,7.0,-4.0,1.0,2.0,0.0,-1.0,1650823939550861.0
-1.0,8.0,1.0,-2.0,-1.0,1.0,1.0,-1.0,1650823939551829.0
-2.0,-4.0,-1.0,-3.0,0.0,-1.0,1.0,-2.0,1650823939551829.0
0.0,7.0,7.0,4.0,-1.0,1.0,-1.0,0.0,1650823939572839.0
0.0,-3.0,-2.0,-1.0,-1.0,-3.0,-1.0,-1.0,1650823939572839.0
-2.0,-5.0,10.0,-2.0,1.0,5.0,3.0,-2.0,1650823939580750.0
-5.0,-16.0,-2.0,-7.0,-4.0,-2.0,-3.0,-5.0,1650823939580750.0
-1.0,-1.0,2.0,-1.0,0.0,-13.0,-5.0,0.0,1650823939596736.0
-2.0,1.0,8.0,13.0,-2.0,-1.0,4.0,1.0,1650823939596736.0
-2.0,-14.0,-22.0,-5.0,7.0,11.0,0.0,-1.0,1650823939597706.0
2.0,4.0,7.0,3.0,-5.0,-5.0,-1.0,0.0,1650823939597706.0
0.0,6.0,7.0,2.0,1.0,-1.0,-4.0,-3.0,1650823939610699.0
0.0,-9.0,-24.0,-18.0,-2.0,0.0,-3.0,-2.0,1650823939610699.0
-1.0,10.0,10.0,4.0,-2.0,-6.0,3.0,-1.0,1650823939618649.0
1.0,-6.0,-4.0,0.0,-3.0,5.0,-2.0,3.0,1650823939618649.0
-4.0,-12.0,-8.0,3.0,1.0,-1.0,-1.0,-3.0,1650823939633609.0
-1.0,-5.0,-3.0,6.0,11.0,9.0,2.0,1.0,1650823939633609.0
0.0,3.0,-3.0,-12.0,-8.0,-5.0,0.0,2.0,1650823939634607.0
2.0,8.0,1.0,2.0,1.0,-3.0,-1.0,-1.0,1650823939634607.0
0.0,3.0,10.0,5.0,-1.0,0.0,1.0,0.0,1650823939656549.0
4.0,3.0,8.0,2.0,-2.0,-1.0,-2.0,0.0,1650823939656549.0
-2.0,-9.0,-15.0,-2.0,0.0,0.0,-4.0,-1.0,1650823939657546.0
-2.0,4.0,4.0,2.0,-1.0,-1.0,1.0,0.0,1650823939657546.0
2.0,-1.0,-5.0,2.0,1.0,3.0,7.0,1.0,1650823939671657.0
-4.0,-1.0,5.0,-7.0,-4.0,-2.0,-3.0,-3.0,1650823939671657.0
0.0,3.0,-1.0,0.0,-7.0,-3.0,-2.0,-1.0,1650823939672619.0
1.0,4.0,-2.0,-2.0,3.0,-2.0,0.0,1.0,1650823939672619.0
3.0,11.0,-10.0,-3.0,-1.0,5.0,0.0,0.0,1650823939693706.0
-15.0,-39.0,8.0,-5.0,-8.0,-8.0,-5.0,-7.0,1650823939693706.0
4.0,8.0,7.0,3.0,-1.0,-3.0,1.0,0.0,1650823939693706.0
3.0,10.0,2.0,3.0,6.0,6.0,1.0,2.0,1650823939693706.0
-1.0,4.0,2.0,3.0,4.0,0.0,-2.0,-1.0,1650823939716722.0
1.0,2.0,-10.0,-8.0,-9.0,-2.0,-3.0,-2.0,1650823939716722.0
-1.0,-2.0,-2.0,5.0,7.0,5.0,0.0,0.0,1650823939717679.0
2.0,-2.0,6.0,8.0,-3.0,-1.0,0.0,0.0,1650823939717679.0
-3.0,-13.0,-6.0,-4.0,-4.0,-1.0,-2.0,-2.0,1650823939739627.0
1.0,12.0,3.0,2.0,-3.0,-7.0,-3.0,-1.0,1650823939739627.0
1.0,1.0,5.0,-2.0,0.0,-2.0,-2.0,0.0,1650823939739627.0
0.0,3.0,-2.0,-2.0,3.0,7.0,2.0,0.0,1650823939739627.0
-1.0,-1.0,6.0,7.0,-2.0,3.0,3.0,-1.0,1650823939753849.0
3.0,1.0,-3.0,1.0,6.0,-5.0,-2.0,0.0,1650823939753849.0
0.0,7.0,1.0,-3.0,-3.0,1.0,1.0,0.0,1650823939754054.0
-2.0,-7.0,-4.0,-5.0,-11.0,-17.0,-1.0,-2.0,1650823939754054.0
-3.0,-1.0,0.0,-1.0,-3.0,0.0,-2.0,-3.0,1650823939777100.0
-3.0,-3.0,-6.0,-9.0,-1.0,-3.0,2.0,0.0,1650823939777100.0
2.0,8.0,1.0,7.0,0.0,0.0,0.0,-1.0,1650823939777100.0
-5.0,-17.0,-7.0,1.0,-2.0,3.0,-3.0,-1.0,1650823939777100.0
1.0,-2.0,-11.0,-7.0,0.0,-2.0,1.0,-1.0,1650823939790847.0
-1.0,-6.0,-2.0,-1.0,-4.0,0.0,-1.0,-2.0,1650823939790847.0
0.0,5.0,8.0,3.0,7.0,2.0,-1.0,1.0,1650823939791848.0
-1.0,6.0,6.0,1.0,2.0,3.0,2.0,-1.0,1650823939791848.0
1.0,7.0,10.0,-2.0,-7.0,-5.0,-4.0,-1.0,1650823939813788.0
1.0,7.0,-2.0,4.0,7.0,1.0,0.0,3.0,1650823939813788.0
-4.0,-23.0,-7.0,-5.0,-3.0,1.0,1.0,-2.0,1650823939813788.0
-1.0,1.0,2.0,-2.0,5.0,-4.0,-2.0,1.0,1650823939813788.0
-4.0,-11.0,-17.0,-11.0,-14.0,1.0,1.0,-3.0,1650823939836727.0
5.0,10.0,4.0,0.0,4.0,1.0,1.0,3.0,1650823939836727.0
2.0,1.0,1.0,10.0,6.0,0.0,0.0,0.0,1650823939837724.0
0.0,4.0,-1.0,-3.0,1.0,4.0,0.0,1.0,1650823939837724.0
-1.0,-4.0,-5.0,-7.0,1.0,-3.0,-1.0,0.0,1650823939858669.0
-2.0,6.0,-1.0,-1.0,-3.0,7.0,-2.0,-1.0,1650823939858669.0
-4.0,-4.0,-3.0,0.0,1.0,-10.0,-1.0,-1.0,1650823939859681.0
-1.0,2.0,12.0,0.0,-4.0,-3.0,1.0,-3.0,1650823939859681.0
2.0,13.0,13.0,7.0,3.0,-5.0,0.0,4.0,1650823939873629.0
0.0,-7.0,-6.0,-1.0,-5.0,0.0,0.0,1.0,1650823939873629.0
-3.0,0.0,-2.0,-2.0,-3.0,4.0,-1.0,-2.0,1650823939874626.0
-2.0,-2.0,-4.0,-4.0,2.0,1.0,1.0,-1.0,1650823939874626.0
1.0,-3.0,-6.0,-4.0,-3.0,-3.0,-2.0,0.0,1650823939896568.0
-1.0,1.0,-4.0,-1.0,2.0,1.0,1.0,-1.0,1650823939896568.0
0.0,3.0,7.0,-7.0,5.0,-3.0,-4.0,-1.0,1650823939897566.0
-1.0,-4.0,-4.0,8.0,-10.0,-1.0,2.0,-1.0,1650823939897566.0
-1.0,-6.0,-11.0,2.0,7.0,7.0,0.0,0.0,1650823939910598.0
1.0,-9.0,-11.0,-6.0,0.0,-5.0,-1.0,-1.0,1650823939910598.0
1.0,3.0,3.0,2.0,-10.0,-4.0,-2.0,-1.0,1650823939911527.0
0.0,1.0,4.0,-4.0,9.0,5.0,-2.0,-2.0,1650823939911527.0
2.0,-4.0,4.0,5.0,4.0,3.0,1.0,-1.0,1650823939933897.0
0.0,4.0,2.0,-1.0,-6.0,-3.0,-3.0,-3.0,1650823939933897.0
-3.0,0.0,-6.0,-5.0,-9.0,-2.0,2.0,1.0,1650823939933897.0
-2.0,4.0,6.0,5.0,6.0,4.0,3.0,0.0,1650823939933897.0
-1.0,-6.0,-9.0,2.0,6.0,-7.0,-3.0,1.0,1650823939956933.0
-1.0,1.0,1.0,7.0,-12.0,0.0,0.0,0.0,1650823939956933.0
1.0,0.0,-6.0,-7.0,6.0,2.0,1.0,-1.0,1650823939956933.0
1.0,-2.0,-5.0,0.0,-5.0,3.0,-3.0,0.0,1650823939956933.0
3.0,11.0,5.0,-10.0,-1.0,-3.0,-1.0,-1.0,1650823939970891.0
-1.0,-11.0,-3.0,5.0,6.0,5.0,1.0,-1.0,1650823939970891.0
-2.0,-1.0,-5.0,1.0,-6.0,-2.0,-1.0,1.0,1650823939971827.0
1.0,-2.0,-9.0,-9.0,-5.0,-5.0,-4.0,-1.0,1650823939971827.0
-1.0,-1.0,1.0,-2.0,-9.0,-6.0,-1.0,0.0,1650823939993953.0
-1.0,4.0,13.0,8.0,-2.0,-7.0,3.0,2.0,1650823939993953.0
1.0,13.0,20.0,13.0,12.0,10.0,3.0,0.0,1650823939993953.0
-1.0,-10.0,-13.0,-15.0,0.0,0.0,-3.0,0.0,1650823939993953.0
-3.0,-4.0,4.0,1.0,-5.0,1.0,-3.0,-2.0,1650823940017175.0
0.0,2.0,0.0,-4.0,-4.0,3.0,0.0,-3.0,1650823940017175.0
-1.0,-4.0,-2.0,2.0,-1.0,-9.0,1.0,0.0,1650823940018175.0
2.0,6.0,7.0,7.0,10.0,6.0,3.0,1.0,1650823940018175.0
4.0,2.0,-1.0,2.0,-9.0,-3.0,0.0,1.0,1650823940030169.0
-8.0,-17.0,-6.0,-11.0,-10.0,-12.0,-3.0,-4.0,1650823940030169.0
1.0,0.0,-3.0,-2.0,5.0,4.0,0.0,-1.0,1650823940038185.0
-1.0,1.0,1.0,4.0,2.0,2.0,1.0,1.0,1650823940038185.0
-1.0,-2.0,2.0,2.0,7.0,8.0,1.0,0.0,1650823940054308.0
1.0,5.0,-1.0,1.0,1.0,-2.0,-5.0,2.0,1650823940054308.0
-1.0,-4.0,-7.0,-4.0,-12.0,-3.0,-2.0,-3.0,1650823940054308.0
-2.0,-4.0,-3.0,-2.0,-5.0,-6.0,-1.0,0.0,1650823940054308.0
-1.0,-3.0,3.0,0.0,11.0,3.0,1.0,-1.0,1650823940077072.0
2.0,7.0,1.0,3.0,1.0,9.0,2.0,0.0,1650823940077072.0
0.0,-1.0,0.0,0.0,3.0,-5.0,-2.0,0.0,1650823940077072.0
3.0,-1.0,-12.0,-7.0,-3.0,-2.0,0.0,-1.0,1650823940077072.0
-1.0,3.0,5.0,1.0,1.0,3.0,1.0,-2.0,1650823940091007.0
0.0,-1.0,0.0,1.0,-2.0,-5.0,-3.0,0.0,1650823940091007.0
-1.0,0.0,0.0,-2.0,-2.0,3.0,0.0,0.0,1650823940092037.0
-1.0,0.0,-1.0,-1.0,-4.0,-2.0,-3.0,-2.0,1650823940092037.0
-4.0,-3.0,3.0,-1.0,-5.0,-5.0,1.0,-2.0,1650823940113236.0
1.0,6.0,7.0,5.0,14.0,10.0,5.0,2.0,1650823940113236.0
-1.0,-5.0,-12.0,7.0,-3.0,1.0,0.0,0.0,1650823940114243.0
-1.0,-1.0,-5.0,-18.0,3.0,-7.0,-6.0,0.0,1650823940114243.0
-3.0,-18.0,-9.0,-2.0,-15.0,0.0,-2.0,-2.0,1650823940137068.0
-2.0,0.0,-6.0,-1.0,5.0,2.0,3.0,0.0,1650823940137068.0
-2.0,-2.0,-6.0,-5.0,1.0,7.0,2.0,2.0,1650823940137068.0
0.0,2.0,2.0,6.0,1.0,-5.0,0.0,1.0,1650823940137068.0
-1.0,3.0,3.0,2.0,2.0,-3.0,-2.0,-1.0,1650823940150089.0
2.0,6.0,0.0,-1.0,-1.0,-6.0,-2.0,-1.0,1650823940150089.0
-3.0,-18.0,-7.0,-3.0,-8.0,-3.0,-4.0,-4.0,1650823940158030.0
0.0,0.0,1.0,-1.0,-4.0,5.0,3.0,1.0,1650823940158030.0
-1.0,2.0,4.0,6.0,14.0,8.0,2.0,1.0,1650823940173052.0
0.0,3.0,1.0,5.0,-5.0,-4.0,-4.0,0.0,1650823940173052.0
1.0,2.0,-8.0,-16.0,4.0,4.0,1.0,-1.0,1650823940173994.0
0.0,-2.0,-3.0,1.0,-8.0,-9.0,-2.0,-3.0,1650823940173994.0
1.0,0.0,3.0,9.0,-1.0,0.0,0.0,2.0,1650823940196680.0
-4.0,-3.0,0.0,-10.0,5.0,8.0,2.0,0.0,1650823940196680.0
1.0,2.0,7.0,2.0,-4.0,-7.0,-2.0,0.0,1650823940197637.0
2.0,-3.0,-2.0,5.0,2.0,1.0,-1.0,8.0,1650823940197637.0
-2.0,1.0,2.0,-6.0,-16.0,-10.0,-6.0,-16.0,1650823940210575.0
-1.0,0.0,-10.0,-5.0,-4.0,2.0,0.0,-1.0,1650823940210575.0
0.0,4.0,6.0,5.0,2.0,1.0,3.0,0.0,1650823940218553.0
0.0,5.0,11.0,9.0,2.0,-3.0,2.0,-1.0,1650823940218553.0
-1.0,-5.0,-20.0,-14.0,7.0,1.0,-1.0,7.0,1650823940233183.0
2.0,1.0,0.0,-2.0,1.0,-4.0,-3.0,1.0,1650823940233183.0
2.0,-2.0,-4.0,-1.0,-14.0,-2.0,0.0,-3.0,1650823940234111.0
-1.0,16.0,37.0,20.0,10.0,10.0,4.0,-3.0,1650823940234111.0
2.0,1.0,0.0,2.0,2.0,6.0,3.0,2.0,1650823940256150.0
-2.0,-7.0,-7.0,-5.0,-3.0,-5.0,0.0,7.0,1650823940256150.0
1.0,4.0,-4.0,-1.0,-3.0,1.0,-3.0,0.0,1650823940257130.0
-1.0,-2.0,1.0,10.0,-5.0,-13.0,-3.0,-3.0,1650823940257130.0
-3.0,-5.0,-8.0,-10.0,-6.0,-2.0,0.0,-1.0,1650823940270153.0
2.0,5.0,8.0,7.0,9.0,6.0,2.0,-1.0,1650823940270153.0
-2.0,-1.0,0.0,-10.0,-8.0,-1.0,-2.0,-1.0,1650823940278132.0
-1.0,-2.0,-7.0,1.0,1.0,-1.0,0.0,-2.0,1650823940278132.0
-2.0,2.0,3.0,0.0,-2.0,0.0,1.0,1.0,1650823940293037.0
-1.0,-3.0,-2.0,1.0,-4.0,1.0,-3.0,-3.0,1650823940293037.0
2.0,1.0,-3.0,4.0,8.0,2.0,1.0,0.0,1650823940294023.0
0.0,-5.0,4.0,-6.0,2.0,7.0,2.0,-4.0,1650823940294023.0
-5.0,-2.0,1.0,16.0,18.0,1.0,0.0,3.0,1650823940317028.0
1.0,-4.0,2.0,1.0,-7.0,-3.0,-7.0,-7.0,1650823940317028.0
-4.0,-1.0,2.0,-5.0,1.0,-9.0,-7.0,-4.0,1650823940317028.0
1.0,-2.0,-18.0,-8.0,-23.0,-1.0,1.0,0.0,1650823940317028.0
4.0,1.0,8.0,4.0,-1.0,2.0,0.0,1.0,1650823940329995.0
-7.0,-2.0,10.0,1.0,2.0,0.0,0.0,-1.0,1650823940329995.0
3.0,5.0,20.0,23.0,9.0,5.0,3.0,3.0,1650823940338930.0
-1.0,0.0,-23.0,-21.0,-1.0,6.0,-3.0,0.0,1650823940338930.0
-4.0,-9.0,-10.0,-9.0,-15.0,-27.0,-8.0,-13.0,1650823940353873.0
2.0,7.0,1.0,11.0,6.0,11.0,-2.0,4.0,1650823940353873.0
0.0,-4.0,16.0,2.0,0.0,-4.0,10.0,11.0,1650823940354038.0
8.0,9.0,-2.0,2.0,-2.0,-5.0,6.0,26.0,1650823940354038.0
-7.0,-2.0,6.0,-3.0,5.0,8.0,-5.0,-19.0,1650823940376445.0
12.0,5.0,6.0,-5.0,-7.0,-5.0,2.0,-1.0,1650823940376445.0
-11.0,1.0,-6.0,7.0,12.0,9.0,-1.0,1.0,1650823940377428.0
0.0,-14.0,-19.0,-4.0,-6.0,8.0,11.0,9.0,1650823940377428.0
18.0,10.0,4.0,-5.0,-1.0,0.0,3.0,29.0,1650823940390407.0
-57.0,-23.0,-10.0,-6.0,-8.0,-18.0,-12.0,-8.0,1650823940390407.0
14.0,18.0,1.0,-6.0,1.0,-5.0,-12.0,-21.0,1650823940398431.0
-20.0,-16.0,12.0,6.0,-1.0,-3.0,-7.0,-21.0,1650823940398431.0
-3.0,1.0,0.0,2.0,10.0,13.0,11.0,14.0,1650823940413844.0
27.0,-4.0,-17.0,-5.0,-15.0,3.0,12.0,1.0,1650823940413844.0
6.0,-12.0,-13.0,-12.0,6.0,-5.0,-16.0,-17.0,1650823940414402.0
0.0,5.0,-15.0,-8.0,3.0,-3.0,-7.0,-9.0,1650823940414402.0
0.0,16.0,27.0,17.0,2.0,5.0,3.0,4.0,1650823940436345.0
-3.0,-15.0,-35.0,-19.0,-4.0,-4.0,0.0,6.0,1650823940436345.0
31.0,10.0,-3.0,-15.0,-19.0,-13.0,-6.0,-5.0,1650823940437342.0
-18.0,-5.0,12.0,5.0,5.0,7.0,-1.0,-1.0,1650823940437342.0
-25.0,-5.0,8.0,-2.0,2.0,7.0,-7.0,-3.0,1650823940459297.0
8.0,39.0,31.0,30.0,14.0,11.0,17.0,21.0,1650823940459297.0
-5.0,-55.0,-43.0,-25.0,-21.0,-23.0,-9.0,21.0,1650823940460311.0
27.0,21.0,8.0,3.0,2.0,8.0,8.0,-37.0,1650823940460311.0
-17.0,-3.0,-11.0,-2.0,-2.0,-3.0,7.0,-4.0,1650823940473073.0
0.0,-13.0,24.0,10.0,18.0,26.0,33.0,7.0,1650823940473073.0
47.0,10.0,7.0,17.0,9.0,14.0,-30.0,6.0,1650823940474003.0
-15.0,-21.0,-36.0,-21.0,-23.0,-41.0,-49.0,-34.0,1650823940474003.0
1.0,12.0,16.0,13.0,-1.0,-5.0,-32.0,-25.0,1650823940496905.0
19.0,-3.0,-37.0,-35.0,-18.0,-20.0,-36.0,-59.0,1650823940496905.0
-24.0,10.0,19.0,2.0,4.0,17.0,44.0,-9.0,1650823940497856.0
29.0,-8.0,16.0,14.0,11.0,17.0,44.0,63.0,1650823940497856.0
13.0,34.0,28.0,14.0,2.0,-5.0,-34.0,-57.0,1650823940518975.0
-15.0,-39.0,-34.0,-23.0,-17.0,-19.0,-25.0,-16.0,1650823940518975.0
-26.0,43.0,19.0,-5.0,1.0,7.0,28.0,36.0,1650823940519939.0
12.0,10.0,31.0,10.0,11.0,16.0,2.0,0.0,1650823940519939.0
42.0,2.0,-11.0,24.0,10.0,8.0,31.0,76.0,1650823940533904.0
-38.0,5.0,-5.0,-13.0,-9.0,-9.0,-10.0,-19.0,1650823940533904.0
-16.0,-6.0,-6.0,-1.0,-5.0,1.0,-2.0,-10.0,1650823940533904.0
-1.0,14.0,10.0,0.0,0.0,-6.0,-11.0,-27.0,1650823940533904.0
-18.0,-23.0,-10.0,6.0,-2.0,3.0,27.0,7.0,1650823940556842.0
21.0,11.0,-4.0,-12.0,4.0,7.0,-36.0,65.0,1650823940556842.0
1.0,-19.0,-10.0,9.0,3.0,-6.0,-2.0,-58.0,1650823940557839.0
-3.0,9.0,-1.0,13.0,8.0,1.0,4.0,13.0,1650823940557839.0
21.0,30.0,1.0,-17.0,-2.0,-2.0,-7.0,-16.0,1650823940578851.0
-9.0,-11.0,21.0,20.0,9.0,14.0,16.0,16.0,1650823940578851.0
-29.0,-16.0,-20.0,-23.0,-14.0,-17.0,-10.0,6.0,1650823940579782.0
6.0,3.0,-3.0,5.0,-5.0,6.0,3.0,16.0,1650823940579782.0
12.0,-17.0,-24.0,-38.0,-15.0,-16.0,19.0,9.0,1650823940593811.0
-26.0,0.0,-22.0,-13.0,7.0,8.0,-13.0,-15.0,1650823940593811.0
18.0,22.0,38.0,22.0,12.0,11.0,13.0,41.0,1650823940593811.0
12.0,-14.0,0.0,14.0,4.0,-10.0,45.0,25.0,1650823940593811.0
-33.0,-5.0,-15.0,-8.0,-9.0,-6.0,-41.0,-15.0,1650823940616847.0
16.0,-57.0,-31.0,-27.0,-26.0,-14.0,5.0,-11.0,1650823940616847.0
3.0,-23.0,9.0,-1.0,-2.0,3.0,-7.0,5.0,1650823940617781.0
-10.0,8.0,-3.0,-8.0,3.0,1.0,-1.0,-12.0,1650823940617781.0
-13.0,-33.0,1.0,6.0,1.0,3.0,13.0,21.0,1650823940639193.0
17.0,47.0,48.0,38.0,13.0,-2.0,5.0,-10.0,1650823940639193.0
3.0,10.0,5.0,7.0,-3.0,-7.0,5.0,15.0,1650823940640122.0
-10.0,-20.0,-15.0,-26.0,-14.0,-6.0,-13.0,0.0,1650823940640122.0
5.0,27.0,24.0,14.0,4.0,5.0,8.0,3.0,1650823940653152.0
6.0,25.0,24.0,31.0,8.0,2.0,5.0,5.0,1650823940653152.0
6.0,-2.0,-8.0,-18.0,-2.0,6.0,9.0,6.0,1650823940654085.0
-30.0,-4.0,15.0,12.0,13.0,7.0,-14.0,-20.0,1650823940654085.0
7.0,-9.0,-30.0,-26.0,-11.0,-7.0,-13.0,36.0,1650823940676145.0
8.0,6.0,16.0,17.0,-2.0,-7.0,14.0,-55.0,1650823940676145.0
-2.0,17.0,14.0,20.0,-6.0,-10.0,-17.0,-26.0,1650823940677143.0
-8.0,7.0,-12.0,0.0,9.0,8.0,-8.0,-7.0,1650823940677143.0
14.0,-14.0,-2.0,17.0,2.0,12.0,33.0,27.0,1650823940699154.0
-44.0,-39.0,-31.0,-42.0,-4.0,-10.0,-12.0,21.0,1650823940699154.0
-12.0,-14.0,-36.0,-23.0,-15.0,-8.0,-4.0,-21.0,1650823940700082.0
12.0,-17.0,-4.0,-18.0,-6.0,-2.0,-2.0,0.0,1650823940700082.0
-9.0,43.0,21.0,12.0,1.0,4.0,-22.0,-43.0,1650823940713236.0
-3.0,45.0,40.0,6.0,5.0,3.0,33.0,64.0,1650823940713236.0
2.0,-21.0,-8.0,-18.0,-4.0,6.0,6.0,47.0,1650823940714165.0
14.0,9.0,-8.0,4.0,-5.0,-11.0,-40.0,-67.0,1650823940714165.0
-11.0,-32.0,-18.0,-15.0,-6.0,1.0,-3.0,-8.0,1650823940736310.0
21.0,10.0,12.0,26.0,10.0,5.0,11.0,-12.0,1650823940736310.0
10.0,18.0,18.0,12.0,7.0,0.0,-4.0,24.0,1650823940737256.0
-10.0,-13.0,-14.0,-11.0,5.0,-5.0,12.0,18.0,1650823940737256.0
-9.0,-30.0,-45.0,6.0,-7.0,2.0,0.0,-12.0,1650823940758908.0
16.0,1.0,8.0,26.0,5.0,7.0,-2.0,-20.0,1650823940758908.0
-16.0,-36.0,-20.0,-7.0,-10.0,-21.0,-17.0,-29.0,1650823940759891.0
14.0,1.0,-14.0,-24.0,-3.0,6.0,1.0,3.0,1650823940759891.0
1.0,3.0,2.0,-7.0,-6.0,-11.0,-5.0,-33.0,1650823940773847.0
-1.0,19.0,-8.0,-10.0,8.0,4.0,10.0,19.0,1650823940773847.0
-17.0,-20.0,0.0,18.0,8.0,8.0,34.0,47.0,1650823940773847.0
9.0,8.0,4.0,17.0,-7.0,-4.0,-59.0,-54.0,1650823940773847.0
2.0,-12.0,-1.0,-24.0,-6.0,-2.0,23.0,30.0,1650823940797029.0
24.0,34.0,-1.0,-3.0,-3.0,-1.0,-10.0,59.0,1650823940797029.0
-17.0,-12.0,-3.0,26.0,14.0,4.0,-2.0,-23.0,1650823940797029.0
-7.0,3.0,4.0,-13.0,2.0,5.0,12.0,23.0,1650823940797029.0
-2.0,-13.0,-12.0,-16.0,-10.0,-7.0,11.0,0.0,1650823940818962.0
-4.0,29.0,7.0,-14.0,-7.0,0.0,-2.0,7.0,1650823940818962.0
11.0,15.0,-23.0,-4.0,4.0,-2.0,-11.0,-27.0,1650823940819893.0
3.0,26.0,67.0,59.0,7.0,3.0,20.0,26.0,1650823940819893.0
1.0,28.0,6.0,-17.0,-5.0,-13.0,-20.0,-8.0,1650823940833855.0
0.0,-38.0,-17.0,1.0,4.0,4.0,-5.0,-5.0,1650823940833855.0
1.0,6.0,-44.0,-32.0,-16.0,-1.0,22.0,-3.0,1650823940833855.0
11.0,-26.0,-11.0,-17.0,-5.0,1.0,-4.0,42.0,1650823940833855.0
-6.0,20.0,31.0,23.0,13.0,3.0,4.0,-8.0,1650823940856862.0
-2.0,-9.0,15.0,4.0,5.0,-5.0,-4.0,-33.0,1650823940856862.0
-2.0,2.0,24.0,5.0,-17.0,-1.0,6.0,-11.0,1650823940857792.0
0.0,2.0,-9.0,4.0,-4.0,-10.0,-9.0,6.0,1650823940857792.0
16.0,8.0,16.0,13.0,16.0,8.0,-9.0,21.0,1650823940878799.0
-9.0,-5.0,4.0,9.0,1.0,9.0,-1.0,-4.0,1650823940878799.0
16.0,-17.0,-26.0,-20.0,-2.0,-11.0,-9.0,-7.0,1650823940879813.0
-32.0,-24.0,-16.0,-14.0,-9.0,-5.0,14.0,8.0,1650823940879813.0
-1.0,-9.0,6.0,2.0,3.0,3.0,-5.0,-5.0,1650823940893659.0
11.0,27.0,34.0,18.0,0.0,0.0,15.0,-2.0,1650823940893659.0
15.0,-25.0,-6.0,22.0,1.0,-3.0,-20.0,11.0,1650823940894659.0
-9.0,34.0,18.0,-29.0,-7.0,-5.0,0.0,-51.0,1650823940894659.0
-12.0,-8.0,-9.0,18.0,10.0,6.0,2.0,-7.0,1650823940915675.0
-2.0,-13.0,-26.0,-22.0,-2.0,-1.0,-1.0,-3.0,1650823940915675.0
-1.0,27.0,16.0,4.0,-7.0,1.0,-11.0,-7.0,1650823940923848.0
-8.0,-12.0,-20.0,-11.0,-8.0,-5.0,19.0,23.0,1650823940923848.0
10.0,5.0,20.0,13.0,-2.0,-3.0,-12.0,-20.0,1650823940938594.0
1.0,-39.0,-17.0,-6.0,-6.0,-3.0,-9.0,-10.0,1650823940938594.0
-20.0,33.0,1.0,1.0,9.0,8.0,16.0,7.0,1650823940939588.0
1.0,4.0,3.0,-7.0,3.0,3.0,5.0,7.0,1650823940939588.0
20.0,22.0,11.0,2.0,-8.0,-2.0,10.0,44.0,1650823940953591.0
13.0,-21.0,-26.0,-4.0,-3.0,-9.0,-13.0,-4.0,1650823940953591.0
-47.0,-17.0,12.0,-7.0,5.0,3.0,-10.0,-7.0,1650823940954569.0
29.0,4.0,7.0,11.0,-1.0,-6.0,-41.0,37.0,1650823940954569.0
-32.0,-13.0,-2.0,7.0,1.0,9.0,12.0,-29.0,1650823940976463.0
1.0,-25.0,-24.0,-9.0,-4.0,1.0,20.0,23.0,1650823940976463.0
12.0,12.0,14.0,10.0,10.0,2.0,-12.0,-11.0,1650823940977460.0
7.0,38.0,13.0,4.0,7.0,2.0,22.0,13.0,1650823940977460.0
-13.0,-65.0,-75.0,-58.0,-27.0,-14.0,-7.0,-11.0,1650823941006602.0
-2.0,32.0,24.0,30.0,8.0,4.0,-12.0,-11.0,1650823941006602.0
-5.0,-22.0,22.0,12.0,-5.0,-6.0,-17.0,-42.0,1650823941007533.0
-18.0,-16.0,-36.0,-31.0,-3.0,-7.0,0.0,-14.0,1650823941007533.0
5.0,-25.0,-9.0,9.0,11.0,0.0,1.0,-16.0,1650823941013516.0
13.0,19.0,2.0,-26.0,-15.0,-2.0,-4.0,32.0,1650823941013516.0
-1.0,-19.0,3.0,4.0,10.0,8.0,-1.0,-1.0,1650823941014514.0
-1.0,-18.0,-7.0,7.0,-2.0,-5.0,2.0,-12.0,1650823941014514.0
-12.0,-2.0,13.0,-3.0,-2.0,-2.0,35.0,12.0,1650823941036454.0
-18.0,-20.0,0.0,4.0,1.0,-13.0,-35.0,-27.0,1650823941036454.0
26.0,-14.0,-11.0,-11.0,-5.0,-5.0,-13.0,22.0,1650823941037452.0
1.0,13.0,10.0,22.0,3.0,7.0,8.0,-27.0,1650823941037452.0
10.0,-8.0,-16.0,-11.0,5.0,1.0,7.0,0.0,1650823941059393.0
27.0,3.0,17.0,-5.0,-9.0,-4.0,16.0,28.0,1650823941059393.0
-4.0,38.0,-9.0,-8.0,-4.0,-1.0,-3.0,1.0,1650823941059393.0
-19.0,-30.0,4.0,12.0,4.0,5.0,8.0,-23.0,1650823941059393.0
0.0,37.0,18.0,4.0,5.0,1.0,-13.0,20.0,1650823941073383.0
-3.0,-32.0,-1.0,8.0,8.0,0.0,5.0,-5.0,1650823941073383.0
-2.0,-14.0,-77.0,-46.0,-15.0,-8.0,-14.0,-20.0,1650823941074354.0
5.0,18.0,18.0,1.0,5.0,9.0,13.0,10.0,1650823941074354.0
8.0,-25.0,2.0,9.0,0.0,-2.0,4.0,59.0,1650823941096361.0
-5.0,37.0,26.0,17.0,4.0,5.0,12.0,-21.0,1650823941096361.0
13.0,16.0,23.0,20.0,7.0,4.0,-17.0,-62.0,1650823941097292.0
-17.0,-19.0,-12.0,-1.0,-3.0,-10.0,-26.0,8.0,1650823941097292.0
-8.0,-25.0,-7.0,-8.0,-11.0,8.0,34.0,16.0,1650823941119347.0
7.0,10.0,-17.0,-7.0,8.0,-6.0,-37.0,-44.0,1650823941119347.0
-17.0,5.0,23.0,11.0,3.0,1.0,2.0,19.0,1650823941120323.0
3.0,-14.0,-23.0,-11.0,-7.0,-1.0,-4.0,17.0,1650823941120323.0
-26.0,40.0,53.0,11.0,11.0,-4.0,-22.0,-98.0,1650823941132356.0
4.0,-19.0,-19.0,5.0,-16.0,-5.0,-18.0,19.0,1650823941132356.0
14.0,24.0,15.0,1.0,14.0,9.0,37.0,32.0,1650823941141334.0
9.0,37.0,17.0,-4.0,2.0,1.0,-13.0,-35.0,1650823941141334.0
10.0,29.0,23.0,10.0,0.0,-2.0,2.0,5.0,1650823941156229.0
-21.0,-3.0,-3.0,13.0,-7.0,-4.0,15.0,4.0,1650823941156229.0
3.0,-22.0,-30.0,-49.0,-8.0,2.0,2.0,-4.0,1650823941157226.0
1.0,-3.0,17.0,33.0,5.0,2.0,10.0,24.0,1650823941157226.0
6.0,-50.0,-6.0,25.0,15.0,6.0,-9.0,24.0,1650823941179522.0
-3.0,49.0,-21.0,-67.0,-25.0,-8.0,9.0,-15.0,1650823941179522.0
-1.0,2.0,32.0,9.0,-6.0,-9.0,-5.0,-33.0,1650823941179522.0
-4.0,-2.0,-2.0,4.0,3.0,5.0,19.0,8.0,1650823941179522.0
11.0,13.0,-5.0,-8.0,-13.0,-5.0,-22.0,13.0,1650823941192921.0
-19.0,-20.0,8.0,11.0,8.0,1.0,-1.0,39.0,1650823941192921.0
-36.0,3.0,-10.0,-6.0,-8.0,-5.0,-9.0,-14.0,1650823941200968.0
-11.0,14.0,12.0,1.0,5.0,-2.0,1.0,-18.0,1650823941200968.0
12.0,-5.0,-12.0,-4.0,-7.0,-1.0,-4.0,-3.0,1650823941216900.0
13.0,2.0,3.0,14.0,6.0,5.0,17.0,4.0,1650823941216900.0
16.0,38.0,10.0,5.0,3.0,2.0,13.0,16.0,1650823941216900.0
-12.0,-53.0,-26.0,-6.0,9.0,5.0,-1.0,3.0,1650823941216900.0
-3.0,6.0,-8.0,-11.0,1.0,-1.0,-10.0,-11.0,1650823941238840.0
-3.0,2.0,33.0,12.0,-6.0,5.0,10.0,-12.0,1650823941238840.0
3.0,-6.0,-8.0,15.0,-8.0,-4.0,1.0,8.0,1650823941239847.0
20.0,22.0,27.0,7.0,3.0,1.0,10.0,10.0,1650823941239847.0
-7.0,17.0,-14.0,-14.0,-5.0,-4.0,-4.0,-1.0,1650823941252871.0
1.0,5.0,25.0,15.0,21.0,7.0,3.0,14.0,1650823941252871.0
16.0,-25.0,-36.0,10.0,-1.0,4.0,4.0,-21.0,1650823941260784.0
-27.0,-37.0,29.0,8.0,-8.0,-6.0,-2.0,-40.0,1650823941260784.0
-7.0,-7.0,-23.0,-20.0,-14.0,-15.0,-28.0,-39.0,1650823941275809.0
21.0,-1.0,-1.0,-2.0,5.0,-6.0,-6.0,-14.0,1650823941275809.0
-2.0,17.0,24.0,7.0,3.0,5.0,21.0,46.0,1650823941283748.0
12.0,-21.0,-25.0,-13.0,-5.0,0.0,18.0,32.0,1650823941283748.0
0.0,-2.0,8.0,17.0,1.0,3.0,-3.0,-5.0,1650823941299472.0
-26.0,-40.0,-26.0,-18.0,-11.0,-11.0,-3.0,-16.0,1650823941299472.0
-9.0,-30.0,-22.0,-1.0,9.0,-1.0,-5.0,5.0,1650823941299472.0
5.0,29.0,12.0,12.0,11.0,8.0,8.0,34.0,1650823941299472.0
-9.0,-16.0,4.0,6.0,7.0,-1.0,11.0,6.0,1650823941313213.0
-6.0,7.0,-9.0,-9.0,-8.0,9.0,-8.0,-9.0,1650823941313213.0
7.0,11.0,22.0,-15.0,-8.0,-8.0,7.0,8.0,1650823941321260.0
0.0,21.0,12.0,17.0,-6.0,-1.0,1.0,7.0,1650823941321260.0
2.0,-50.0,-70.0,-27.0,12.0,0.0,-29.0,-72.0,1650823941336181.0
-8.0,12.0,2.0,2.0,-4.0,10.0,8.0,5.0,1650823941336181.0
5.0,14.0,23.0,-21.0,-5.0,-8.0,-4.0,9.0,1650823941337156.0
1.0,-43.0,-5.0,0.0,-7.0,-2.0,-6.0,-16.0,1650823941337156.0
21.0,40.0,2.0,-2.0,0.0,6.0,48.0,36.0,1650823941359120.0
-39.0,-11.0,-5.0,4.0,4.0,-6.0,-18.0,-19.0,1650823941359120.0
-10.0,-1.0,0.0,13.0,6.0,3.0,-9.0,-8.0,1650823941360097.0
11.0,23.0,-9.0,-14.0,4.0,5.0,-1.0,12.0,1650823941360097.0
12.0,7.0,4.0,3.0,-4.0,2.0,3.0,7.0,1650823941373082.0
15.0,31.0,21.0,12.0,10.0,12.0,20.0,11.0,1650823941373082.0
7.0,10.0,-4.0,-9.0,-7.0,-3.0,11.0,38.0,1650823941380912.0
-1.0,4.0,-30.0,-27.0,-20.0,-12.0,-12.0,-40.0,1650823941380912.0
2.0,12.0,36.0,20.0,8.0,7.0,0.0,27.0,1650823941396179.0
4.0,-6.0,11.0,34.0,19.0,7.0,2.0,0.0,1650823941396179.0
-10.0,-25.0,-17.0,-3.0,-7.0,-4.0,-5.0,-19.0,1650823941403200.0
21.0,11.0,-16.0,-26.0,-6.0,-3.0,-11.0,3.0,1650823941403200.0
-33.0,-32.0,-14.0,10.0,-1.0,-4.0,-10.0,-1.0,1650823941419156.0
1.0,-7.0,3.0,4.0,1.0,-2.0,-2.0,4.0,1650823941419156.0
-5.0,9.0,13.0,-5.0,8.0,8.0,-7.0,-14.0,1650823941420087.0
-4.0,12.0,-6.0,-5.0,-6.0,0.0,-6.0,19.0,1650823941420087.0
27.0,63.0,40.0,8.0,-5.0,-6.0,1.0,11.0,1650823941442028.0
-12.0,-30.0,-15.0,-2.0,-1.0,-8.0,13.0,36.0,1650823941442028.0
-16.0,-19.0,1.0,11.0,3.0,1.0,-19.0,-15.0,1650823941442028.0
-22.0,-12.0,-5.0,-2.0,1.0,-2.0,-19.0,-39.0,1650823941442028.0
10.0,14.0,6.0,-15.0,-15.0,-11.0,-11.0,-13.0,1650823941456019.0
11.0,1.0,0.0,1.0,5.0,2.0,13.0,14.0,1650823941456019.0
13.0,-2.0,18.0,16.0,4.0,17.0,5.0,-10.0,1650823941456988.0
7.0,1.0,-50.0,-52.0,-13.0,-14.0,-1.0,24.0,1650823941456988.0
-23.0,-6.0,19.0,12.0,2.0,7.0,15.0,27.0,1650823941479655.0
-12.0,-27.0,0.0,-9.0,-1.0,-5.0,-9.0,-30.0,1650823941479655.0
2.0,-1.0,-9.0,-7.0,-3.0,2.0,5.0,6.0,1650823941479655.0
15.0,0.0,5.0,14.0,1.0,0.0,-2.0,-8.0,1650823941479655.0
-7.0,2.0,-8.0,-19.0,-6.0,-6.0,-5.0,-1.0,1650823941501816.0
-1.0,-11.0,-20.0,-8.0,2.0,4.0,-5.0,-8.0,1650823941501816.0
20.0,13.0,9.0,13.0,1.0,1.0,1.0,14.0,1650823941502775.0
-18.0,21.0,23.0,28.0,8.0,3.0,13.0,16.0,1650823941502775.0
-2.0,26.0,29.0,1.0,8.0,8.0,22.0,29.0,1650823941515742.0
5.0,7.0,-18.0,-11.0,-18.0,-14.0,-41.0,26.0,1650823941515742.0
-3.0,-22.0,-15.0,4.0,1.0,1.0,-7.0,13.0,1650823941523791.0
-1.0,-15.0,-16.0,-1.0,-1.0,-2.0,8.0,1.0,1650823941523791.0
-4.0,-17.0,-15.0,-11.0,-11.0,-6.0,-10.0,-27.0,1650823941538847.0
-7.0,-3.0,-11.0,11.0,9.0,7.0,-2.0,11.0,1650823941538847.0
-7.0,37.0,41.0,13.0,10.0,3.0,15.0,4.0,1650823941539844.0
-4.0,23.0,-4.0,-20.0,-2.0,0.0,-1.0,9.0,1650823941539844.0
5.0,4.0,0.0,6.0,2.0,3.0,0.0,-7.0,1650823941561787.0
15.0,11.0,17.0,12.0,-6.0,-11.0,0.0,-8.0,1650823941561787.0
11.0,12.0,11.0,4.0,8.0,2.0,-1.0,-4.0,1650823941562783.0
-16.0,-18.0,-5.0,2.0,4.0,4.0,1.0,-8.0,1650823941562783.0
13.0,-9.0,-18.0,-16.0,9.0,5.0,-5.0,4.0,1650823941575776.0
-24.0,-13.0,-38.0,-41.0,-32.0,-6.0,5.0,-8.0,1650823941575776.0
2.0,21.0,28.0,18.0,9.0,1.0,5.0,-17.0,1650823941576746.0
8.0,-14.0,-6.0,29.0,10.0,6.0,7.0,2.0,1650823941576746.0
1.0,-6.0,-28.0,-23.0,-5.0,-10.0,-20.0,4.0,1650823941599109.0
10.0,-7.0,-3.0,-13.0,-17.0,-6.0,-8.0,-9.0,1650823941599109.0
4.0,-11.0,-3.0,8.0,16.0,9.0,34.0,35.0,1650823941600038.0
0.0,-17.0,-6.0,7.0,5.0,1.0,-3.0,-47.0,1650823941600038.0
-22.0,-24.0,1.0,15.0,4.0,-7.0,-28.0,-3.0,1650823941621709.0
12.0,9.0,-4.0,-2.0,7.0,4.0,12.0,-17.0,1650823941621709.0
5.0,14.0,-4.0,-11.0,-18.0,-5.0,-2.0,18.0,1650823941622639.0
12.0,19.0,14.0,8.0,-4.0,3.0,14.0,19.0,1650823941622639.0
-7.0,-7.0,-9.0,-18.0,-9.0,-9.0,2.0,9.0,1650823941635667.0
15.0,-6.0,-12.0,-11.0,6.0,0.0,-3.0,-17.0,1650823941635667.0
0.0,5.0,4.0,-9.0,-2.0,-5.0,-12.0,3.0,1650823941636602.0
-2.0,-9.0,-15.0,0.0,-3.0,3.0,-1.0,14.0,1650823941636602.0
-7.0,-39.0,-21.0,3.0,9.0,7.0,1.0,-17.0,1650823941659546.0
4.0,15.0,10.0,31.0,-4.0,2.0,8.0,14.0,1650823941659546.0
-10.0,-12.0,-17.0,-39.0,-7.0,-5.0,-6.0,-14.0,1650823941659546.0
-8.0,-45.0,-35.0,-23.0,-13.0,-10.0,9.0,16.0,1650823941659546.0
8.0,16.0,17.0,6.0,-11.0,-8.0,-23.0,-3.0,1650823941682517.0
7.0,19.0,30.0,16.0,23.0,4.0,9.0,-6.0,1650823941682517.0
-11.0,-22.0,-13.0,12.0,-16.0,-7.0,-8.0,-3.0,1650823941682517.0
-15.0,-5.0,10.0,4.0,-2.0,5.0,23.0,0.0,1650823941682517.0
0.0,50.0,18.0,2.0,4.0,-3.0,-1.0,2.0,1650823941696442.0
-11.0,-9.0,2.0,-8.0,8.0,3.0,15.0,4.0,1650823941696442.0
-8.0,-13.0,-5.0,4.0,-1.0,-4.0,-24.0,-8.0,1650823941696442.0
19.0,14.0,14.0,18.0,9.0,10.0,-6.0,-27.0,1650823941696442.0
-18.0,-34.0,-40.0,-29.0,-21.0,-11.0,6.0,-19.0,1650823941719524.0
-13.0,3.0,7.0,-16.0,-14.0,-16.0,-21.0,-14.0,1650823941719524.0
2.0,23.0,-9.0,12.0,12.0,11.0,13.0,-10.0,1650823941720521.0
6.0,-4.0,12.0,17.0,16.0,6.0,-13.0,11.0,1650823941720521.0
7.0,15.0,16.0,15.0,3.0,9.0,9.0,9.0,1650823941741529.0
6.0,9.0,-15.0,-31.0,-20.0,-7.0,9.0,0.0,1650823941741529.0
-19.0,-45.0,-33.0,-34.0,-16.0,-17.0,-18.0,-14.0,1650823941742464.0
2.0,27.0,41.0,26.0,13.0,3.0,-3.0,-2.0,1650823941742464.0
7.0,6.0,13.0,26.0,3.0,9.0,3.0,-6.0,1650823941755429.0
-2.0,5.0,8.0,2.0,15.0,7.0,13.0,21.0,1650823941755429.0
24.0,2.0,5.0,12.0,-3.0,-4.0,15.0,5.0,1650823941764447.0
-4.0,8.0,3.0,-18.0,-13.0,-4.0,-23.0,-9.0,1650823941764447.0
-15.0,-2.0,10.0,12.0,7.0,5.0,28.0,26.0,1650823941779420.0
3.0,-12.0,-21.0,-17.0,-6.0,3.0,20.0,14.0,1650823941779420.0
-27.0,-35.0,-16.0,-7.0,3.0,-9.0,-18.0,-23.0,1650823941780421.0
11.0,1.0,-5.0,-11.0,-15.0,-4.0,-12.0,-4.0,1650823941780421.0
-2.0,-5.0,-4.0,2.0,-2.0,-10.0,-6.0,1.0,1650823941801350.0
18.0,18.0,38.0,28.0,20.0,16.0,17.0,34.0,1650823941801350.0
4.0,13.0,7.0,43.0,21.0,18.0,12.0,15.0,1650823941803346.0
-23.0,3.0,-56.0,-95.0,-32.0,-23.0,-17.0,-35.0,1650823941803346.0
1.0,-10.0,10.0,-5.0,-8.0,0.0,0.0,10.0,1650823941815390.0
-18.0,-64.0,-19.0,4.0,-3.0,-7.0,-15.0,-24.0,1650823941815390.0
16.0,28.0,40.0,41.0,13.0,14.0,8.0,2.0,1650823941824369.0
-2.0,-31.0,-28.0,-24.0,-15.0,-11.0,-5.0,30.0,1650823941824369.0
0.0,5.0,3.0,-10.0,-1.0,-2.0,4.0,-2.0,1650823941846311.0
1.0,-5.0,-18.0,-12.0,-5.0,-1.0,-17.0,7.0,1650823941846311.0
11.0,13.0,14.0,5.0,5.0,7.0,3.0,0.0,1650823941848305.0
-12.0,3.0,17.0,35.0,43.0,9.0,6.0,1.0,1650823941848305.0
-15.0,-12.0,-15.0,-8.0,-38.0,-8.0,-13.0,-9.0,1650823941861270.0
-1.0,12.0,6.0,4.0,2.0,6.0,-4.0,-19.0,1650823941861270.0
-2.0,0.0,-5.0,-5.0,1.0,-2.0,13.0,25.0,1650823941863276.0
4.0,12.0,21.0,23.0,12.0,2.0,3.0,2.0,1650823941863276.0
8.0,-1.0,-2.0,2.0,11.0,0.0,-7.0,-3.0,1650823941875253.0
7.0,9.0,-14.0,-14.0,-5.0,-1.0,-3.0,-8.0,1650823941875253.0
0.0,-7.0,-11.0,-23.0,-20.0,-8.0,-8.0,-12.0,1650823941883875.0
-2.0,-10.0,2.0,3.0,-1.0,1.0,-9.0,-12.0,1650823941883875.0
10.0,20.0,12.0,15.0,12.0,5.0,10.0,2.0,1650823941898905.0
-2.0,0.0,-2.0,3.0,-5.0,-5.0,1.0,-2.0,1650823941898905.0
-9.0,-4.0,-2.0,-3.0,-1.0,-8.0,-7.0,-11.0,1650823941900860.0
-2.0,-7.0,-9.0,-19.0,-19.0,-11.0,0.0,0.0,1650823941900860.0
5.0,4.0,-5.0,-3.0,9.0,8.0,4.0,5.0,1650823941921777.0
-5.0,5.0,0.0,0.0,3.0,2.0,0.0,-11.0,1650823941921777.0
1.0,1.0,5.0,-5.0,-5.0,-5.0,-5.0,-5.0,1650823941922801.0
3.0,12.0,19.0,23.0,4.0,5.0,0.0,9.0,1650823941922801.0
4.0,-6.0,-8.0,-7.0,5.0,0.0,0.0,-4.0,1650823941935741.0
-3.0,0.0,0.0,-6.0,-14.0,-8.0,-11.0,-10.0,1650823941935741.0
1.0,1.0,-3.0,-5.0,-6.0,-3.0,2.0,3.0,1650823941943744.0
5.0,1.0,-11.0,-1.0,10.0,8.0,3.0,6.0,1650823941943744.0
-5.0,-7.0,-6.0,-6.0,-12.0,-6.0,-5.0,-8.0,1650823941959702.0
1.0,12.0,17.0,9.0,-5.0,-4.0,-3.0,-3.0,1650823941959702.0
-4.0,-15.0,-20.0,-4.0,-1.0,1.0,0.0,2.0,1650823941960694.0
-3.0,-8.0,9.0,10.0,10.0,5.0,2.0,-5.0,1650823941960694.0
3.0,-6.0,-3.0,-3.0,4.0,-2.0,-2.0,-3.0,1650823941981684.0
0.0,10.0,-4.0,4.0,3.0,5.0,-2.0,0.0,1650823941981684.0
-4.0,-19.0,-6.0,-10.0,-7.0,-1.0,1.0,0.0,1650823941983631.0
1.0,0.0,0.0,-3.0,-5.0,-4.0,-2.0,2.0,1650823941983631.0
-2.0,-3.0,3.0,7.0,5.0,5.0,2.0,-3.0,1650823941995587.0
6.0,10.0,3.0,-2.0,-2.0,-6.0,-4.0,-1.0,1650823941995587.0
-2.0,7.0,-7.0,-9.0,1.0,-3.0,-1.0,-1.0,1650823942004554.0
0.0,-2.0,6.0,10.0,8.0,1.0,1.0,0.0,1650823942004554.0
-2.0,-1.0,9.0,12.0,-11.0,0.0,-1.0,0.0,1650823942018669.0
-1.0,-13.0,-15.0,-17.0,-2.0,1.0,-6.0,-5.0,1650823942018669.0
-1.0,5.0,24.0,2.0,5.0,0.0,-3.0,-5.0,1650823942020645.0
2.0,12.0,22.0,9.0,-6.0,-6.0,1.0,3.0,1650823942020645.0
-3.0,-14.0,-30.0,-14.0,4.0,-3.0,-2.0,-4.0,1650823942041607.0
-1.0,-3.0,8.0,6.0,-4.0,2.0,-3.0,-2.0,1650823942041607.0
3.0,8.0,9.0,11.0,-1.0,2.0,2.0,2.0,1650823942043575.0
6.0,12.0,13.0,18.0,3.0,0.0,3.0,4.0,1650823942043575.0
-11.0,-24.0,-51.0,-51.0,-11.0,-5.0,-6.0,-8.0,1650823942055570.0
-7.0,-7.0,-7.0,-4.0,2.0,-2.0,-2.0,-4.0,1650823942055570.0
-1.0,-2.0,-7.0,-9.0,-8.0,-6.0,-3.0,0.0,1650823942064535.0
1.0,10.0,6.0,10.0,-6.0,19.0,5.0,3.0,1650823942064535.0
6.0,15.0,16.0,19.0,16.0,-8.0,4.0,3.0,1650823942079650.0
0.0,-3.0,-1.0,6.0,10.0,3.0,1.0,2.0,1650823942079650.0
0.0,-8.0,-30.0,-19.0,-6.0,0.0,-3.0,-2.0,1650823942080646.0
-2.0,-5.0,-10.0,-10.0,-10.0,-9.0,-5.0,-3.0,1650823942080646.0
-2.0,-6.0,-3.0,-4.0,10.0,8.0,-2.0,0.0,1650823942101746.0
-1.0,11.0,19.0,18.0,-12.0,0.0,3.0,1.0,1650823942101746.0
-3.0,-12.0,5.0,9.0,11.0,8.0,5.0,1.0,1650823942102715.0
0.0,-12.0,-4.0,-4.0,0.0,-4.0,-5.0,-2.0,1650823942102715.0
-6.0,-13.0,-17.0,-2.0,-3.0,4.0,1.0,-6.0,1650823942115721.0
-1.0,15.0,2.0,-10.0,-2.0,-14.0,-3.0,-2.0,1650823942115721.0
4.0,15.0,8.0,6.0,1.0,2.0,-1.0,1.0,1650823942124626.0
3.0,-4.0,-5.0,-2.0,-2.0,1.0,1.0,2.0,1650823942124626.0
-1.0,23.0,36.0,17.0,-4.0,0.0,-1.0,0.0,1650823942138588.0
7.0,9.0,21.0,16.0,12.0,9.0,5.0,4.0,1650823942138588.0
-7.0,-7.0,-5.0,-8.0,-7.0,-3.0,-2.0,-3.0,1650823942140584.0
0.0,-9.0,-22.0,-23.0,-3.0,-5.0,-3.0,-2.0,1650823942140584.0
5.0,9.0,20.0,11.0,-3.0,4.0,-2.0,3.0,1650823942161527.0
0.0,7.0,8.0,5.0,6.0,2.0,3.0,-1.0,1650823942161527.0
1.0,7.0,14.0,10.0,-2.0,-11.0,-3.0,1.0,1650823942163525.0
-7.0,-9.0,-29.0,-28.0,-10.0,-3.0,-4.0,-6.0,1650823942163525.0
-1.0,-13.0,-13.0,-3.0,-1.0,7.0,3.0,0.0,1650823942175490.0
-2.0,-15.0,-16.0,-6.0,1.0,5.0,0.0,0.0,1650823942175490.0
0.0,0.0,8.0,17.0,2.0,-2.0,-2.0,-2.0,1650823942184466.0
-1.0,4.0,28.0,20.0,2.0,-5.0,1.0,0.0,1650823942184466.0
-1.0,-10.0,-59.0,-43.0,-7.0,-8.0,-3.0,1.0,1650823942199494.0
-4.0,-2.0,12.0,4.0,-4.0,-1.0,-6.0,-2.0,1650823942199494.0
0.0,-1.0,-17.0,-13.0,2.0,3.0,1.0,-1.0,1650823942200424.0
0.0,-11.0,9.0,20.0,-1.0,3.0,4.0,1.0,1650823942200424.0
-2.0,3.0,21.0,11.0,-2.0,-5.0,-4.0,-11.0,1650823942221855.0
1.0,-3.0,-7.0,-3.0,1.0,0.0,0.0,-1.0,1650823942221855.0
1.0,8.0,10.0,4.0,5.0,3.0,2.0,0.0,1650823942222819.0
-6.0,-9.0,-6.0,8.0,0.0,-3.0,0.0,3.0,1650823942222819.0
14.0,20.0,29.0,1.0,-4.0,4.0,0.0,-3.0,1650823942234753.0
2.0,-9.0,-26.0,-14.0,0.0,-3.0,-3.0,-2.0,1650823942234753.0
-20.0,0.0,16.0,-3.0,-10.0,-6.0,-5.0,-7.0,1650823942244726.0
0.0,9.0,3.0,0.0,3.0,0.0,2.0,-1.0,1650823942244726.0
-5.0,-13.0,-12.0,13.0,5.0,4.0,2.0,4.0,1650823942258716.0
2.0,2.0,1.0,-5.0,17.0,8.0,-2.0,-1.0,1650823942258716.0
4.0,-12.0,-10.0,-17.0,-19.0,-10.0,-4.0,-3.0,1650823942260684.0
-2.0,-16.0,-27.0,-11.0,-7.0,-13.0,-3.0,2.0,1650823942260684.0
1.0,17.0,25.0,12.0,0.0,10.0,2.0,4.0,1650823942281696.0
-8.0,-7.0,-19.0,-5.0,3.0,-11.0,-1.0,-2.0,1650823942281696.0
2.0,-2.0,0.0,6.0,7.0,7.0,2.0,3.0,1650823942283665.0
1.0,7.0,1.0,-2.0,0.0,1.0,1.0,-1.0,1650823942283665.0
3.0,-2.0,7.0,5.0,-4.0,-4.0,-1.0,1.0,1650823942295591.0
-2.0,-15.0,-13.0,-1.0,-5.0,0.0,-1.0,-4.0,1650823942295591.0
4.0,8.0,-4.0,-9.0,-6.0,-2.0,-2.0,1.0,1650823942304566.0
-3.0,1.0,10.0,-3.0,-7.0,-4.0,-3.0,-2.0,1650823942304566.0
6.0,8.0,-13.0,4.0,23.0,6.0,3.0,5.0,1650823942319563.0
-3.0,-6.0,13.0,3.0,-17.0,0.0,0.0,1.0,1650823942319563.0
-3.0,9.0,3.0,-1.0,2.0,-3.0,0.0,-1.0,1650823942320531.0
2.0,3.0,1.0,5.0,11.0,10.0,2.0,-3.0,1650823942320531.0
-1.0,8.0,12.0,-1.0,1.0,-5.0,2.0,4.0,1650823942341494.0
-1.0,-3.0,-1.0,-2.0,2.0,0.0,0.0,0.0,1650823942341494.0
0.0,-27.0,-46.0,2.0,-8.0,-5.0,-6.0,-7.0,1650823942343462.0
0.0,8.0,0.0,-15.0,-10.0,-7.0,-6.0,-4.0,1650823942343462.0
3.0,16.0,6.0,-1.0,-5.0,-2.0,1.0,1.0,1650823942364487.0
-3.0,6.0,3.0,2.0,8.0,9.0,6.0,3.0,1650823942364487.0
3.0,14.0,26.0,6.0,5.0,5.0,5.0,7.0,1650823942365487.0
-5.0,-6.0,-3.0,-1.0,0.0,-3.0,-8.0,-8.0,1650823942365487.0
-3.0,-7.0,-1.0,0.0,-5.0,-6.0,-2.0,-3.0,1650823942379463.0
5.0,6.0,-6.0,0.0,-1.0,-4.0,-3.0,-1.0,1650823942379463.0
3.0,-1.0,-3.0,-14.0,-2.0,-3.0,3.0,5.0,1650823942380448.0
-1.0,4.0,7.0,4.0,5.0,7.0,3.0,1.0,1650823942380448.0
4.0,0.0,-5.0,3.0,11.0,3.0,2.0,2.0,1650823942401966.0
-12.0,-12.0,4.0,6.0,-9.0,1.0,-1.0,-1.0,1650823942401966.0
-3.0,-1.0,3.0,1.0,9.0,6.0,0.0,-1.0,1650823942402898.0
2.0,5.0,-2.0,0.0,7.0,-5.0,-1.0,3.0,1650823942402898.0
-5.0,-35.0,-26.0,-16.0,-29.0,-9.0,-2.0,-1.0,1650823942424587.0
0.0,-1.0,-12.0,-11.0,8.0,-3.0,-4.0,-4.0,1650823942424587.0
-2.0,4.0,10.0,4.0,-7.0,-2.0,-2.0,-5.0,1650823942425589.0
3.0,6.0,6.0,5.0,12.0,10.0,2.0,1.0,1650823942425589.0
-1.0,2.0,10.0,5.0,1.0,2.0,0.0,2.0,1650823942438551.0
4.0,-4.0,-20.0,-5.0,-6.0,-2.0,3.0,3.0,1650823942438551.0
-2.0,-3.0,2.0,-4.0,-3.0,0.0,-5.0,-4.0,1650823942440546.0
-1.0,1.0,4.0,2.0,-1.0,-1.0,1.0,1.0,1650823942440546.0
0.0,2.0,5.0,5.0,0.0,0.0,1.0,1.0,1650823942461508.0
2.0,2.0,0.0,-2.0,-4.0,-4.0,-2.0,0.0,1650823942461508.0
-3.0,-12.0,1.0,0.0,3.0,3.0,-2.0,-3.0,1650823942463504.0
0.0,2.0,-5.0,-1.0,-7.0,-1.0,2.0,1.0,1650823942463504.0
-2.0,3.0,6.0,8.0,5.0,3.0,0.0,-2.0,1650823942484514.0
-2.0,-2.0,2.0,-5.0,-3.0,1.0,-5.0,-4.0,1650823942484514.0
2.0,0.0,-5.0,-8.0,-7.0,-15.0,-3.0,0.0,1650823942485443.0
-14.0,-3.0,-1.0,-3.0,-6.0,-13.0,-4.0,-1.0,1650823942485443.0
-3.0,-1.0,5.0,3.0,1.0,5.0,0.0,-3.0,1650823942499475.0
4.0,6.0,9.0,12.0,1.0,2.0,4.0,2.0,1650823942499475.0
3.0,8.0,-7.0,1.0,8.0,7.0,5.0,4.0,1650823942500404.0
-4.0,-15.0,-20.0,-16.0,-21.0,-11.0,-5.0,-5.0,1650823942500404.0
3.0,5.0,16.0,1.0,5.0,-7.0,-4.0,0.0,1650823942521347.0
3.0,-1.0,1.0,7.0,8.0,12.0,1.0,1.0,1650823942521347.0
-2.0,-3.0,-2.0,2.0,0.0,-2.0,1.0,-2.0,1650823942523343.0
3.0,2.0,-2.0,0.0,3.0,0.0,2.0,0.0,1650823942523343.0
-1.0,-1.0,-5.0,-1.0,-4.0,-1.0,-3.0,-2.0,1650823942551268.0
2.0,1.0,7.0,-3.0,-5.0,-1.0,-1.0,0.0,1650823942551268.0
1.0,0.0,3.0,6.0,2.0,5.0,1.0,0.0,1650823942553263.0
3.0,5.0,9.0,4.0,1.0,0.0,-1.0,0.0,1650823942553263.0
-3.0,-14.0,-29.0,-13.0,-8.0,-4.0,-1.0,-2.0,1650823942566255.0
0.0,0.0,6.0,-2.0,-3.0,-7.0,-1.0,-4.0,1650823942566255.0
1.0,4.0,-3.0,-1.0,5.0,1.0,-1.0,0.0,1650823942568229.0
-1.0,-1.0,1.0,2.0,5.0,6.0,0.0,0.0,1650823942568229.0
1.0,3.0,3.0,0.0,0.0,1.0,-1.0,0.0,1650823942581256.0
-5.0,1.0,4.0,3.0,2.0,1.0,1.0,-4.0,1650823942581256.0
-2.0,-1.0,-4.0,-2.0,-8.0,-9.0,-2.0,-1.0,1650823942583183.0
1.0,0.0,-1.0,-1.0,3.0,5.0,-2.0,2.0,1650823942583183.0
-1.0,5.0,3.0,9.0,1.0,2.0,1.0,1.0,1650823942604154.0
-4.0,4.0,-2.0,-14.0,2.0,-4.0,-2.0,0.0,1650823942604154.0
2.0,-10.0,2.0,-9.0,-19.0,-3.0,-3.0,-3.0,1650823942606121.0
2.0,5.0,15.0,11.0,0.0,3.0,0.0,1.0,1650823942606121.0
-6.0,-13.0,-35.0,-18.0,5.0,-4.0,-1.0,-4.0,1650823942618156.0
-4.0,2.0,11.0,3.0,-5.0,-2.0,-1.0,0.0,1650823942618156.0
0.0,2.0,-7.0,3.0,18.0,1.0,0.0,2.0,1650823942625137.0
1.0,-2.0,-3.0,4.0,-11.0,4.0,-2.0,-1.0,1650823942625137.0
0.0,2.0,9.0,5.0,10.0,11.0,2.0,-2.0,1650823942642036.0
2.0,-1.0,-6.0,-3.0,-5.0,-23.0,-1.0,0.0,1650823942642036.0
-1.0,-1.0,1.0,-3.0,-4.0,-1.0,-1.0,0.0,1650823942643031.0
0.0,3.0,4.0,1.0,3.0,5.0,1.0,0.0,1650823942643031.0
-1.0,-1.0,10.0,1.0,-3.0,2.0,1.0,0.0,1650823942671709.0
-3.0,-3.0,-4.0,-4.0,-1.0,6.0,-2.0,-1.0,1650823942671709.0
-1.0,0.0,2.0,1.0,-3.0,-3.0,-1.0,-3.0,1650823942673633.0
0.0,-1.0,-4.0,-6.0,-9.0,-11.0,-4.0,-1.0,1650823942673633.0
0.0,1.0,2.0,2.0,28.0,5.0,-3.0,-2.0,1650823942678647.0
0.0,0.0,2.0,1.0,-12.0,7.0,5.0,1.0,1650823942678647.0
1.0,-1.0,-12.0,5.0,8.0,6.0,2.0,2.0,1650823942685609.0
-1.0,-3.0,5.0,-4.0,1.0,0.0,2.0,-2.0,1650823942685609.0
-2.0,-2.0,5.0,-3.0,-8.0,-10.0,-4.0,-1.0,1650823942701625.0
2.0,4.0,3.0,4.0,3.0,2.0,-3.0,-1.0,1650823942701625.0
2.0,11.0,11.0,0.0,-1.0,2.0,-2.0,2.0,1650823942703581.0
-5.0,-16.0,-16.0,-2.0,-13.0,-12.0,-2.0,-4.0,1650823942703581.0
-4.0,-17.0,9.0,6.0,-1.0,3.0,3.0,0.0,1650823942723736.0
-1.0,0.0,-11.0,0.0,3.0,3.0,0.0,-1.0,1650823942723736.0
0.0,2.0,4.0,1.0,-2.0,3.0,-1.0,-1.0,1650823942725704.0
-1.0,5.0,2.0,-3.0,5.0,1.0,-2.0,0.0,1650823942725704.0
1.0,6.0,2.0,-5.0,-12.0,-9.0,-1.0,-1.0,1650823942738739.0
-1.0,-3.0,2.0,0.0,-2.0,-3.0,-2.0,-2.0,1650823942738739.0
-1.0,-4.0,-2.0,0.0,2.0,-2.0,2.0,-1.0,1650823942745678.0
1.0,1.0,-3.0,1.0,10.0,4.0,-2.0,0.0,1650823942745678.0
-2.0,2.0,-3.0,-3.0,-15.0,-7.0,-2.0,0.0,1650823942761821.0
1.0,2.0,0.0,1.0,0.0,3.0,2.0,1.0,1650823942761821.0
-2.0,1.0,0.0,3.0,4.0,0.0,0.0,1.0,1650823942762759.0
1.0,0.0,1.0,-1.0,-5.0,1.0,0.0,0.0,1650823942762759.0
1.0,4.0,2.0,-2.0,1.0,8.0,-3.0,0.0,1650823942784272.0
-3.0,-4.0,0.0,0.0,4.0,-15.0,-3.0,-4.0,1650823942784272.0
-1.0,0.0,2.0,-1.0,-2.0,6.0,5.0,0.0,1650823942790697.0
0.0,1.0,2.0,0.0,7.0,4.0,1.0,0.0,1650823942790697.0
0.0,1.0,-3.0,-2.0,-4.0,-4.0,1.0,1.0,1650823942798842.0
-1.0,-1.0,3.0,-3.0,-6.0,-2.0,-1.0,-1.0,1650823942798842.0
0.0,-4.0,-6.0,-2.0,2.0,2.0,-2.0,-1.0,1650823942804880.0
4.0,14.0,19.0,4.0,3.0,2.0,2.0,3.0,1650823942804880.0
-5.0,-10.0,-4.0,2.0,-9.0,-7.0,-3.0,-5.0,1650823942821853.0
2.0,1.0,4.0,-5.0,0.0,3.0,1.0,0.0,1650823942821853.0
-3.0,-1.0,-5.0,-5.0,-2.0,0.0,-1.0,-2.0,1650823942827888.0
0.0,3.0,3.0,6.0,4.0,4.0,1.0,-1.0,1650823942827888.0
2.0,4.0,-4.0,-8.0,-1.0,-4.0,0.0,0.0,1650823942843822.0
1.0,1.0,4.0,4.0,1.0,-3.0,-2.0,2.0,1650823942843822.0
-4.0,-5.0,-2.0,-4.0,10.0,-5.0,-7.0,-4.0,1650823942845789.0
-2.0,-4.0,-7.0,-4.0,-35.0,-8.0,1.0,-1.0,1650823942845789.0
-1.0,3.0,4.0,9.0,16.0,14.0,5.0,1.0,1650823942857757.0
-2.0,-2.0,-6.0,0.0,13.0,10.0,2.0,0.0,1650823942857757.0
2.0,1.0,-4.0,4.0,4.0,1.0,1.0,1.0,1650823942866740.0
-1.0,-5.0,-6.0,-12.0,-1.0,-7.0,-3.0,-2.0,1650823942866740.0
-1.0,0.0,0.0,-4.0,-22.0,-20.0,-5.0,-3.0,1650823942881758.0
-1.0,-1.0,2.0,-4.0,-11.0,-3.0,-3.0,1.0,1650823942881758.0
-1.0,3.0,6.0,10.0,14.0,8.0,3.0,1.0,1650823942882718.0
0.0,-3.0,-9.0,4.0,10.0,4.0,2.0,0.0,1650823942882718.0
1.0,2.0,5.0,2.0,4.0,2.0,1.0,1.0,1650823942903923.0
0.0,-2.0,-4.0,-1.0,-5.0,-1.0,-2.0,-1.0,1650823942903923.0
-1.0,-1.0,3.0,-3.0,-14.0,-6.0,-2.0,0.0,1650823942905920.0
0.0,-1.0,2.0,6.0,3.0,-7.0,-2.0,-1.0,1650823942905920.0
0.0,-3.0,-17.0,-20.0,-9.0,-2.0,-1.0,-1.0,1650823942917955.0
-2.0,0.0,-2.0,0.0,7.0,4.0,1.0,-1.0,1650823942917955.0
-2.0,0.0,0.0,1.0,11.0,3.0,-1.0,0.0,1650823942926863.0
0.0,4.0,6.0,1.0,4.0,3.0,1.0,9.0,1650823942926863.0
-1.0,-2.0,-3.0,3.0,-9.0,0.0,-3.0,-16.0,1650823942949617.0
-4.0,-3.0,5.0,-4.0,-7.0,-8.0,-2.0,-2.0,1650823942949617.0
-1.0,-2.0,-4.0,-7.0,-7.0,0.0,-2.0,-1.0,1650823942950617.0
1.0,-1.0,-3.0,1.0,4.0,3.0,-2.0,-3.0,1650823942950617.0
1.0,4.0,6.0,10.0,9.0,4.0,3.0,4.0,1650823942964585.0
1.0,0.0,-4.0,4.0,8.0,3.0,2.0,1.0,1650823942964585.0
-1.0,-2.0,1.0,-4.0,-15.0,-8.0,-3.0,-4.0,1650823942965577.0
-1.0,-4.0,-6.0,-4.0,0.0,-1.0,-4.0,-2.0,1650823942965577.0
-1.0,-1.0,3.0,-3.0,9.0,1.0,-3.0,7.0,1650823942977608.0
1.0,-1.0,-6.0,-2.0,-6.0,-4.0,3.0,1.0,1650823942977608.0
2.0,4.0,6.0,5.0,6.0,7.0,9.0,13.0,1650823942986520.0
0.0,1.0,-3.0,1.0,-1.0,0.0,1.0,-5.0,1650823942986520.0
-1.0,-4.0,1.0,-1.0,-4.0,-9.0,-2.0,-1.0,1650823943001547.0
-1.0,4.0,18.0,4.0,-2.0,-4.0,-5.0,-3.0,1650823943001547.0
0.0,-1.0,0.0,-8.0,-10.0,-4.0,-2.0,4.0,1650823943003475.0
-4.0,1.0,-4.0,-2.0,12.0,1.0,-1.0,-14.0,1650823943003475.0
-2.0,-3.0,-7.0,3.0,-7.0,6.0,1.0,1.0,1650823943024418.0
1.0,7.0,10.0,3.0,3.0,-6.0,0.0,0.0,1650823943024418.0
-1.0,-4.0,-13.0,-5.0,-5.0,2.0,-1.0,-8.0,1650823943025417.0
-1.0,2.0,2.0,-2.0,2.0,2.0,1.0,1.0,1650823943025417.0
3.0,6.0,8.0,14.0,14.0,6.0,3.0,2.0,1650823943037449.0
-5.0,-11.0,-18.0,-14.0,-5.0,2.0,-2.0,-2.0,1650823943037449.0
-1.0,0.0,1.0,-6.0,-7.0,-5.0,-2.0,-2.0,1650823943046360.0
-1.0,-5.0,-14.0,-9.0,-12.0,-10.0,-2.0,0.0,1650823943046360.0
-3.0,-1.0,2.0,-4.0,0.0,-2.0,-2.0,-4.0,1650823943076311.0
2.0,2.0,0.0,13.0,12.0,9.0,4.0,8.0,1650823943076311.0
2.0,2.0,-2.0,-3.0,10.0,6.0,6.0,11.0,1650823943078275.0
-3.0,-2.0,5.0,5.0,3.0,-1.0,-2.0,-17.0,1650823943078275.0
-2.0,-3.0,-6.0,-10.0,-24.0,-4.0,-5.0,-8.0,1650823943084287.0
0.0,1.0,5.0,2.0,-9.0,-19.0,-2.0,-2.0,1650823943084287.0
-3.0,-2.0,6.0,17.0,4.0,-3.0,-4.0,-12.0,1650823943085283.0
-1.0,-3.0,-9.0,-24.0,-5.0,6.0,2.0,18.0,1650823943085283.0
-1.0,-16.0,-26.0,2.0,3.0,-8.0,-1.0,9.0,1650823943097229.0
0.0,13.0,18.0,-2.0,0.0,4.0,-3.0,-8.0,1650823943097229.0
0.0,-7.0,-12.0,1.0,-3.0,0.0,-1.0,6.0,1650823943107211.0
-1.0,1.0,16.0,13.0,0.0,-1.0,3.0,6.0,1650823943107211.0
0.0,7.0,9.0,9.0,9.0,8.0,1.0,-1.0,1650823943121188.0
2.0,-5.0,-15.0,-11.0,-8.0,-3.0,-1.0,6.0,1650823943121188.0
-3.0,-2.0,-4.0,-5.0,5.0,-3.0,-4.0,-9.0,1650823943123155.0
2.0,-1.0,2.0,0.0,-4.0,3.0,0.0,6.0,1650823943123155.0
-1.0,6.0,8.0,4.0,7.0,5.0,4.0,-4.0,1650823943152165.0
2.0,1.0,1.0,13.0,4.0,4.0,-1.0,0.0,1650823943152165.0
-2.0,-5.0,-3.0,-11.0,-5.0,-10.0,-5.0,3.0,1650823943153162.0
-2.0,-7.0,-13.0,-16.0,-17.0,-7.0,-5.0,-19.0,1650823943153162.0
3.0,10.0,19.0,9.0,9.0,0.0,3.0,6.0,1650823943158148.0
-1.0,-7.0,7.0,-7.0,4.0,18.0,3.0,29.0,1650823943158148.0
2.0,4.0,-39.0,-4.0,-5.0,-16.0,-3.0,-21.0,1650823943167126.0
0.0,1.0,15.0,1.0,-5.0,-6.0,-5.0,6.0,1650823943167126.0
-1.0,-5.0,-17.0,-11.0,-8.0,-4.0,-2.0,0.0,1650823943182092.0
1.0,2.0,14.0,2.0,3.0,6.0,1.0,3.0,1650823943182092.0
-3.0,-5.0,0.0,3.0,4.0,11.0,6.0,5.0,1650823943183082.0
-1.0,-3.0,8.0,17.0,9.0,-1.0,-3.0,1.0,1650823943183082.0
1.0,-2.0,-21.0,-13.0,-10.0,-4.0,-4.0,-8.0,1650823943204053.0
-2.0,-2.0,-7.0,-1.0,3.0,-3.0,-3.0,5.0,1650823943204053.0
1.0,2.0,9.0,4.0,0.0,9.0,2.0,2.0,1650823943206020.0
-2.0,-1.0,-6.0,2.0,-1.0,-9.0,0.0,-4.0,1650823943206020.0
-2.0,-1.0,6.0,-2.0,-2.0,-4.0,-4.0,-2.0,1650823943227178.0
-3.0,-9.0,-17.0,-10.0,7.0,-2.0,-1.0,-11.0,1650823943227178.0
0.0,4.0,-6.0,-7.0,-18.0,-1.0,1.0,1.0,1650823943229106.0
1.0,-2.0,-3.0,10.0,16.0,12.0,7.0,7.0,1650823943229106.0
3.0,8.0,16.0,13.0,7.0,2.0,-2.0,-1.0,1650823943241101.0
-1.0,1.0,-14.0,-16.0,-3.0,-6.0,-2.0,-7.0,1650823943241101.0
-2.0,-1.0,4.0,-5.0,-4.0,0.0,-3.0,-3.0,1650823943243068.0
1.0,-1.0,-4.0,-4.0,-11.0,-7.0,-3.0,0.0,1650823943243068.0
-7.0,-9.0,-14.0,-15.0,-1.0,5.0,3.0,-7.0,1650823943264033.0
5.0,7.0,13.0,21.0,4.0,1.0,1.0,-2.0,1650823943264033.0
3.0,10.0,31.0,15.0,21.0,13.0,-1.0,-6.0,1650823943266035.0
-4.0,-7.0,-27.0,-20.0,-22.0,-12.0,-2.0,7.0,1650823943266035.0
0.0,-6.0,19.0,4.0,-5.0,-14.0,7.0,30.0,1650823943278041.0
-5.0,-7.0,-4.0,-3.0,-4.0,4.0,-8.0,-30.0,1650823943278041.0
3.0,15.0,9.0,-1.0,-5.0,-12.0,-6.0,-3.0,1650823943286951.0
-6.0,-28.0,-7.0,13.0,14.0,6.0,2.0,-10.0,1650823943286951.0
2.0,10.0,19.0,5.0,1.0,1.0,-4.0,5.0,1650823943302027.0
0.0,-2.0,-16.0,-7.0,-3.0,-3.0,3.0,8.0,1650823943302027.0
1.0,1.0,7.0,1.0,-11.0,-1.0,1.0,5.0,1650823943302944.0
3.0,19.0,29.0,19.0,15.0,5.0,0.0,-2.0,1650823943302944.0
0.0,-4.0,-34.0,-5.0,3.0,4.0,4.0,-5.0,1650823943324052.0
0.0,-6.0,-9.0,-20.0,-7.0,-1.0,-3.0,8.0,1650823943324052.0
2.0,3.0,-12.0,-4.0,-1.0,-3.0,-2.0,-13.0,1650823943326045.0
-2.0,-1.0,15.0,-19.0,-16.0,-9.0,-10.0,4.0,1650823943326045.0
-1.0,-1.0,0.0,12.0,11.0,3.0,1.0,-13.0,1650823943346726.0
-2.0,6.0,1.0,6.0,-7.0,3.0,1.0,-5.0,1650823943346726.0
-1.0,-10.0,-2.0,-3.0,-2.0,-2.0,1.0,20.0,1650823943348647.0
8.0,20.0,23.0,20.0,16.0,10.0,8.0,1.0,1650823943348647.0
-5.0,-12.0,1.0,-5.0,-2.0,-1.0,-2.0,-8.0,1650823943361667.0
-8.0,-14.0,-46.0,-30.0,-5.0,-3.0,2.0,-19.0,1650823943361667.0
3.0,3.0,26.0,13.0,3.0,1.0,1.0,1.0,1650823943363595.0
1.0,1.0,-6.0,-5.0,-12.0,-5.0,-3.0,-16.0,1650823943363595.0
-8.0,-11.0,-28.0,-5.0,7.0,4.0,-9.0,-19.0,1650823943384541.0
5.0,-7.0,3.0,12.0,1.0,-4.0,13.0,19.0,1650823943384541.0
1.0,13.0,12.0,7.0,5.0,-1.0,-2.0,8.0,1650823943386558.0
-15.0,-27.0,-20.0,-15.0,-3.0,-2.0,-7.0,-10.0,1650823943386558.0
-1.0,5.0,8.0,7.0,-9.0,-1.0,9.0,28.0,1650823943406744.0
2.0,-5.0,4.0,6.0,7.0,0.0,-13.0,10.0,1650823943406744.0
12.0,18.0,-8.0,-14.0,0.0,4.0,7.0,10.0,1650823943408688.0
-5.0,5.0,-5.0,-6.0,-4.0,7.0,0.0,-24.0,1650823943408688.0
11.0,34.0,54.0,-1.0,-1.0,-2.0,3.0,18.0,1650823943421828.0
-9.0,-33.0,-19.0,23.0,11.0,0.0,1.0,-5.0,1650823943421828.0
-9.0,-7.0,9.0,-2.0,-4.0,-7.0,-4.0,-10.0,1650823943422758.0
8.0,-1.0,-6.0,1.0,11.0,11.0,10.0,15.0,1650823943422758.0
1.0,5.0,-8.0,10.0,-3.0,0.0,-5.0,-16.0,1650823943443942.0
-3.0,-8.0,-31.0,-30.0,-11.0,-8.0,-20.0,-58.0,1650823943443942.0
-6.0,-2.0,22.0,-1.0,-12.0,-9.0,-3.0,18.0,1650823943445966.0
3.0,-12.0,-23.0,1.0,3.0,-4.0,-16.0,-7.0,1650823943445966.0
8.0,35.0,-4.0,-25.0,7.0,12.0,18.0,6.0,1650823943466950.0
5.0,20.0,27.0,11.0,-7.0,1.0,0.0,12.0,1650823943466950.0
-9.0,-23.0,-18.0,-6.0,-7.0,-3.0,-3.0,-17.0,1650823943467889.0
6.0,23.0,20.0,8.0,2.0,-3.0,-5.0,-4.0,1650823943467889.0
9.0,-8.0,0.0,44.0,6.0,-1.0,-5.0,-1.0,1650823943480846.0
-9.0,-33.0,-54.0,-44.0,2.0,2.0,19.0,43.0,1650823943480846.0
-3.0,-7.0,-1.0,-4.0,-6.0,3.0,1.0,-4.0,1650823943487890.0
-2.0,7.0,31.0,25.0,6.0,3.0,-1.0,-22.0,1650823943487890.0
10.0,32.0,22.0,-1.0,4.0,-4.0,2.0,49.0,1650823943504998.0
-5.0,-13.0,-35.0,-26.0,-18.0,-2.0,10.0,2.0,1650823943504998.0
8.0,6.0,28.0,40.0,28.0,12.0,-2.0,3.0,1650823943505901.0
-1.0,-4.0,-12.0,-24.0,-4.0,-8.0,7.0,7.0,1650823943505901.0
-14.0,-21.0,20.0,14.0,-11.0,-6.0,-6.0,-34.0,1650823943526901.0
-6.0,9.0,-26.0,-31.0,-19.0,-16.0,-30.0,-21.0,1650823943526901.0
3.0,-10.0,-16.0,-14.0,-15.0,-9.0,-1.0,17.0,1650823943527831.0
2.0,10.0,-11.0,20.0,5.0,6.0,7.0,5.0,1650823943527831.0
-11.0,-27.0,-8.0,-10.0,19.0,11.0,-4.0,-21.0,1650823943540798.0
11.0,28.0,62.0,28.0,12.0,3.0,4.0,16.0,1650823943540798.0
-21.0,-12.0,-44.0,-36.0,-19.0,-7.0,3.0,-6.0,1650823943547792.0
16.0,37.0,26.0,0.0,10.0,0.0,-2.0,8.0,1650823943547792.0
-6.0,-44.0,-33.0,-25.0,-6.0,-1.0,1.0,-1.0,1650823943563748.0
-17.0,-37.0,-19.0,29.0,7.0,7.0,10.0,-24.0,1650823943563748.0
11.0,41.0,38.0,26.0,22.0,13.0,-7.0,5.0,1650823943565730.0
-14.0,-49.0,-51.0,-17.0,-16.0,-11.0,6.0,27.0,1650823943565730.0
-6.0,14.0,6.0,-1.0,-12.0,-8.0,-9.0,-42.0,1650823943586760.0
23.0,34.0,58.0,24.0,9.0,1.0,-11.0,17.0,1650823943586760.0
-15.0,4.0,-1.0,17.0,0.0,2.0,7.0,-17.0,1650823943587751.0
4.0,-18.0,21.0,15.0,8.0,13.0,5.0,-9.0,1650823943587751.0
2.0,3.0,-50.0,-64.0,-21.0,-14.0,5.0,47.0,1650823943600761.0
-11.0,-17.0,38.0,2.0,-13.0,-16.0,-5.0,-19.0,1650823943600761.0
24.0,7.0,19.0,11.0,14.0,21.0,5.0,8.0,1650823943607705.0
28.0,41.0,30.0,29.0,19.0,15.0,23.0,48.0,1650823943607705.0
-12.0,-31.0,-65.0,-29.0,2.0,2.0,1.0,-23.0,1650823943623762.0
-3.0,25.0,30.0,21.0,2.0,-1.0,-3.0,-6.0,1650823943623762.0
-3.0,-5.0,-11.0,2.0,-23.0,-19.0,-10.0,1.0,1650823943625730.0
-11.0,-14.0,-27.0,-22.0,2.0,0.0,17.0,24.0,1650823943625730.0
17.0,3.0,5.0,-5.0,-6.0,-4.0,-14.0,7.0,1650823943646700.0
1.0,5.0,-1.0,0.0,-1.0,0.0,-8.0,17.0,1650823943646700.0
-6.0,1.0,8.0,-4.0,10.0,-1.0,15.0,-18.0,1650823943648669.0
0.0,3.0,-26.0,3.0,-22.0,-7.0,-12.0,14.0,1650823943648669.0
-18.0,-50.0,-6.0,-2.0,-1.0,-1.0,0.0,0.0,1650823943661660.0
-3.0,4.0,2.0,9.0,6.0,2.0,4.0,18.0,1650823943661660.0
9.0,8.0,-1.0,15.0,11.0,7.0,13.0,26.0,1650823943667617.0
-9.0,-21.0,12.0,-57.0,-21.0,-15.0,-23.0,-11.0,1650823943667617.0
1.0,6.0,12.0,22.0,-8.0,-7.0,-3.0,-26.0,1650823943684689.0
-9.0,-4.0,-1.0,-7.0,-15.0,-5.0,0.0,-11.0,1650823943684689.0
1.0,-7.0,-11.0,-10.0,36.0,22.0,4.0,-1.0,1650823943685696.0
-9.0,-8.0,-24.0,2.0,-9.0,-5.0,-2.0,-11.0,1650823943685696.0
5.0,8.0,28.0,31.0,12.0,12.0,0.0,15.0,1650823943706792.0
5.0,13.0,-2.0,0.0,0.0,9.0,17.0,7.0,1650823943706792.0
-6.0,0.0,-21.0,-13.0,-22.0,-25.0,-15.0,1.0,1650823943707723.0
13.0,27.0,33.0,23.0,15.0,7.0,6.0,6.0,1650823943707723.0
-8.0,24.0,9.0,-6.0,4.0,-1.0,-8.0,-31.0,1650823943720755.0
35.0,24.0,31.0,26.0,13.0,15.0,27.0,39.0,1650823943720755.0
-9.0,-3.0,2.0,-13.0,-12.0,-2.0,9.0,23.0,1650823943727733.0
-2.0,17.0,2.0,-9.0,-8.0,-15.0,-31.0,-8.0,1650823943727733.0
-5.0,4.0,-3.0,15.0,0.0,-5.0,-15.0,-32.0,1650823943744643.0
8.0,33.0,0.0,-11.0,7.0,2.0,-1.0,-21.0,1650823943744643.0
28.0,0.0,15.0,43.0,16.0,12.0,13.0,27.0,1650823943745622.0
-39.0,-7.0,-8.0,-64.0,-16.0,-6.0,-2.0,-50.0,1650823943745622.0
-7.0,-16.0,-15.0,-36.0,-38.0,-14.0,-8.0,1.0,1650823943766567.0
-5.0,13.0,34.0,-11.0,-15.0,-3.0,-5.0,-12.0,1650823943766567.0
5.0,-9.0,-11.0,29.0,27.0,5.0,0.0,-6.0,1650823943768561.0
-7.0,-19.0,37.0,42.0,12.0,8.0,5.0,-19.0,1650823943768561.0
15.0,10.0,-51.0,-24.0,14.0,9.0,15.0,58.0,1650823943781526.0
-18.0,-12.0,31.0,13.0,7.0,-9.0,-18.0,-28.0,1650823943781526.0
-12.0,-20.0,-23.0,-36.0,-32.0,-13.0,3.0,-11.0,1650823943787577.0
14.0,7.0,-1.0,22.0,5.0,0.0,-3.0,24.0,1650823943787577.0
3.0,9.0,21.0,-4.0,0.0,4.0,9.0,-43.0,1650823943804522.0
10.0,-9.0,-3.0,28.0,0.0,1.0,3.0,70.0,1650823943804522.0
0.0,33.0,8.0,-9.0,-2.0,-5.0,8.0,19.0,1650823943805530.0
-7.0,-6.0,-18.0,-13.0,4.0,4.0,3.0,-7.0,1650823943805530.0
2.0,-1.0,20.0,21.0,-5.0,-7.0,2.0,3.0,1650823943826709.0
5.0,23.0,-6.0,-6.0,8.0,5.0,6.0,-13.0,1650823943826709.0
-17.0,-24.0,-20.0,-21.0,-11.0,-8.0,-21.0,-24.0,1650823943828637.0
14.0,4.0,19.0,36.0,8.0,8.0,12.0,17.0,1650823943828637.0
8.0,5.0,-14.0,11.0,19.0,8.0,10.0,28.0,1650823943840626.0
-5.0,9.0,-2.0,-12.0,-15.0,-8.0,-5.0,-32.0,1650823943840626.0
-24.0,-61.0,-29.0,-55.0,-19.0,-11.0,-18.0,-25.0,1650823943849583.0
11.0,29.0,36.0,35.0,0.0,3.0,-1.0,-5.0,1650823943849583.0
-2.0,11.0,29.0,12.0,8.0,0.0,-4.0,3.0,1650823943864546.0
-5.0,-33.0,-29.0,8.0,8.0,1.0,-7.0,-12.0,1650823943864546.0
1.0,-10.0,-2.0,-24.0,-16.0,-7.0,-11.0,-24.0,1650823943865540.0
2.0,9.0,12.0,15.0,2.0,-8.0,4.0,27.0,1650823943865540.0
0.0,-9.0,-8.0,-11.0,-3.0,-2.0,-3.0,-6.0,1650823943886633.0
12.0,2.0,-11.0,-13.0,-6.0,-5.0,-17.0,-17.0,1650823943886633.0
-2.0,18.0,48.0,38.0,7.0,16.0,34.0,8.0,1650823943888560.0
-10.0,-24.0,-29.0,-20.0,-2.0,-5.0,-22.0,-19.0,1650823943888560.0
-4.0,3.0,4.0,0.0,2.0,-1.0,-5.0,-25.0,1650823943909517.0
11.0,-3.0,-4.0,-1.0,-2.0,-2.0,-11.0,-10.0,1650823943909517.0
-2.0,0.0,-14.0,11.0,6.0,6.0,3.0,-10.0,1650823943910501.0
2.0,-18.0,0.0,-12.0,1.0,3.0,10.0,20.0,1650823943910501.0
4.0,34.0,65.0,41.0,10.0,4.0,0.0,6.0,1650823943923613.0
-11.0,-23.0,-40.0,-57.0,-18.0,-5.0,2.0,-19.0,1650823943923613.0
9.0,-12.0,-33.0,20.0,12.0,11.0,0.0,13.0,1650823943939550.0
-12.0,15.0,1.0,-23.0,12.0,2.0,0.0,-15.0,1650823943939550.0
4.0,-3.0,5.0,25.0,4.0,3.0,-1.0,4.0,1650823943946558.0
1.0,31.0,38.0,24.0,14.0,7.0,14.0,21.0,1650823943946558.0
-2.0,-12.0,-14.0,-18.0,-27.0,-23.0,-19.0,-21.0,1650823943948527.0
-8.0,-1.0,-23.0,-14.0,-13.0,-6.0,0.0,29.0,1650823943948527.0
-2.0,-9.0,7.0,-10.0,-3.0,4.0,4.0,-1.0,1650823943960495.0
-19.0,-3.0,7.0,18.0,6.0,-1.0,-15.0,-34.0,1650823943960495.0
27.0,33.0,-2.0,-7.0,0.0,0.0,11.0,42.0,1650823943969471.0
-2.0,-12.0,-15.0,5.0,-1.0,3.0,-20.0,-42.0,1650823943969471.0
-8.0,-4.0,10.0,3.0,-1.0,-6.0,6.0,25.0,1650823943984547.0
-3.0,-11.0,-29.0,-13.0,5.0,3.0,2.0,2.0,1650823943984547.0
-15.0,1.0,33.0,13.0,-1.0,-6.0,-13.0,-31.0,1650823943985451.0
-3.0,-10.0,-21.0,-6.0,-8.0,-2.0,5.0,24.0,1650823943985451.0
-3.0,-11.0,-29.0,-30.0,-12.0,0.0,-5.0,-36.0,1650823944006570.0
0.0,34.0,16.0,13.0,-3.0,-4.0,-2.0,8.0,1650823944006570.0
-17.0,-60.0,-28.0,-24.0,23.0,8.0,-4.0,-16.0,1650823944008525.0
0.0,-15.0,-36.0,-20.0,-3.0,2.0,1.0,-10.0,1650823944008525.0
4.0,28.0,11.0,1.0,4.0,5.0,2.0,16.0,1650823944020533.0
2.0,-7.0,-1.0,9.0,-4.0,-4.0,5.0,0.0,1650823944020533.0
9.0,29.0,34.0,10.0,-5.0,-6.0,-3.0,6.0,1650823944029449.0
11.0,3.0,-26.0,-10.0,-9.0,1.0,20.0,22.0,1650823944029449.0
-2.0,-9.0,10.0,5.0,-4.0,-4.0,-3.0,-13.0,1650823944044401.0
8.0,-9.0,0.0,4.0,3.0,1.0,7.0,18.0,1650823944044401.0
5.0,2.0,10.0,3.0,3.0,4.0,1.0,-43.0,1650823944045400.0
-37.0,-5.0,15.0,-4.0,-5.0,-5.0,-6.0,-11.0,1650823944045400.0
11.0,-10.0,-16.0,-5.0,0.0,-3.0,-4.0,26.0,1650823944068338.0
-1.0,8.0,8.0,3.0,0.0,5.0,-5.0,0.0,1650823944068338.0
5.0,21.0,22.0,23.0,-1.0,0.0,4.0,18.0,1650823944069335.0
12.0,19.0,-2.0,8.0,7.0,-2.0,-4.0,-23.0,1650823944069335.0
-7.0,-23.0,17.0,10.0,14.0,1.0,-3.0,-9.0,1650823944080647.0
-13.0,-53.0,-76.0,-49.0,-7.0,-4.0,2.0,9.0,1650823944080647.0
1.0,4.0,48.0,37.0,6.0,5.0,-10.0,8.0,1650823944088837.0
5.0,-4.0,15.0,21.0,10.0,3.0,7.0,-5.0,1650823944088837.0
-13.0,-39.0,-34.0,-32.0,-9.0,-9.0,-7.0,-14.0,1650823944103854.0
-4.0,-16.0,-36.0,-15.0,8.0,6.0,5.0,-1.0,1650823944103854.0
17.0,24.0,4.0,-9.0,-1.0,1.0,-5.0,2.0,1650823944105781.0
-20.0,-7.0,18.0,17.0,-3.0,-7.0,5.0,37.0,1650823944105781.0
1.0,11.0,-8.0,0.0,-8.0,-1.0,-9.0,-49.0,1650823944126797.0
-11.0,3.0,18.0,10.0,0.0,-3.0,-2.0,-49.0,1650823944126797.0
3.0,-12.0,-20.0,-8.0,1.0,0.0,8.0,1.0,1650823944127787.0
-3.0,-4.0,-6.0,-15.0,-6.0,-5.0,-15.0,-8.0,1650823944127787.0
16.0,11.0,-4.0,-9.0,-4.0,1.0,42.0,55.0,1650823944139754.0
-3.0,0.0,6.0,9.0,-4.0,-5.0,-18.0,13.0,1650823944139754.0
-1.0,14.0,4.0,2.0,-10.0,-5.0,-2.0,14.0,1650823944148723.0
13.0,-21.0,-7.0,-7.0,0.0,-3.0,-8.0,0.0,1650823944148723.0
-11.0,29.0,35.0,39.0,23.0,13.0,7.0,22.0,1650823944164547.0
-12.0,-34.0,-22.0,-60.0,-27.0,-10.0,-3.0,-9.0,1650823944164547.0
-13.0,-37.0,1.0,8.0,1.0,-4.0,-7.0,-4.0,1650823944165546.0
6.0,25.0,-56.0,-52.0,-12.0,4.0,2.0,-3.0,1650823944165546.0
-2.0,1.0,62.0,14.0,-14.0,-8.0,-9.0,-2.0,1650823944186195.0
19.0,27.0,29.0,36.0,19.0,11.0,21.0,44.0,1650823944186195.0
-3.0,4.0,-9.0,-15.0,-14.0,-9.0,-12.0,-7.0,1650823944188124.0
-1.0,21.0,17.0,17.0,-3.0,-3.0,-1.0,-47.0,1650823944188124.0
9.0,-11.0,-39.0,-16.0,-6.0,-9.0,-9.0,1.0,1650823944200091.0
-3.0,12.0,8.0,2.0,2.0,0.0,3.0,-13.0,1650823944200091.0
-5.0,-5.0,-10.0,-4.0,0.0,-1.0,-4.0,-20.0,1650823944209075.0
12.0,-1.0,10.0,12.0,4.0,8.0,12.0,16.0,1650823944209075.0
-12.0,-1.0,-15.0,-18.0,-9.0,-8.0,-26.0,-47.0,1650823944224055.0
-3.0,-2.0,27.0,19.0,1.0,-5.0,5.0,15.0,1650823944224055.0
5.0,10.0,-28.0,-5.0,-11.0,-7.0,1.0,-22.0,1650823944226043.0
-5.0,-48.0,12.0,-11.0,7.0,1.0,-7.0,-12.0,1650823944226043.0
-12.0,13.0,-3.0,0.0,-2.0,-5.0,-3.0,26.0,1650823944246993.0
0.0,15.0,26.0,11.0,-5.0,2.0,-1.0,5.0,1650823944246993.0
-1.0,14.0,-23.0,-24.0,15.0,6.0,2.0,16.0,1650823944247963.0
5.0,-1.0,89.0,62.0,-17.0,-11.0,-4.0,-3.0,1650823944247963.0
-18.0,-63.0,-35.0,-50.0,6.0,5.0,6.0,5.0,1650823944269080.0
14.0,25.0,39.0,38.0,21.0,14.0,9.0,2.0,1650823944269080.0
5.0,6.0,17.0,1.0,-1.0,1.0,-3.0,11.0,1650823944271077.0
8.0,16.0,-17.0,3.0,-1.0,-3.0,-6.0,-6.0,1650823944271077.0
16.0,12.0,-11.0,17.0,-2.0,1.0,3.0,17.0,1650823944284551.0
-5.0,-5.0,-16.0,-15.0,-6.0,-2.0,7.0,-2.0,1650823944284551.0
4.0,-2.0,-15.0,2.0,4.0,4.0,-12.0,-47.0,1650823944285551.0
-2.0,-5.0,-31.0,-16.0,-7.0,-2.0,14.0,13.0,1650823944285551.0
5.0,13.0,9.0,10.0,2.0,-1.0,-9.0,-16.0,1650823944306581.0
7.0,18.0,-17.0,-13.0,-7.0,-6.0,2.0,13.0,1650823944306581.0
-14.0,-13.0,-4.0,-4.0,-1.0,0.0,-18.0,-30.0,1650823944308509.0
1.0,7.0,10.0,1.0,4.0,2.0,4.0,1.0,1650823944308509.0
8.0,54.0,20.0,21.0,10.0,10.0,7.0,3.0,1650823944336501.0
-7.0,-19.0,-3.0,-22.0,-10.0,-3.0,-7.0,2.0,1650823944336501.0
13.0,33.0,57.0,36.0,9.0,2.0,27.0,57.0,1650823944338430.0
-9.0,1.0,-31.0,-21.0,3.0,-5.0,-12.0,-11.0,1650823944338430.0
1.0,-13.0,-33.0,-21.0,7.0,14.0,11.0,4.0,1650823944344441.0
-7.0,-18.0,16.0,7.0,-3.0,-7.0,-11.0,-19.0,1650823944344441.0
2.0,18.0,-4.0,0.0,-10.0,-4.0,4.0,20.0,1650823944345411.0
-9.0,-25.0,-8.0,-8.0,-2.0,2.0,-11.0,-21.0,1650823944345411.0
10.0,12.0,30.0,28.0,0.0,-5.0,4.0,14.0,1650823944366597.0
31.0,10.0,10.0,9.0,5.0,0.0,6.0,21.0,1650823944366597.0
-14.0,-35.0,-39.0,-29.0,-5.0,1.0,6.0,49.0,1650823944368586.0
2.0,8.0,27.0,15.0,6.0,-1.0,-17.0,8.0,1650823944368586.0
-6.0,2.0,-4.0,-6.0,-5.0,-5.0,6.0,10.0,1650823944389456.0
2.0,-2.0,-15.0,-9.0,-2.0,1.0,-5.0,-23.0,1650823944389456.0
-7.0,-18.0,-20.0,-12.0,-19.0,-14.0,-3.0,-18.0,1650823944390392.0
0.0,8.0,-2.0,-9.0,6.0,4.0,7.0,23.0,1650823944390392.0
11.0,-7.0,23.0,32.0,9.0,8.0,-2.0,9.0,1650823944402355.0
-17.0,-15.0,-30.0,-21.0,3.0,-3.0,-10.0,-10.0,1650823944402355.0
-1.0,-10.0,20.0,11.0,0.0,1.0,-4.0,5.0,1650823944411404.0
7.0,23.0,-52.0,-44.0,-11.0,-10.0,7.0,-13.0,1650823944411404.0
-2.0,-8.0,-32.0,-1.0,-8.0,2.0,-7.0,-4.0,1650823944426706.0
0.0,0.0,-11.0,3.0,8.0,6.0,8.0,13.0,1650823944426706.0
-10.0,-21.0,-15.0,1.0,2.0,0.0,-4.0,-16.0,1650823944428663.0
8.0,29.0,41.0,14.0,-5.0,-1.0,1.0,-16.0,1650823944428663.0
1.0,2.0,-15.0,-2.0,-1.0,-4.0,-6.0,-5.0,1650823944448742.0
-9.0,-1.0,7.0,8.0,-2.0,-6.0,-4.0,2.0,1650823944448742.0
4.0,-10.0,-25.0,-20.0,-6.0,-2.0,2.0,14.0,1650823944450741.0
2.0,-6.0,-6.0,2.0,3.0,8.0,0.0,-15.0,1650823944450741.0
-7.0,1.0,11.0,-4.0,0.0,-8.0,-10.0,-9.0,1650823944463903.0
-3.0,-1.0,7.0,2.0,-5.0,1.0,13.0,-1.0,1650823944463903.0
14.0,8.0,1.0,-9.0,-4.0,-2.0,-9.0,-8.0,1650823944470572.0
-5.0,-9.0,13.0,23.0,11.0,5.0,3.0,12.0,1650823944470572.0
-1.0,11.0,2.0,4.0,20.0,13.0,16.0,15.0,1650823944486853.0
-6.0,2.0,6.0,-22.0,-25.0,-15.0,-16.0,-10.0,1650823944486853.0
-2.0,-16.0,2.0,4.0,13.0,8.0,3.0,-10.0,1650823944487783.0
2.0,16.0,-9.0,-11.0,-5.0,-4.0,-1.0,12.0,1650823944487783.0
-5.0,-31.0,-24.0,-24.0,-22.0,-16.0,-15.0,-14.0,1650823944508794.0
11.0,27.0,16.0,37.0,18.0,13.0,12.0,17.0,1650823944508794.0
-12.0,-3.0,0.0,-25.0,-12.0,-5.0,7.0,11.0,1650823944510722.0
5.0,-3.0,4.0,-3.0,2.0,-2.0,-1.0,17.0,1650823944510722.0
-3.0,-3.0,6.0,0.0,-4.0,-1.0,-5.0,-15.0,1650823944523694.0
-1.0,-11.0,-4.0,5.0,-5.0,2.0,13.0,24.0,1650823944523694.0
-9.0,20.0,9.0,13.0,6.0,3.0,3.0,13.0,1650823944530668.0
7.0,-9.0,-8.0,3.0,5.0,0.0,7.0,22.0,1650823944530668.0
-6.0,2.0,-1.0,-7.0,-4.0,-10.0,-23.0,-40.0,1650823944546625.0
-6.0,-13.0,-8.0,2.0,-8.0,-1.0,-9.0,0.0,1650823944546625.0
7.0,12.0,8.0,11.0,17.0,14.0,5.0,-33.0,1650823944548625.0
4.0,-5.0,-2.0,3.0,4.0,7.0,15.0,15.0,1650823944548625.0
-2.0,-11.0,-7.0,-8.0,1.0,0.0,4.0,17.0,1650823944568579.0
-3.0,7.0,18.0,12.0,-8.0,-5.0,-6.0,-13.0,1650823944568579.0
14.0,2.0,-6.0,-11.0,12.0,1.0,-1.0,1.0,1650823944570562.0
0.0,9.0,28.0,10.0,-8.0,-5.0,-4.0,-5.0,1650823944570562.0
-7.0,-32.0,-54.0,15.0,14.0,15.0,1.0,-3.0,1650823944583532.0
-12.0,-12.0,-11.0,-38.0,-12.0,-12.0,-9.0,-13.0,1650823944583532.0
4.0,16.0,11.0,7.0,2.0,1.0,-3.0,6.0,1650823944590575.0
-4.0,-11.0,15.0,8.0,-7.0,-7.0,-6.0,-9.0,1650823944590575.0
6.0,28.0,29.0,15.0,3.0,4.0,3.0,8.0,1650823944614547.0
5.0,-3.0,-15.0,2.0,9.0,6.0,2.0,-9.0,1650823944614547.0
-7.0,-13.0,-9.0,-1.0,-11.0,-11.0,-10.0,-1.0,1650823944615540.0
-3.0,15.0,7.0,-3.0,0.0,-1.0,-5.0,-29.0,1650823944615540.0
3.0,-6.0,-8.0,-5.0,-2.0,6.0,7.0,1.0,1650823944629517.0
-8.0,-1.0,-2.0,2.0,4.0,1.0,15.0,23.0,1650823944629517.0
-4.0,8.0,5.0,3.0,-2.0,-1.0,-8.0,-18.0,1650823944630503.0
-5.0,-20.0,-17.0,-22.0,-10.0,-3.0,-2.0,0.0,1650823944630503.0
-15.0,2.0,14.0,-3.0,2.0,1.0,-6.0,-10.0,1650823944643952.0
9.0,7.0,15.0,19.0,17.0,11.0,-3.0,-5.0,1650823944643952.0
-1.0,3.0,0.0,-2.0,-9.0,-9.0,0.0,9.0,1650823944650053.0
-7.0,-8.0,-8.0,19.0,12.0,8.0,8.0,7.0,1650823944650053.0
8.0,7.0,15.0,-12.0,-8.0,-5.0,4.0,7.0,1650823944667005.0
2.0,4.0,-17.0,-2.0,5.0,-3.0,-3.0,1.0,1650823944667005.0
-10.0,-13.0,-10.0,-14.0,-12.0,-6.0,-2.0,3.0,1650823944668010.0
3.0,1.0,-3.0,5.0,10.0,5.0,-4.0,-6.0,1650823944668010.0
7.0,23.0,7.0,7.0,-7.0,-7.0,6.0,10.0,1650823944689010.0
0.0,14.0,30.0,15.0,1.0,1.0,2.0,-5.0,1650823944689010.0
-7.0,-3.0,-19.0,-13.0,-14.0,-4.0,-1.0,-7.0,1650823944690938.0
-3.0,-7.0,-9.0,-15.0,-6.0,-7.0,-13.0,-6.0,1650823944690938.0
2.0,3.0,9.0,7.0,2.0,0.0,26.0,21.0,1650823944703306.0
18.0,9.0,-8.0,-7.0,1.0,-6.0,14.0,-6.0,1650823944703306.0
-14.0,-3.0,-4.0,1.0,3.0,1.0,-49.0,-46.0,1650823944710249.0
-3.0,-9.0,-3.0,2.0,-1.0,-4.0,-8.0,22.0,1650823944710249.0
2.0,2.0,12.0,14.0,6.0,1.0,-5.0,23.0,1650823944725310.0
1.0,-26.0,-48.0,-32.0,-11.0,-2.0,3.0,8.0,1650823944725310.0
-14.0,-3.0,18.0,6.0,1.0,-1.0,20.0,12.0,1650823944734267.0
-2.0,-4.0,-13.0,-10.0,-3.0,0.0,-4.0,2.0,1650823944734267.0
-2.0,-6.0,-9.0,-6.0,-13.0,-9.0,-14.0,-24.0,1650823944749217.0
-7.0,-4.0,-2.0,3.0,2.0,-2.0,3.0,7.0,1650823944749217.0
10.0,6.0,8.0,15.0,16.0,8.0,4.0,-4.0,1650823944751220.0
-2.0,3.0,-8.0,-2.0,8.0,11.0,6.0,3.0,1650823944751220.0
1.0,0.0,2.0,1.0,1.0,-2.0,3.0,5.0,1650823944763221.0
-1.0,2.0,15.0,-3.0,-2.0,-7.0,-19.0,-14.0,1650823944763221.0
4.0,1.0,-9.0,-15.0,-18.0,-9.0,15.0,19.0,1650823944771952.0
7.0,-8.0,-19.0,-1.0,13.0,9.0,3.0,-6.0,1650823944771952.0
-5.0,-20.0,1.0,-6.0,-15.0,-10.0,-4.0,-7.0,1650823944786979.0
-11.0,4.0,10.0,6.0,11.0,2.0,-9.0,-9.0,1650823944786979.0
1.0,1.0,4.0,1.0,3.0,-3.0,-7.0,2.0,1650823944787920.0
-2.0,7.0,5.0,-2.0,-5.0,-1.0,11.0,-4.0,1650823944787920.0
-1.0,2.0,-3.0,-4.0,1.0,2.0,-6.0,-3.0,1650823944809012.0
-3.0,-2.0,-2.0,2.0,1.0,5.0,2.0,17.0,1650823944809012.0
2.0,-6.0,-7.0,2.0,0.0,1.0,5.0,3.0,1650823944810964.0
9.0,0.0,5.0,1.0,-4.0,-5.0,-3.0,-4.0,1650823944810964.0
-16.0,1.0,-2.0,-8.0,-3.0,-10.0,3.0,-1.0,1650823944822930.0
0.0,-2.0,-3.0,-2.0,-2.0,-2.0,-6.0,-3.0,1650823944822930.0
5.0,6.0,6.0,12.0,1.0,10.0,12.0,12.0,1650823944831906.0
17.0,2.0,21.0,14.0,20.0,13.0,7.0,-4.0,1650823944831906.0
-9.0,1.0,3.0,-3.0,-1.0,1.0,-7.0,2.0,1650823944854522.0
-8.0,-16.0,-14.0,-15.0,3.0,-2.0,-7.0,-5.0,1650823944854522.0
-1.0,-3.0,-7.0,-11.0,-20.0,-9.0,2.0,-3.0,1650823944855837.0
-5.0,-4.0,0.0,-10.0,-13.0,-8.0,-5.0,0.0,1650823944855837.0
4.0,2.0,9.0,5.0,-7.0,-4.0,2.0,-3.0,1650823944868872.0
2.0,2.0,3.0,11.0,4.0,-4.0,-5.0,-7.0,1650823944868872.0
2.0,-4.0,-4.0,-8.0,8.0,4.0,2.0,3.0,1650823944870797.0
-3.0,3.0,-2.0,6.0,-1.0,8.0,5.0,-3.0,1650823944870797.0
-12.0,-3.0,-5.0,-7.0,4.0,4.0,-5.0,-7.0,1650823944891883.0
1.0,3.0,2.0,5.0,-1.0,2.0,-2.0,-6.0,1650823944891883.0
7.0,-6.0,-16.0,-1.0,1.0,-5.0,-8.0,-2.0,1650823944892875.0
-15.0,0.0,-1.0,-2.0,-10.0,-8.0,-1.0,2.0,1650823944892875.0
-1.0,-1.0,-7.0,-13.0,-3.0,2.0,9.0,7.0,1650823944906870.0
8.0,-14.0,-5.0,0.0,-6.0,-2.0,-9.0,-27.0,1650823944906870.0
12.0,20.0,7.0,3.0,5.0,8.0,2.0,3.0,1650823944907864.0
-1.0,-11.0,-2.0,-2.0,12.0,-1.0,-2.0,-5.0,1650823944907864.0
-3.0,-8.0,2.0,7.0,-5.0,1.0,1.0,-1.0,1650823944928812.0
1.0,21.0,18.0,11.0,-4.0,-6.0,3.0,8.0,1650823944928812.0
-8.0,-20.0,-18.0,-12.0,-4.0,-3.0,-2.0,-2.0,1650823944930779.0
-2.0,-2.0,-6.0,-9.0,-6.0,-3.0,-2.0,-3.0,1650823944930779.0
12.0,9.0,12.0,-1.0,-1.0,2.0,-2.0,-2.0,1650823944942747.0
-1.0,3.0,2.0,8.0,4.0,5.0,6.0,8.0,1650823944942747.0
0.0,10.0,5.0,8.0,5.0,1.0,0.0,0.0,1650823944951727.0
-8.0,-4.0,-3.0,0.0,-7.0,-3.0,-5.0,-3.0,1650823944951727.0
4.0,1.0,-11.0,0.0,2.0,-4.0,-2.0,0.0,1650823944966683.0
2.0,-7.0,-3.0,-15.0,-11.0,-4.0,-5.0,0.0,1650823944966683.0
1.0,1.0,9.0,5.0,3.0,1.0,4.0,3.0,1650823944968678.0
-12.0,4.0,-2.0,-2.0,-4.0,-3.0,-1.0,-5.0,1650823944968678.0
15.0,9.0,-2.0,1.0,4.0,3.0,1.0,2.0,1650823944989583.0
-24.0,-13.0,-18.0,1.0,3.0,6.0,2.0,-1.0,1650823944989583.0
-19.0,-16.0,9.0,4.0,-1.0,-4.0,2.0,-3.0,1650823944990583.0
2.0,-2.0,0.0,-4.0,-5.0,-4.0,-8.0,-9.0,1650823944990583.0
8.0,4.0,4.0,2.0,0.0,0.0,-2.0,-3.0,1650823945011686.0
5.0,8.0,-9.0,-3.0,-4.0,2.0,4.0,5.0,1650823945011686.0
8.0,13.0,-3.0,-3.0,2.0,5.0,3.0,8.0,1650823945013640.0
3.0,-18.0,9.0,8.0,2.0,3.0,4.0,3.0,1650823945013640.0
0.0,-13.0,1.0,-1.0,7.0,-6.0,-1.0,-3.0,1650823945026606.0
-18.0,5.0,10.0,2.0,-1.0,4.0,4.0,0.0,1650823945026606.0
-1.0,-1.0,5.0,2.0,-6.0,-6.0,-4.0,-2.0,1650823945028601.0
4.0,-1.0,-6.0,0.0,-4.0,-9.0,-1.0,-3.0,1650823945028601.0
-3.0,4.0,0.0,7.0,-13.0,-2.0,-3.0,4.0,1650823945049516.0
3.0,5.0,-6.0,-12.0,-7.0,-8.0,-2.0,-2.0,1650823945049516.0
-2.0,1.0,8.0,2.0,3.0,5.0,0.0,-3.0,1650823945050515.0
-5.0,6.0,-16.0,-1.0,-2.0,3.0,-6.0,-8.0,1650823945050515.0
-3.0,-23.0,-14.0,-17.0,4.0,-1.0,3.0,-2.0,1650823945063479.0
2.0,0.0,-1.0,4.0,4.0,3.0,-2.0,3.0,1650823945063479.0
-22.0,-11.0,-10.0,1.0,-1.0,-6.0,0.0,-1.0,1650823945071913.0
-3.0,1.0,17.0,2.0,-5.0,3.0,2.0,2.0,1650823945071913.0
4.0,6.0,8.0,2.0,2.0,-3.0,-1.0,-2.0,1650823945086941.0
6.0,-17.0,-4.0,1.0,9.0,5.0,1.0,0.0,1650823945086941.0
16.0,2.0,-11.0,2.0,2.0,-1.0,0.0,5.0,1650823945087871.0
-2.0,6.0,2.0,-5.0,-6.0,-7.0,-4.0,1.0,1650823945087871.0
-7.0,1.0,9.0,4.0,1.0,4.0,-3.0,-3.0,1650823945108880.0
5.0,-9.0,-11.0,4.0,-11.0,-3.0,0.0,2.0,1650823945108880.0
-9.0,12.0,7.0,-7.0,-7.0,-5.0,1.0,3.0,1650823945110838.0
-4.0,-15.0,-14.0,-8.0,8.0,0.0,-3.0,-2.0,1650823945110838.0
-1.0,2.0,-7.0,-17.0,-3.0,0.0,-5.0,-7.0,1650823945122804.0
4.0,4.0,10.0,10.0,-2.0,-4.0,-3.0,-1.0,1650823945122804.0
14.0,10.0,3.0,1.0,9.0,5.0,2.0,3.0,1650823945131753.0
13.0,12.0,-4.0,-1.0,-23.0,-5.0,4.0,2.0,1650823945131753.0
-11.0,-26.0,-17.0,2.0,-5.0,1.0,2.0,2.0,1650823945146771.0
16.0,19.0,28.0,4.0,12.0,5.0,4.0,1.0,1650823945146771.0
-33.0,-4.0,-4.0,-2.0,-1.0,2.0,-6.0,-10.0,1650823945147736.0
5.0,0.0,5.0,2.0,11.0,2.0,4.0,5.0,1650823945147736.0
9.0,4.0,-5.0,5.0,2.0,-1.0,-3.0,-3.0,1650823945169651.0
1.0,-5.0,-13.0,-11.0,-14.0,-6.0,-5.0,-1.0,1650823945169651.0
12.0,-2.0,4.0,-5.0,-3.0,-1.0,1.0,0.0,1650823945171658.0
-1.0,11.0,2.0,7.0,8.0,4.0,4.0,3.0,1650823945171658.0
1.0,7.0,2.0,4.0,9.0,5.0,3.0,2.0,1650823945182478.0
-5.0,-1.0,1.0,0.0,5.0,13.0,0.0,1.0,1650823945182478.0
5.0,-2.0,6.0,-5.0,-9.0,-20.0,-6.0,-4.0,1650823945192006.0
-5.0,1.0,3.0,-3.0,3.0,4.0,0.0,1.0,1650823945192006.0
-4.0,-4.0,-2.0,4.0,-13.0,-10.0,-1.0,-3.0,1650823945207005.0
-3.0,-7.0,-6.0,5.0,3.0,1.0,1.0,-1.0,1650823945207005.0
0.0,-3.0,-2.0,6.0,11.0,8.0,1.0,0.0,1650823945207934.0
2.0,1.0,2.0,9.0,1.0,5.0,0.0,2.0,1650823945207934.0
-4.0,-8.0,-16.0,-24.0,0.0,1.0,-1.0,-1.0,1650823945229083.0
-1.0,6.0,10.0,-3.0,6.0,-5.0,-4.0,0.0,1650823945229083.0
9.0,-2.0,-6.0,2.0,-15.0,-2.0,-1.0,0.0,1650823945231014.0
-6.0,-3.0,-6.0,-6.0,-6.0,-12.0,-3.0,-5.0,1650823945231014.0
24.0,24.0,15.0,7.0,-4.0,3.0,2.0,5.0,1650823945252006.0
-10.0,-22.0,-13.0,0.0,6.0,4.0,6.0,1.0,1650823945252006.0
4.0,-1.0,-3.0,6.0,14.0,6.0,-1.0,-2.0,1650823945252956.0
0.0,-6.0,2.0,2.0,7.0,4.0,1.0,0.0,1650823945252956.0
1.0,9.0,0.0,1.0,-6.0,-5.0,-5.0,0.0,1650823945267022.0
5.0,0.0,-7.0,-11.0,-8.0,-8.0,-5.0,-4.0,1650823945267022.0
0.0,8.0,8.0,4.0,1.0,2.0,6.0,5.0,1650823945267950.0
0.0,6.0,0.0,-1.0,-6.0,-4.0,-1.0,1.0,1650823945267950.0
-2.0,-3.0,0.0,-1.0,0.0,-2.0,-1.0,-3.0,1650823945288961.0
-3.0,1.0,1.0,-3.0,-4.0,-2.0,-2.0,-1.0,1650823945288961.0
-6.0,-1.0,-2.0,-3.0,-5.0,-4.0,-1.0,-4.0,1650823945296879.0
-6.0,-7.0,-8.0,-3.0,0.0,-2.0,-1.0,-3.0,1650823945296879.0
-7.0,-4.0,2.0,2.0,0.0,2.0,0.0,-3.0,1650823945311884.0
3.0,5.0,4.0,8.0,1.0,5.0,0.0,4.0,1650823945311884.0
-3.0,-3.0,-5.0,4.0,2.0,3.0,2.0,1.0,1650823945312855.0
7.0,7.0,1.0,-12.0,-7.0,-3.0,2.0,2.0,1650823945312855.0
-8.0,10.0,10.0,3.0,4.0,0.0,-1.0,-3.0,1650823945326860.0
9.0,8.0,3.0,-7.0,-5.0,-2.0,0.0,1.0,1650823945326860.0
-6.0,-14.0,-4.0,-2.0,0.0,-1.0,-4.0,-3.0,1650823945328839.0
3.0,6.0,5.0,3.0,-6.0,-3.0,-3.0,-2.0,1650823945328839.0
-6.0,-1.0,-5.0,4.0,10.0,8.0,0.0,1.0,1650823945350763.0
-5.0,-7.0,-2.0,-1.0,-2.0,-5.0,1.0,0.0,1650823945350763.0
4.0,6.0,0.0,-2.0,-4.0,-1.0,1.0,2.0,1650823945351752.0
-7.0,-32.0,-9.0,-8.0,-7.0,-7.0,-6.0,-5.0,1650823945351752.0
9.0,6.0,3.0,-2.0,-5.0,-4.0,-1.0,0.0,1650823945371760.0
-22.0,-3.0,-3.0,8.0,-2.0,4.0,0.0,-4.0,1650823945371760.0
11.0,3.0,1.0,-2.0,13.0,7.0,3.0,4.0,1650823945372695.0
6.0,-1.0,-1.0,6.0,6.0,8.0,4.0,2.0,1650823945372695.0
-10.0,-12.0,-7.0,-7.0,-12.0,-8.0,-2.0,-1.0,1650823945385687.0
-5.0,0.0,0.0,1.0,1.0,-8.0,-1.0,-1.0,1650823945385687.0
-3.0,1.0,6.0,-3.0,-1.0,-2.0,-5.0,-3.0,1650823945392669.0
-5.0,3.0,-4.0,1.0,-9.0,2.0,3.0,0.0,1650823945392669.0
0.0,-6.0,0.0,-3.0,-5.0,-10.0,-2.0,-1.0,1650823945408598.0
5.0,2.0,-3.0,1.0,-1.0,1.0,2.0,-2.0,1650823945408598.0
-3.0,0.0,-1.0,-5.0,2.0,0.0,-1.0,-1.0,1650823945410592.0
11.0,14.0,9.0,6.0,6.0,7.0,1.0,3.0,1650823945410592.0
7.0,-8.0,0.0,-2.0,5.0,3.0,1.0,5.0,1650823945431624.0
-27.0,-6.0,-19.0,1.0,-6.0,-4.0,-2.0,-7.0,1650823945431624.0
-6.0,-12.0,12.0,-3.0,-6.0,-3.0,-6.0,-7.0,1650823945433651.0
-6.0,4.0,6.0,-5.0,0.0,-3.0,-3.0,-1.0,1650823945433651.0
-5.0,-10.0,-4.0,4.0,0.0,1.0,1.0,-1.0,1650823945446611.0
24.0,7.0,-3.0,-5.0,10.0,3.0,1.0,3.0,1650823945446611.0
1.0,6.0,4.0,4.0,-11.0,0.0,4.0,3.0,1650823945452568.0
-7.0,0.0,-3.0,-1.0,9.0,1.0,-1.0,-2.0,1650823945452568.0
2.0,5.0,6.0,4.0,3.0,-1.0,-1.0,0.0,1650823945469525.0
3.0,-3.0,4.0,-2.0,-5.0,0.0,-2.0,-1.0,1650823945469525.0
12.0,1.0,-7.0,-5.0,-5.0,-5.0,-3.0,0.0,1650823945470528.0
-2.0,-4.0,8.0,1.0,3.0,-1.0,-1.0,-1.0,1650823945470528.0
-3.0,1.0,-7.0,2.0,5.0,8.0,3.0,1.0,1650823945492049.0
6.0,1.0,8.0,0.0,1.0,4.0,3.0,1.0,1650823945492049.0
3.0,9.0,-2.0,5.0,-4.0,-1.0,0.0,5.0,1650823945493045.0
29.0,8.0,3.0,-2.0,-2.0,-6.0,-3.0,1.0,1650823945493045.0
-6.0,0.0,3.0,2.0,-9.0,-5.0,-4.0,-6.0,1650823945505703.0
-11.0,-6.0,12.0,-6.0,0.0,-2.0,-6.0,-3.0,1650823945505703.0
-3.0,-2.0,-4.0,0.0,7.0,14.0,1.0,-6.0,1650823945512648.0
1.0,12.0,-1.0,1.0,-4.0,-15.0,2.0,1.0,1650823945512648.0
2.0,17.0,6.0,2.0,6.0,4.0,1.0,-2.0,1650823945529582.0
8.0,-10.0,-7.0,-2.0,2.0,-3.0,-1.0,0.0,1650823945529582.0
1.0,2.0,2.0,7.0,-7.0,-1.0,1.0,-2.0,1650823945530572.0
-20.0,-32.0,-23.0,-4.0,1.0,4.0,-4.0,-6.0,1650823945530572.0
0.0,0.0,-5.0,-2.0,11.0,4.0,1.0,1.0,1650823945551526.0
0.0,6.0,1.0,2.0,-4.0,3.0,0.0,1.0,1650823945551526.0
-2.0,-3.0,-7.0,4.0,5.0,-3.0,1.0,2.0,1650823945553541.0
-6.0,-2.0,5.0,-5.0,-4.0,0.0,-2.0,-1.0,1650823945553541.0
-1.0,-3.0,-5.0,-7.0,-8.0,-8.0,-4.0,1.0,1650823945566542.0
4.0,-1.0,1.0,7.0,7.0,3.0,2.0,0.0,1650823945566542.0
-1.0,-1.0,-3.0,-10.0,3.0,1.0,2.0,2.0,1650823945572525.0
-3.0,3.0,2.0,8.0,14.0,5.0,2.0,-1.0,1650823945572525.0
-9.0,1.0,1.0,-3.0,-16.0,-2.0,-2.0,-1.0,1650823945589483.0
21.0,12.0,12.0,-2.0,-5.0,-3.0,3.0,7.0,1650823945589483.0
-7.0,-7.0,-30.0,-9.0,-7.0,-5.0,-6.0,-3.0,1650823945590419.0
-20.0,-20.0,-5.0,-1.0,1.0,-3.0,-2.0,-6.0,1650823945590419.0
-3.0,-14.0,0.0,0.0,4.0,7.0,2.0,-2.0,1650823945611457.0
-4.0,5.0,-1.0,2.0,0.0,-3.0,-2.0,-3.0,1650823945611457.0
8.0,9.0,10.0,0.0,1.0,1.0,2.0,5.0,1650823945613452.0
4.0,7.0,1.0,0.0,-2.0,0.0,0.0,3.0,1650823945613452.0
-2.0,6.0,-9.0,0.0,2.0,-2.0,-2.0,-3.0,1650823945625447.0
-3.0,-7.0,-4.0,-2.0,-5.0,2.0,1.0,-2.0,1650823945625447.0
0.0,6.0,10.0,1.0,4.0,0.0,0.0,-1.0,1650823945632401.0
-2.0,1.0,-3.0,-5.0,-8.0,-2.0,-4.0,-1.0,1650823945632401.0
1.0,-4.0,2.0,0.0,-7.0,1.0,2.0,0.0,1650823945649384.0
-3.0,1.0,-5.0,-6.0,-4.0,-5.0,-1.0,0.0,1650823945649384.0
-9.0,-4.0,1.0,1.0,5.0,4.0,-2.0,-1.0,1650823945650382.0
5.0,6.0,2.0,-1.0,-3.0,6.0,2.0,0.0,1650823945650382.0
2.0,1.0,3.0,9.0,12.0,-2.0,4.0,3.0,1650823945671365.0
-5.0,-4.0,-5.0,-4.0,-2.0,-3.0,-4.0,0.0,1650823945671365.0
-5.0,-3.0,4.0,-1.0,-8.0,-5.0,-2.0,-4.0,1650823945673293.0
0.0,1.0,-5.0,0.0,2.0,0.0,1.0,3.0,1650823945673293.0
11.0,5.0,4.0,-1.0,-1.0,1.0,-7.0,-4.0,1650823945685260.0
-10.0,0.0,1.0,-2.0,1.0,-2.0,8.0,1.0,1650823945685260.0
-2.0,-6.0,-1.0,-2.0,-2.0,3.0,-4.0,7.0,1650823945694245.0
9.0,4.0,5.0,-4.0,-6.0,-15.0,-3.0,-7.0,1650823945694245.0
-6.0,1.0,-1.0,7.0,6.0,4.0,2.0,-4.0,1650823945709258.0
14.0,14.0,7.0,-5.0,2.0,2.0,1.0,3.0,1650823945709258.0
-14.0,-11.0,-4.0,-4.0,3.0,5.0,2.0,2.0,1650823945710219.0
-20.0,-5.0,-6.0,5.0,8.0,4.0,2.0,-3.0,1650823945710219.0
2.0,-11.0,2.0,-18.0,-20.0,-12.0,-5.0,-3.0,1650823945732163.0
0.0,-1.0,0.0,7.0,2.0,5.0,-6.0,-15.0,1650823945732163.0
0.0,3.0,4.0,2.0,3.0,-2.0,4.0,-1.0,1650823945734149.0
9.0,4.0,-1.0,-3.0,-7.0,1.0,0.0,4.0,1650823945734149.0
-2.0,-1.0,-1.0,5.0,8.0,-3.0,-3.0,0.0,1650823945745213.0
1.0,6.0,6.0,6.0,6.0,8.0,5.0,4.0,1650823945745213.0
5.0,-10.0,-12.0,-5.0,2.0,-3.0,-2.0,-5.0,1650823945754199.0
-4.0,-9.0,-7.0,-4.0,-7.0,2.0,-3.0,-1.0,1650823945754199.0
5.0,-2.0,-13.0,-13.0,-12.0,-11.0,-3.0,3.0,1650823945769202.0
-9.0,3.0,4.0,-1.0,-8.0,2.0,0.0,0.0,1650823945769202.0
-1.0,-16.0,10.0,7.0,11.0,-3.0,1.0,-1.0,1650823945770150.0
1.0,6.0,1.0,4.0,6.0,1.0,1.0,-3.0,1650823945770150.0
6.0,7.0,1.0,1.0,-7.0,3.0,3.0,2.0,1650823945792090.0
-9.0,-18.0,-7.0,-5.0,2.0,-4.0,-2.0,-2.0,1650823945792090.0
-1.0,11.0,-7.0,1.0,-5.0,3.0,3.0,4.0,1650823945793098.0
14.0,-1.0,1.0,-3.0,-6.0,-3.0,-4.0,5.0,1650823945793098.0
0.0,3.0,8.0,3.0,9.0,3.0,6.0,0.0,1650823945805702.0
-1.0,2.0,-3.0,3.0,27.0,-1.0,-2.0,-1.0,1650823945805702.0
1.0,7.0,8.0,-2.0,-25.0,1.0,1.0,1.0,1650823945814624.0
2.0,2.0,3.0,1.0,-8.0,-5.0,0.0,1.0,1650823945814624.0
-5.0,-6.0,-12.0,1.0,1.0,-2.0,-5.0,0.0,1650823945828579.0
8.0,-3.0,-5.0,-8.0,11.0,9.0,2.0,2.0,1650823945828579.0
1.0,5.0,4.0,2.0,6.0,-3.0,-5.0,-2.0,1650823945830576.0
-1.0,-1.0,-3.0,-4.0,-3.0,-5.0,2.0,-2.0,1650823945830576.0
-5.0,-2.0,6.0,2.0,0.0,1.0,1.0,-1.0,1650823945851689.0
-3.0,-4.0,-3.0,1.0,-7.0,-3.0,-3.0,0.0,1650823945851689.0
6.0,-1.0,-3.0,-4.0,1.0,-1.0,0.0,-3.0,1650823945853685.0
-3.0,3.0,0.0,4.0,-1.0,5.0,0.0,-1.0,1650823945853685.0
1.0,6.0,-4.0,-3.0,2.0,0.0,0.0,0.0,1650823945865701.0
1.0,-11.0,-9.0,-3.0,-7.0,-4.0,-1.0,-2.0,1650823945865701.0
-1.0,3.0,0.0,-3.0,-8.0,-7.0,-3.0,-2.0,1650823945874633.0
-1.0,-4.0,-13.0,-1.0,4.0,1.0,-2.0,0.0,1650823945874633.0
-7.0,-3.0,0.0,0.0,0.0,-1.0,-1.0,-1.0,1650823945889092.0
-5.0,3.0,-2.0,-3.0,6.0,3.0,-1.0,0.0,1650823945889092.0
0.0,0.0,-2.0,-1.0,-22.0,-13.0,-3.0,-2.0,1650823945891045.0
11.0,5.0,6.0,14.0,11.0,7.0,4.0,-1.0,1650823945891045.0
-6.0,-10.0,-3.0,-7.0,13.0,10.0,2.0,1.0,1650823945911963.0
3.0,3.0,-3.0,-4.0,-17.0,-7.0,-3.0,-1.0,1650823945911963.0
-4.0,-3.0,-4.0,-7.0,0.0,-8.0,-6.0,-5.0,1650823945912962.0
0.0,3.0,5.0,-3.0,-8.0,-7.0,-2.0,0.0,1650823945912962.0
1.0,-1.0,2.0,11.0,19.0,27.0,4.0,1.0,1650823945924960.0
-8.0,0.0,2.0,0.0,2.0,-9.0,3.0,0.0,1650823945924960.0
2.0,-2.0,-5.0,-4.0,1.0,1.0,-2.0,1.0,1650823945933905.0
-1.0,-2.0,-1.0,-7.0,-10.0,-5.0,-5.0,-3.0,1650823945933905.0
0.0,-1.0,1.0,0.0,-9.0,-3.0,-1.0,-2.0,1650823945948865.0
2.0,-5.0,-9.0,2.0,-7.0,-5.0,-1.0,0.0,1650823945948865.0
-1.0,1.0,-2.0,-3.0,-6.0,-2.0,0.0,2.0,1650823945950861.0
-3.0,0.0,0.0,5.0,5.0,10.0,2.0,2.0,1650823945950861.0
1.0,4.0,1.0,5.0,9.0,0.0,3.0,1.0,1650823945971872.0
-2.0,-1.0,2.0,-2.0,-3.0,-5.0,-4.0,0.0,1650823945971872.0
-2.0,-3.0,-1.0,0.0,10.0,-3.0,-2.0,-2.0,1650823945972834.0
-2.0,1.0,0.0,-1.0,-14.0,-5.0,-1.0,0.0,1650823945972834.0
-2.0,-3.0,-1.0,-2.0,0.0,0.0,-1.0,0.0,1650823945984769.0
9.0,3.0,-2.0,-4.0,-10.0,-3.0,-2.0,2.0,1650823945984769.0
-2.0,-6.0,1.0,2.0,11.0,14.0,3.0,8.0,1650823946000039.0
-1.0,0.0,6.0,-3.0,1.0,-9.0,-2.0,5.0,1650823946000039.0
0.0,3.0,-6.0,-5.0,-12.0,-10.0,-5.0,-8.0,1650823946009015.0
-7.0,-9.0,-2.0,4.0,-3.0,0.0,0.0,-3.0,1650823946009015.0
3.0,3.0,3.0,6.0,8.0,6.0,-1.0,-1.0,1650823946011010.0
-1.0,3.0,2.0,1.0,20.0,14.0,6.0,3.0,1650823946011010.0
3.0,0.0,-5.0,-9.0,-16.0,-10.0,0.0,1.0,1650823946031977.0
1.0,3.0,2.0,-3.0,3.0,10.0,0.0,3.0,1650823946031977.0
-2.0,-1.0,-4.0,-1.0,-4.0,-11.0,-1.0,-3.0,1650823946032922.0
-2.0,-3.0,1.0,1.0,0.0,8.0,0.0,-3.0,1650823946032922.0
-1.0,-1.0,2.0,7.0,9.0,-21.0,-1.0,0.0,1650823946045701.0
-3.0,0.0,-1.0,1.0,3.0,1.0,-1.0,1.0,1650823946045701.0
1.0,-3.0,-8.0,-4.0,-5.0,0.0,-3.0,-2.0,1650823946054626.0
-2.0,-2.0,2.0,-3.0,-9.0,-4.0,-2.0,-4.0,1650823946054626.0
-4.0,0.0,-2.0,5.0,-7.0,6.0,0.0,2.0,1650823946068704.0
3.0,-2.0,-1.0,-7.0,-2.0,-2.0,-2.0,-1.0,1650823946068704.0
0.0,2.0,-1.0,2.0,2.0,3.0,1.0,-3.0,1650823946070700.0
-2.0,-1.0,-4.0,0.0,1.0,-2.0,-2.0,-1.0,1650823946070700.0
-2.0,0.0,0.0,-4.0,-12.0,2.0,-1.0,0.0,1650823946091710.0
-3.0,1.0,5.0,9.0,11.0,14.0,1.0,-1.0,1650823946091710.0
2.0,1.0,1.0,8.0,10.0,-5.0,6.0,10.0,1650823946093639.0
-3.0,-1.0,-3.0,-4.0,8.0,4.0,-4.0,-22.0,1650823946093639.0
1.0,1.0,2.0,1.0,0.0,-8.0,4.0,10.0,1650823946105681.0
0.0,1.0,-1.0,-4.0,-11.0,-10.0,-16.0,-3.0,1650823946105681.0
-3.0,-3.0,3.0,3.0,-8.0,-3.0,-2.0,0.0,1650823946114582.0
2.0,-2.0,-8.0,-6.0,8.0,10.0,5.0,19.0,1650823946114582.0
-3.0,1.0,9.0,2.0,3.0,2.0,5.0,-10.0,1650823946129645.0
-2.0,-1.0,-5.0,-3.0,2.0,-2.0,6.0,-1.0,1650823946129645.0
0.0,-1.0,1.0,-2.0,-4.0,-1.0,-4.0,-7.0,1650823946130617.0
0.0,-1.0,-5.0,-2.0,-11.0,-14.0,-6.0,7.0,1650823946130617.0
1.0,-4.0,-4.0,-1.0,0.0,7.0,-4.0,2.0,1650823946159599.0
-2.0,4.0,15.0,8.0,0.0,5.0,6.0,-4.0,1650823946159599.0
0.0,-3.0,-13.0,-9.0,2.0,1.0,1.0,5.0,1650823946160539.0
-2.0,-2.0,3.0,-3.0,-14.0,-7.0,1.0,0.0,1650823946160539.0
2.0,-1.0,-6.0,-3.0,3.0,10.0,-1.0,8.0,1650823946174549.0
-1.0,2.0,6.0,6.0,6.0,-10.0,-2.0,-2.0,1650823946174549.0
3.0,3.0,-1.0,8.0,8.0,5.0,2.0,6.0,1650823946175513.0
-1.0,0.0,6.0,-1.0,-1.0,4.0,-3.0,-23.0,1650823946175513.0
-2.0,-1.0,7.0,4.0,-2.0,-3.0,-7.0,-16.0,1650823946189545.0
-6.0,-5.0,-20.0,-13.0,-9.0,-6.0,6.0,35.0,1650823946189545.0
2.0,-6.0,-1.0,2.0,-2.0,4.0,-3.0,-32.0,1650823946190490.0
1.0,-1.0,2.0,-8.0,6.0,-1.0,1.0,1.0,1650823946190490.0
-2.0,-2.0,-7.0,-1.0,-5.0,-2.0,-7.0,-8.0,1650823946211642.0
22.0,6.0,17.0,9.0,4.0,0.0,10.0,9.0,1650823946211642.0
-26.0,-1.0,-2.0,0.0,2.0,2.0,-2.0,8.0,1650823946213570.0
0.0,8.0,11.0,12.0,11.0,17.0,1.0,-1.0,1650823946213570.0
2.0,10.0,23.0,3.0,-1.0,-8.0,7.0,5.0,1650823946233680.0
-4.0,-13.0,-15.0,-11.0,-17.0,-12.0,-16.0,-5.0,1650823946233680.0
2.0,-12.0,-32.0,-9.0,10.0,19.0,11.0,4.0,1650823946235678.0
-3.0,-1.0,1.0,-3.0,-10.0,-27.0,-7.0,0.0,1650823946235678.0
7.0,16.0,27.0,26.0,3.0,8.0,6.0,35.0,1650823946248673.0
-3.0,1.0,-18.0,-7.0,-3.0,5.0,3.0,-2.0,1650823946248673.0
2.0,1.0,26.0,-4.0,2.0,-2.0,3.0,-8.0,1650823946250638.0
3.0,0.0,-9.0,-6.0,-3.0,5.0,5.0,-3.0,1650823946250638.0
-18.0,-5.0,-10.0,-17.0,1.0,-3.0,-6.0,-53.0,1650823946270584.0
-2.0,-11.0,-14.0,9.0,9.0,-5.0,-2.0,19.0,1650823946270584.0
1.0,3.0,15.0,-2.0,-15.0,-2.0,-24.0,-16.0,1650823946279626.0
11.0,11.0,5.0,17.0,-4.0,-3.0,-2.0,10.0,1650823946279626.0
-12.0,-15.0,-43.0,-49.0,-2.0,-6.0,2.0,9.0,1650823946294609.0
-4.0,0.0,0.0,-8.0,11.0,21.0,-10.0,-20.0,1650823946294609.0
11.0,28.0,17.0,17.0,-3.0,-11.0,9.0,3.0,1650823946295583.0
-19.0,-35.0,7.0,-5.0,-2.0,20.0,6.0,14.0,1650823946295583.0
3.0,-6.0,0.0,16.0,-5.0,-33.0,-5.0,-39.0,1650823946308571.0
-8.0,8.0,-8.0,-16.0,7.0,12.0,13.0,-12.0,1650823946308571.0
-3.0,-15.0,17.0,6.0,-11.0,-18.0,-18.0,-5.0,1650823946315526.0
11.0,32.0,62.0,45.0,12.0,7.0,9.0,-10.0,1650823946315526.0
0.0,-12.0,-72.0,-44.0,-9.0,11.0,5.0,15.0,1650823946331598.0
1.0,-7.0,7.0,2.0,-5.0,-4.0,-2.0,-16.0,1650823946331598.0
3.0,-11.0,-15.0,-16.0,-6.0,-9.0,-2.0,1.0,1650823946333565.0
-2.0,-1.0,-9.0,41.0,7.0,-2.0,-13.0,1.0,1650823946333565.0
17.0,11.0,-2.0,-33.0,4.0,14.0,19.0,47.0,1650823946354516.0
10.0,0.0,16.0,-23.0,-22.0,-21.0,-23.0,-61.0,1650823946354516.0
-14.0,-23.0,-30.0,-3.0,1.0,2.0,10.0,-20.0,1650823946355506.0
-3.0,1.0,-11.0,-9.0,2.0,13.0,-5.0,20.0,1650823946355506.0
5.0,11.0,12.0,40.0,14.0,0.0,44.0,54.0,1650823946368500.0
5.0,0.0,-4.0,5.0,-1.0,0.0,-39.0,-60.0,1650823946368500.0
32.0,17.0,23.0,21.0,15.0,11.0,4.0,67.0,1650823946375576.0
-7.0,2.0,-35.0,-40.0,-8.0,-11.0,-23.0,-58.0,1650823946375576.0
4.0,-11.0,37.0,43.0,-3.0,2.0,1.0,-16.0,1650823946399516.0
-32.0,-26.0,-39.0,-44.0,-19.0,-6.0,-1.0,34.0,1650823946399516.0
-22.0,-25.0,-43.0,1.0,-1.0,-8.0,12.0,15.0,1650823946400514.0
-18.0,22.0,28.0,-21.0,-11.0,-13.0,-2.0,-48.0,1650823946400514.0
3.0,12.0,0.0,28.0,10.0,9.0,-9.0,24.0,1650823946414483.0
-2.0,-1.0,-19.0,-24.0,-4.0,9.0,16.0,-19.0,1650823946414483.0
17.0,47.0,84.0,15.0,1.0,7.0,-37.0,-15.0,1650823946415472.0
2.0,-39.0,-59.0,-17.0,-5.0,-17.0,11.0,10.0,1650823946415472.0
4.0,20.0,14.0,8.0,-11.0,-7.0,-5.0,-21.0,1650823946427502.0
34.0,50.0,59.0,57.0,20.0,11.0,23.0,42.0,1650823946427502.0
-45.0,7.0,-48.0,-51.0,-9.0,-8.0,4.0,42.0,1650823946436467.0
0.0,19.0,58.0,22.0,4.0,-2.0,-27.0,-79.0,1650823946436467.0
-30.0,-36.0,-17.0,-18.0,-2.0,4.0,-12.0,-46.0,1650823946451599.0
45.0,39.0,17.0,16.0,4.0,-4.0,0.0,38.0,1650823946451599.0
2.0,-73.0,-76.0,-8.0,-6.0,-5.0,-1.0,-32.0,1650823946453528.0
17.0,8.0,-4.0,32.0,10.0,7.0,9.0,49.0,1650823946453528.0
-16.0,36.0,24.0,-55.0,8.0,20.0,4.0,16.0,1650823946474551.0
-38.0,-79.0,-22.0,15.0,-18.0,-24.0,-17.0,-32.0,1650823946474551.0
4.0,4.0,-12.0,-16.0,-5.0,-1.0,11.0,1.0,1650823946475468.0
8.0,-28.0,-18.0,0.0,10.0,1.0,11.0,11.0,1650823946475468.0
2.0,-64.0,-57.0,-40.0,-13.0,-10.0,-17.0,28.0,1650823946487466.0
-26.0,-9.0,-7.0,-5.0,-7.0,-2.0,49.0,112.0,1650823946487466.0
17.0,0.0,-1.0,20.0,10.0,5.0,28.0,43.0,1650823946496523.0
3.0,48.0,72.0,7.0,-5.0,-9.0,-30.0,-27.0,1650823946496523.0
8.0,-60.0,-69.0,-25.0,0.0,-2.0,-30.0,-70.0,1650823946512562.0
10.0,9.0,41.0,10.0,-7.0,0.0,0.0,63.0,1650823946512562.0
29.0,102.0,85.0,38.0,14.0,7.0,16.0,31.0,1650823946514558.0
-23.0,-72.0,-79.0,-8.0,16.0,11.0,5.0,29.0,1650823946514558.0
