EMG_s0,EMG_s1,EMG_s2,EMG_s3,EMG_s4,EMG_s5,EMG_s6,EMG_s7,timestamp
3.0,1.0,0.0,-1.0,6.0,-1.0,0.0,1.0,1650824027588541.0
2.0,-1.0,-2.0,-4.0,-6.0,-5.0,-2.0,0.0,1650824027588541.0
0.0,-1.0,-1.0,-3.0,-1.0,1.0,-3.0,-1.0,1650824027589502.0
0.0,1.0,1.0,-1.0,-3.0,0.0,-1.0,0.0,1650824027589502.0
-2.0,0.0,3.0,2.0,1.0,-10.0,-2.0,0.0,1650824027590499.0
0.0,1.0,-5.0,-4.0,-2.0,0.0,2.0,1.0,1650824027590499.0
0.0,0.0,-1.0,1.0,6.0,5.0,1.0,0.0,1650824027594489.0
1.0,-1.0,2.0,2.0,3.0,6.0,1.0,0.0,1650824027594489.0
0.0,-1.0,-6.0,0.0,-1.0,0.0,-2.0,-1.0,1650824027600502.0
-1.0,-1.0,8.0,-1.0,-4.0,-8.0,-3.0,-2.0,1650824027600502.0
-3.0,-2.0,-2.0,-5.0,-12.0,-13.0,-2.0,-2.0,1650824027611443.0
1.0,-1.0,1.0,1.0,-1.0,1.0,-1.0,-2.0,1650824027611443.0
-1.0,-1.0,1.0,3.0,10.0,20.0,5.0,1.0,1650824027615432.0
0.0,0.0,-2.0,2.0,3.0,0.0,-1.0,-1.0,1650824027615432.0
0.0,-1.0,-2.0,1.0,-2.0,2.0,1.0,0.0,1650824027632387.0
-1.0,-1.0,-3.0,-5.0,-1.0,3.0,-2.0,-1.0,1650824027632387.0
0.0,-1.0,-3.0,-5.0,-1.0,-9.0,-2.0,-3.0,1650824027639369.0
-1.0,0.0,-1.0,0.0,-7.0,-3.0,0.0,-1.0,1650824027639369.0
1.0,-1.0,3.0,1.0,4.0,-5.0,-1.0,0.0,1650824027661328.0
1.0,0.0,-1.0,2.0,2.0,-3.0,-2.0,0.0,1650824027661328.0
-1.0,0.0,3.0,0.0,1.0,2.0,0.0,-1.0,1650824027661328.0
0.0,0.0,-2.0,-3.0,4.0,16.0,2.0,1.0,1650824027661328.0
-1.0,-1.0,-3.0,-2.0,-10.0,-17.0,-4.0,0.0,1650824027676532.0
-1.0,-1.0,3.0,-1.0,0.0,0.0,-1.0,-2.0,1650824027676532.0
-1.0,0.0,1.0,-2.0,6.0,3.0,-2.0,0.0,1650824027676532.0
-1.0,-1.0,0.0,2.0,-6.0,-19.0,-3.0,-2.0,1650824027676532.0
1.0,3.0,4.0,3.0,7.0,4.0,1.0,-1.0,1650824027724000.0
-1.0,0.0,1.0,-2.0,2.0,3.0,-1.0,-1.0,1650824027724000.0
-2.0,-1.0,-6.0,-2.0,-1.0,1.0,-3.0,-1.0,1650824027724000.0
-2.0,0.0,-1.0,-1.0,0.0,-1.0,-1.0,0.0,1650824027724000.0
-1.0,1.0,-3.0,-1.0,0.0,2.0,1.0,1.0,1650824027724999.0
1.0,0.0,0.0,1.0,2.0,1.0,-1.0,0.0,1650824027724999.0
0.0,-1.0,0.0,-2.0,-10.0,-8.0,2.0,-1.0,1650824027727989.0
0.0,-1.0,-1.0,-1.0,0.0,3.0,1.0,0.0,1650824027727989.0
-1.0,0.0,-3.0,0.0,-3.0,1.0,0.0,-3.0,1650824027734970.0
0.0,-1.0,-1.0,-3.0,-3.0,0.0,-1.0,-2.0,1650824027734970.0
0.0,2.0,-1.0,-1.0,1.0,-8.0,-3.0,1.0,1650824027742949.0
-1.0,-1.0,-1.0,0.0,-3.0,-5.0,-1.0,-2.0,1650824027742949.0
0.0,0.0,2.0,1.0,0.0,-1.0,-1.0,0.0,1650824027751925.0
0.0,0.0,-2.0,2.0,2.0,3.0,3.0,0.0,1650824027751925.0
1.0,1.0,2.0,7.0,12.0,10.0,1.0,0.0,1650824027765687.0
-1.0,0.0,-3.0,0.0,-9.0,0.0,0.0,0.0,1650824027765687.0
-2.0,-3.0,-3.0,-1.0,8.0,-1.0,-3.0,1.0,1650824027772669.0
-2.0,-3.0,-1.0,-3.0,2.0,-7.0,-3.0,-3.0,1650824027772669.0
0.0,-2.0,-1.0,-5.0,-15.0,3.0,-1.0,-2.0,1650824027787690.0
2.0,4.0,5.0,5.0,7.0,3.0,4.0,1.0,1650824027787690.0
-2.0,-1.0,-3.0,0.0,-19.0,-17.0,-2.0,1.0,1650824027796598.0
-1.0,-1.0,-3.0,0.0,8.0,2.0,0.0,-1.0,1650824027796598.0
0.0,-2.0,0.0,-3.0,2.0,-1.0,-1.0,-1.0,1650824027811790.0
0.0,-1.0,-3.0,-3.0,-3.0,2.0,-5.0,-1.0,1650824027811790.0
-1.0,-2.0,3.0,-2.0,4.0,8.0,2.0,0.0,1650824027812749.0
-1.0,0.0,-5.0,1.0,-1.0,3.0,2.0,0.0,1650824027812749.0
0.0,0.0,0.0,2.0,0.0,-5.0,-1.0,-1.0,1650824027833669.0
0.0,-1.0,2.0,-3.0,-1.0,-6.0,-3.0,0.0,1650824027833669.0
0.0,0.0,-2.0,-2.0,1.0,-6.0,-2.0,-1.0,1650824027835660.0
-1.0,0.0,2.0,-1.0,-12.0,-5.0,-1.0,0.0,1650824027835660.0
0.0,0.0,2.0,1.0,19.0,3.0,-2.0,-1.0,1650824027864501.0
-2.0,-1.0,-2.0,-3.0,-11.0,-5.0,0.0,-2.0,1650824027864501.0
-1.0,-1.0,-3.0,-3.0,-3.0,3.0,0.0,1.0,1650824027865178.0
0.0,-2.0,0.0,-4.0,-4.0,-2.0,-1.0,-1.0,1650824027865178.0
0.0,1.0,-3.0,1.0,6.0,9.0,0.0,-1.0,1650824027871193.0
-1.0,-2.0,1.0,-1.0,-1.0,-5.0,0.0,0.0,1650824027871193.0
-1.0,1.0,0.0,2.0,7.0,7.0,1.0,1.0,1650824027873160.0
0.0,3.0,2.0,7.0,4.0,-9.0,1.0,1.0,1650824027873160.0
-2.0,-2.0,-3.0,-3.0,8.0,7.0,-1.0,-1.0,1650824027894171.0
0.0,0.0,-2.0,-4.0,-13.0,-11.0,-2.0,-1.0,1650824027894171.0
2.0,0.0,0.0,-3.0,-7.0,-1.0,-3.0,0.0,1650824027896098.0
-2.0,0.0,1.0,-5.0,-3.0,6.0,-3.0,-2.0,1650824027896098.0
-2.0,-2.0,-4.0,-1.0,-5.0,-7.0,1.0,0.0,1650824027916185.0
1.0,0.0,0.0,2.0,14.0,11.0,1.0,0.0,1650824027916185.0
0.0,-4.0,-5.0,1.0,9.0,2.0,-3.0,-2.0,1650824027918119.0
0.0,-3.0,-1.0,-2.0,-11.0,-9.0,-1.0,-2.0,1650824027918119.0
0.0,1.0,4.0,2.0,-9.0,-5.0,-1.0,2.0,1650824027930085.0
-2.0,-1.0,-3.0,-4.0,-1.0,-4.0,-3.0,-2.0,1650824027930085.0
1.0,1.0,-1.0,1.0,0.0,4.0,2.0,1.0,1650824027939061.0
-2.0,0.0,-2.0,-5.0,0.0,4.0,-3.0,-3.0,1650824027939061.0
-1.0,-2.0,-3.0,-2.0,4.0,-1.0,-1.0,-1.0,1650824027953722.0
0.0,0.0,0.0,3.0,8.0,2.0,2.0,1.0,1650824027953722.0
-1.0,-1.0,0.0,-1.0,-1.0,-3.0,-2.0,-2.0,1650824027955690.0
0.0,-1.0,-3.0,-1.0,0.0,1.0,-2.0,0.0,1650824027955690.0
-1.0,0.0,-2.0,-3.0,0.0,-5.0,-1.0,-1.0,1650824027976458.0
1.0,-1.0,0.0,0.0,-19.0,-10.0,-2.0,1.0,1650824027976458.0
0.0,1.0,4.0,3.0,15.0,14.0,2.0,-1.0,1650824027978419.0
-1.0,-1.0,-5.0,-3.0,-4.0,-10.0,1.0,1.0,1650824027978419.0
0.0,0.0,2.0,-1.0,-8.0,-1.0,-1.0,-1.0,1650824027990363.0
-2.0,-3.0,-1.0,-1.0,10.0,10.0,-1.0,-2.0,1650824027990363.0
-1.0,-1.0,-4.0,-3.0,-1.0,-14.0,-5.0,-2.0,1650824027997341.0
-1.0,2.0,10.0,9.0,-4.0,2.0,4.0,0.0,1650824027997341.0
0.0,0.0,5.0,1.0,4.0,8.0,3.0,0.0,1650824028021305.0
0.0,0.0,-1.0,0.0,-2.0,2.0,-1.0,-2.0,1650824028021305.0
-2.0,-2.0,-2.0,-5.0,-5.0,-5.0,0.0,-3.0,1650824028023272.0
1.0,-2.0,-4.0,-3.0,-6.0,-7.0,-4.0,-2.0,1650824028023272.0
-1.0,0.0,-3.0,0.0,-3.0,-6.0,0.0,-1.0,1650824028036386.0
-2.0,0.0,3.0,2.0,2.0,-2.0,-1.0,1.0,1650824028036386.0
0.0,-2.0,-4.0,-6.0,-5.0,0.0,0.0,0.0,1650824028038343.0
0.0,-1.0,0.0,6.0,14.0,6.0,1.0,0.0,1650824028038343.0
1.0,1.0,2.0,2.0,-5.0,1.0,1.0,0.0,1650824028051281.0
-3.0,-2.0,-10.0,-4.0,-2.0,-1.0,-1.0,-1.0,1650824028051281.0
-2.0,-1.0,6.0,1.0,2.0,-6.0,0.0,-2.0,1650824028057266.0
0.0,1.0,1.0,-2.0,-10.0,4.0,0.0,1.0,1650824028057266.0
0.0,0.0,4.0,0.0,1.0,0.0,-1.0,0.0,1650824028074329.0
1.0,1.0,0.0,2.0,4.0,2.0,1.0,-1.0,1650824028074329.0
-1.0,1.0,-2.0,1.0,9.0,3.0,-1.0,-2.0,1650824028075340.0
0.0,-1.0,-2.0,0.0,-9.0,-9.0,-1.0,0.0,1650824028075340.0
-2.0,-2.0,-1.0,-1.0,-18.0,-17.0,-3.0,-2.0,1650824028096357.0
1.0,0.0,-2.0,0.0,9.0,6.0,0.0,0.0,1650824028096357.0
0.0,0.0,2.0,2.0,-2.0,7.0,2.0,1.0,1650824028098353.0
0.0,0.0,-1.0,0.0,3.0,-2.0,0.0,0.0,1650824028098353.0
-1.0,-5.0,-7.0,-4.0,0.0,1.0,-2.0,-1.0,1650824028110711.0
-1.0,-2.0,-5.0,-6.0,-5.0,-9.0,-3.0,-1.0,1650824028110711.0
0.0,1.0,3.0,-1.0,-16.0,-4.0,0.0,1.0,1650824028117692.0
0.0,1.0,-1.0,2.0,11.0,4.0,0.0,0.0,1650824028117692.0
-1.0,0.0,1.0,5.0,4.0,1.0,0.0,1.0,1650824028141561.0
0.0,2.0,6.0,2.0,1.0,5.0,0.0,-1.0,1650824028141561.0
-1.0,-2.0,-6.0,-4.0,-3.0,0.0,-1.0,-1.0,1650824028143593.0
-1.0,-3.0,-3.0,-8.0,-13.0,-4.0,-2.0,-1.0,1650824028143593.0
0.0,1.0,0.0,2.0,11.0,8.0,3.0,0.0,1650824028156588.0
-2.0,-1.0,1.0,2.0,6.0,4.0,-1.0,0.0,1650824028156588.0
-2.0,-1.0,-3.0,0.0,15.0,-4.0,-2.0,-1.0,1650824028158517.0
-2.0,-2.0,-1.0,-1.0,-27.0,-4.0,-2.0,-1.0,1650824028158517.0
-1.0,1.0,5.0,-1.0,0.0,8.0,3.0,2.0,1650824028170512.0
0.0,0.0,0.0,0.0,-1.0,-5.0,1.0,-1.0,1650824028170512.0
0.0,-3.0,-4.0,-2.0,-9.0,-11.0,-3.0,-1.0,1650824028177697.0
-2.0,-2.0,-3.0,-7.0,8.0,11.0,-4.0,-1.0,1650824028177697.0
-2.0,-2.0,-4.0,1.0,8.0,13.0,0.0,-3.0,1650824028194584.0
1.0,2.0,6.0,5.0,-5.0,-18.0,1.0,1.0,1650824028194584.0
1.0,0.0,1.0,0.0,-9.0,-4.0,2.0,0.0,1650824028195583.0
-2.0,-1.0,-2.0,3.0,13.0,7.0,-1.0,-1.0,1650824028195583.0
-2.0,-1.0,2.0,-1.0,-10.0,-11.0,-4.0,-1.0,1650824028216700.0
-2.0,-3.0,-7.0,-6.0,1.0,8.0,-1.0,-3.0,1650824028216700.0
-2.0,1.0,0.0,0.0,-5.0,2.0,-1.0,0.0,1650824028217697.0
0.0,-2.0,3.0,-2.0,4.0,-7.0,0.0,-1.0,1650824028217697.0
0.0,0.0,-3.0,-3.0,0.0,3.0,-2.0,0.0,1650824028230730.0
-1.0,0.0,-1.0,-1.0,-8.0,-1.0,-1.0,-1.0,1650824028230730.0
-2.0,0.0,0.0,2.0,3.0,2.0,0.0,-2.0,1650824028237712.0
1.0,2.0,3.0,4.0,13.0,8.0,2.0,1.0,1650824028237712.0
0.0,-3.0,-5.0,-6.0,-4.0,-9.0,-3.0,-2.0,1650824028254603.0
-1.0,-4.0,-2.0,-4.0,7.0,2.0,-3.0,-1.0,1650824028254603.0
0.0,0.0,-4.0,-1.0,-18.0,-4.0,-1.0,2.0,1650824028255604.0
-1.0,0.0,0.0,-1.0,3.0,1.0,0.0,1.0,1650824028255604.0
-1.0,-1.0,-1.0,2.0,-3.0,-4.0,-2.0,-3.0,1650824028276693.0
0.0,-1.0,0.0,0.0,-1.0,0.0,0.0,0.0,1650824028276693.0
-1.0,-3.0,1.0,-3.0,5.0,-3.0,-4.0,-1.0,1650824028277650.0
-1.0,-2.0,-3.0,-2.0,-7.0,1.0,-2.0,-1.0,1650824028277650.0
1.0,3.0,6.0,2.0,5.0,8.0,3.0,0.0,1650824028290588.0
-1.0,0.0,0.0,0.0,4.0,3.0,2.0,0.0,1650824028290588.0
0.0,0.0,1.0,1.0,1.0,1.0,0.0,-1.0,1650824028299611.0
-2.0,-3.0,-1.0,-1.0,-3.0,-6.0,-2.0,-2.0,1650824028299611.0
0.0,-4.0,-1.0,-2.0,-9.0,-5.0,-5.0,-1.0,1650824028313777.0
-1.0,0.0,-2.0,1.0,2.0,3.0,-3.0,-2.0,1650824028313777.0
-2.0,-3.0,-2.0,-1.0,-2.0,0.0,1.0,-1.0,1650824028315705.0
0.0,1.0,2.0,1.0,6.0,20.0,1.0,-1.0,1650824028315705.0
1.0,0.0,3.0,0.0,-7.0,-16.0,1.0,0.0,1650824028336716.0
0.0,1.0,1.0,2.0,-8.0,-8.0,0.0,0.0,1650824028336716.0
2.0,0.0,1.0,3.0,11.0,2.0,0.0,0.0,1650824028338644.0
-2.0,1.0,-9.0,-3.0,16.0,4.0,0.0,-3.0,1650824028338644.0
-1.0,0.0,-3.0,-2.0,-3.0,3.0,-1.0,0.0,1650824028350611.0
-2.0,-1.0,-2.0,-5.0,-15.0,3.0,0.0,-2.0,1650824028350611.0
-1.0,0.0,1.0,1.0,-7.0,-3.0,-1.0,-1.0,1650824028359600.0
-1.0,-1.0,0.0,0.0,6.0,-1.0,2.0,0.0,1650824028359600.0
-1.0,0.0,-5.0,0.0,4.0,1.0,-1.0,-3.0,1650824028381596.0
-2.0,0.0,6.0,1.0,6.0,-3.0,-1.0,1.0,1650824028381596.0
0.0,0.0,1.0,-4.0,-7.0,1.0,-1.0,-1.0,1650824028383556.0
1.0,-1.0,3.0,1.0,-6.0,-8.0,0.0,1.0,1650824028383556.0
-1.0,2.0,-4.0,0.0,1.0,-6.0,1.0,1.0,1650824028396556.0
0.0,0.0,-1.0,-1.0,0.0,4.0,0.0,-1.0,1650824028396556.0
1.0,2.0,2.0,-3.0,-1.0,3.0,1.0,-2.0,1650824028398484.0
0.0,1.0,0.0,-1.0,-4.0,-8.0,-2.0,0.0,1650824028398484.0
-1.0,-3.0,-2.0,-1.0,0.0,0.0,0.0,-3.0,1650824028419436.0
-1.0,-3.0,-3.0,-2.0,11.0,5.0,-1.0,-1.0,1650824028419436.0
1.0,-2.0,-2.0,-2.0,-15.0,-3.0,-1.0,-2.0,1650824028420438.0
0.0,1.0,-3.0,-1.0,3.0,-3.0,-1.0,-1.0,1650824028420438.0
-2.0,-2.0,0.0,0.0,-9.0,0.0,0.0,1.0,1650824028434480.0
0.0,0.0,3.0,0.0,7.0,-2.0,-1.0,-1.0,1650824028434480.0
-1.0,0.0,-2.0,3.0,12.0,7.0,1.0,0.0,1650824028435402.0
0.0,2.0,3.0,3.0,5.0,0.0,-1.0,1.0,1650824028435402.0
-2.0,1.0,1.0,0.0,-14.0,-1.0,1.0,-2.0,1650824028456356.0
1.0,-1.0,-5.0,-4.0,-2.0,-10.0,-2.0,0.0,1650824028456356.0
-3.0,-1.0,-6.0,-7.0,-7.0,-9.0,0.0,-1.0,1650824028458325.0
1.0,0.0,0.0,1.0,2.0,5.0,-1.0,0.0,1650824028458325.0
1.0,-2.0,-5.0,-6.0,2.0,7.0,-2.0,-3.0,1650824028470358.0
-1.0,1.0,2.0,-1.0,-9.0,-6.0,2.0,0.0,1650824028470358.0
-1.0,0.0,1.0,3.0,4.0,6.0,-1.0,-1.0,1650824028479299.0
-1.0,-1.0,4.0,4.0,-5.0,4.0,2.0,-1.0,1650824028479299.0
2.0,0.0,-4.0,3.0,6.0,-3.0,-2.0,2.0,1650824028494475.0
-1.0,-1.0,-2.0,-3.0,-9.0,0.0,-1.0,-1.0,1650824028494475.0
-2.0,-1.0,0.0,2.0,7.0,-3.0,0.0,-1.0,1650824028495476.0
-3.0,-2.0,-2.0,-4.0,-7.0,-4.0,-1.0,-2.0,1650824028495476.0
0.0,2.0,5.0,6.0,9.0,1.0,3.0,1.0,1650824028516710.0
1.0,-3.0,0.0,-1.0,-5.0,2.0,-3.0,-1.0,1650824028516710.0
-1.0,-4.0,-1.0,-4.0,-3.0,-1.0,-1.0,0.0,1650824028517708.0
-2.0,-2.0,-2.0,1.0,-4.0,-8.0,1.0,0.0,1650824028517708.0
-2.0,-1.0,-2.0,-4.0,-2.0,-1.0,-3.0,-2.0,1650824028538680.0
-1.0,0.0,0.0,1.0,-1.0,-3.0,-1.0,1.0,1650824028538680.0
0.0,-1.0,-6.0,-4.0,1.0,6.0,-2.0,-1.0,1650824028540648.0
0.0,0.0,3.0,-1.0,1.0,-1.0,0.0,0.0,1650824028540648.0
-1.0,0.0,3.0,4.0,2.0,-1.0,4.0,2.0,1650824028553639.0
0.0,2.0,1.0,5.0,10.0,5.0,-1.0,0.0,1650824028553639.0
-2.0,-1.0,-1.0,3.0,-3.0,-6.0,-4.0,-1.0,1650824028555606.0
-1.0,-3.0,-6.0,-7.0,-7.0,-6.0,-6.0,-3.0,1650824028555606.0
1.0,-1.0,-3.0,-1.0,-5.0,-2.0,-1.0,-1.0,1650824028577555.0
-2.0,1.0,5.0,-3.0,-4.0,3.0,2.0,-1.0,1650824028577555.0
-3.0,0.0,-2.0,0.0,1.0,0.0,2.0,-3.0,1650824028578546.0
1.0,-1.0,-3.0,-2.0,-3.0,-2.0,-1.0,1.0,1650824028578546.0
-1.0,-4.0,0.0,-6.0,-2.0,-3.0,-5.0,-2.0,1650824028590547.0
0.0,1.0,-1.0,0.0,-1.0,-3.0,-5.0,-3.0,1650824028590547.0
0.0,1.0,6.0,6.0,-2.0,4.0,0.0,1.0,1650824028599490.0
0.0,-2.0,5.0,1.0,4.0,0.0,5.0,-1.0,1650824028599490.0
-2.0,-1.0,-5.0,-3.0,0.0,-2.0,-1.0,-1.0,1650824028614471.0
-2.0,0.0,-3.0,-3.0,0.0,1.0,0.0,-1.0,1650824028614471.0
-2.0,-1.0,-2.0,-4.0,5.0,2.0,-2.0,0.0,1650824028615447.0
-2.0,-1.0,2.0,1.0,-4.0,-1.0,-4.0,0.0,1650824028615447.0
0.0,1.0,3.0,4.0,-8.0,1.0,3.0,1.0,1650824028636884.0
-1.0,-1.0,-1.0,1.0,1.0,2.0,2.0,-1.0,1650824028636884.0
2.0,2.0,-2.0,3.0,-1.0,-3.0,0.0,-1.0,1650824028637856.0
-1.0,-3.0,-4.0,-6.0,-3.0,-3.0,-7.0,-2.0,1650824028637856.0
-3.0,-4.0,-4.0,-6.0,1.0,-4.0,-5.0,-2.0,1650824028649850.0
-2.0,1.0,1.0,7.0,5.0,2.0,3.0,1.0,1650824028649850.0
2.0,1.0,0.0,0.0,-2.0,2.0,3.0,1.0,1650824028658806.0
-2.0,1.0,0.0,2.0,6.0,3.0,5.0,0.0,1650824028658806.0
1.0,-5.0,-2.0,-1.0,3.0,2.0,-4.0,-3.0,1650824028673785.0
0.0,-4.0,-6.0,-4.0,-7.0,-5.0,-3.0,-4.0,1650824028673785.0
-1.0,-1.0,-2.0,-6.0,-1.0,-2.0,1.0,2.0,1650824028675768.0
-1.0,-1.0,-2.0,-1.0,-9.0,-2.0,-2.0,-1.0,1650824028675768.0
0.0,0.0,-5.0,-4.0,11.0,4.0,1.0,0.0,1650824028695687.0
4.0,2.0,3.0,8.0,7.0,2.0,0.0,0.0,1650824028695687.0
-1.0,-1.0,4.0,-2.0,-12.0,0.0,-1.0,0.0,1650824028702631.0
0.0,-2.0,-3.0,3.0,-5.0,-4.0,1.0,-1.0,1650824028702631.0
-3.0,-4.0,-4.0,-1.0,1.0,-1.0,-2.0,-1.0,1650824028718585.0
-5.0,-3.0,-3.0,-1.0,-4.0,-1.0,-4.0,-1.0,1650824028718585.0
4.0,2.0,3.0,3.0,2.0,-8.0,0.0,0.0,1650824028720553.0
1.0,2.0,3.0,-4.0,0.0,7.0,-1.0,0.0,1650824028720553.0
3.0,2.0,2.0,0.0,8.0,-3.0,-1.0,2.0,1650824028741518.0
-3.0,-2.0,-4.0,-7.0,-11.0,-6.0,-1.0,0.0,1650824028741518.0
-3.0,-3.0,-4.0,4.0,2.0,0.0,1.0,0.0,1650824028743493.0
0.0,1.0,4.0,0.0,7.0,3.0,4.0,1.0,1650824028743493.0
0.0,1.0,-9.0,-3.0,-1.0,3.0,-1.0,-1.0,1650824028755487.0
10.0,2.0,4.0,-4.0,-2.0,0.0,1.0,1.0,1650824028755487.0
2.0,1.0,1.0,-3.0,-10.0,-5.0,-3.0,2.0,1650824028762506.0
-4.0,0.0,-9.0,-6.0,-4.0,-6.0,-3.0,-4.0,1650824028762506.0
-6.0,-4.0,3.0,1.0,9.0,2.0,-3.0,-8.0,1650824028786438.0
7.0,2.0,2.0,5.0,-5.0,4.0,8.0,2.0,1650824028786438.0
6.0,2.0,2.0,0.0,7.0,2.0,2.0,1.0,1650824028788396.0
-8.0,-4.0,5.0,6.0,3.0,-1.0,1.0,1.0,1650824028788396.0
-1.0,1.0,0.0,-2.0,-7.0,-2.0,-3.0,-2.0,1650824028802334.0
-4.0,-5.0,-12.0,-6.0,-10.0,-5.0,-5.0,1.0,1650824028802334.0
0.0,1.0,5.0,-4.0,-2.0,2.0,2.0,-1.0,1650824028803332.0
6.0,3.0,-5.0,-1.0,1.0,0.0,0.0,0.0,1650824028803332.0
-2.0,2.0,2.0,4.0,-12.0,-6.0,0.0,2.0,1650824028816355.0
-4.0,-1.0,4.0,4.0,12.0,-4.0,0.0,-1.0,1650824028816355.0
1.0,0.0,1.0,-1.0,1.0,4.0,-2.0,-1.0,1650824028822309.0
-4.0,-5.0,-6.0,-7.0,-1.0,-3.0,-5.0,-4.0,1650824028822309.0
-2.0,-5.0,-3.0,0.0,-2.0,3.0,1.0,0.0,1650824028839263.0
-2.0,4.0,2.0,3.0,4.0,2.0,4.0,2.0,1650824028839263.0
-4.0,-3.0,3.0,8.0,14.0,7.0,2.0,-1.0,1650824028840233.0
10.0,6.0,4.0,6.0,8.0,1.0,1.0,4.0,1650824028840233.0
-4.0,1.0,4.0,-3.0,-5.0,-7.0,-1.0,0.0,1650824028861814.0
5.0,1.0,-8.0,-8.0,-15.0,-6.0,-9.0,-4.0,1650824028861814.0
-17.0,-12.0,7.0,-12.0,-2.0,-3.0,-2.0,-5.0,1650824028862745.0
21.0,6.0,3.0,21.0,-8.0,1.0,6.0,4.0,1650824028862745.0
-8.0,7.0,1.0,0.0,14.0,12.0,16.0,30.0,1650824028874713.0
24.0,33.0,-1.0,2.0,14.0,11.0,-4.0,-23.0,1650824028874713.0
-38.0,-22.0,11.0,-7.0,-3.0,2.0,-16.0,-22.0,1650824028883689.0
-48.0,-41.0,-17.0,-14.0,-1.0,-12.0,-11.0,-21.0,1650824028883689.0
4.0,5.0,14.0,4.0,-20.0,-19.0,-5.0,12.0,1650824028898682.0
57.0,31.0,4.0,18.0,12.0,9.0,9.0,-2.0,1650824028898682.0
-29.0,2.0,-19.0,-6.0,-5.0,0.0,17.0,13.0,1650824028900636.0
-31.0,-22.0,6.0,-10.0,-8.0,-12.0,-31.0,-32.0,1650824028900636.0
-13.0,-24.0,-8.0,-4.0,-2.0,1.0,1.0,-17.0,1650824028921579.0
-8.0,9.0,-3.0,-9.0,0.0,-3.0,7.0,54.0,1650824028921579.0
42.0,0.0,5.0,6.0,-6.0,-5.0,-20.0,-43.0,1650824028923579.0
85.0,80.0,23.0,20.0,20.0,30.0,34.0,54.0,1650824028923579.0
-22.0,24.0,9.0,12.0,4.0,9.0,26.0,23.0,1650824028935543.0
-80.0,-79.0,-37.0,-44.0,-20.0,-20.0,-36.0,-50.0,1650824028935543.0
-29.0,-28.0,-8.0,-2.0,-5.0,-7.0,31.0,-58.0,1650824028944492.0
3.0,23.0,7.0,-4.0,1.0,-1.0,-40.0,76.0,1650824028944492.0
81.0,76.0,31.0,18.0,12.0,4.0,24.0,17.0,1650824028958608.0
-42.0,-77.0,-30.0,4.0,1.0,-7.0,-26.0,-32.0,1650824028958608.0
-4.0,57.0,20.0,4.0,2.0,1.0,-2.0,11.0,1650824028960604.0
3.0,-54.0,-49.0,-10.0,-5.0,10.0,29.0,-11.0,1650824028960604.0
5.0,27.0,53.0,11.0,-3.0,-2.0,-29.0,-29.0,1650824028980617.0
57.0,65.0,-7.0,-13.0,0.0,15.0,27.0,0.0,1650824028980617.0
-57.0,-38.0,-20.0,0.0,-15.0,-36.0,-18.0,-11.0,1650824028989527.0
-32.0,67.0,32.0,25.0,22.0,21.0,-15.0,-23.0,1650824028989527.0
-70.0,-39.0,-29.0,-14.0,0.0,13.0,52.0,68.0,1650824028995512.0
4.0,-73.0,-3.0,-22.0,-23.0,-43.0,-68.0,-82.0,1650824028995512.0
59.0,14.0,-10.0,6.0,7.0,10.0,44.0,70.0,1650824029004513.0
110.0,18.0,21.0,9.0,-4.0,-1.0,9.0,25.0,1650824029004513.0
-82.0,-100.0,-46.0,-22.0,-16.0,-26.0,-55.0,-109.0,1650824029018621.0
66.0,99.0,73.0,44.0,31.0,37.0,49.0,112.0,1650824029018621.0
30.0,17.0,4.0,14.0,4.0,18.0,79.0,74.0,1650824029020617.0
-11.0,-5.0,-10.0,-49.0,-23.0,-32.0,-58.0,-51.0,1650824029020617.0
2.0,-22.0,-48.0,-17.0,-2.0,7.0,16.0,-26.0,1650824029041560.0
56.0,39.0,16.0,29.0,5.0,12.0,-8.0,-7.0,1650824029041560.0
-10.0,-40.0,-36.0,-29.0,9.0,-1.0,-21.0,-4.0,1650824029043556.0
44.0,38.0,-26.0,-6.0,2.0,4.0,22.0,6.0,1650824029043556.0
-21.0,42.0,16.0,-16.0,-15.0,-17.0,-18.0,-18.0,1650824029055590.0
-61.0,10.0,23.0,1.0,-6.0,-7.0,-4.0,-59.0,1650824029055590.0
25.0,-14.0,-29.0,23.0,11.0,20.0,16.0,-7.0,1650824029064499.0
-21.0,-1.0,-3.0,1.0,3.0,-13.0,-37.0,-64.0,1650824029064499.0
71.0,24.0,-2.0,-2.0,4.0,20.0,33.0,69.0,1650824029079507.0
-77.0,-30.0,-7.0,-17.0,-13.0,-2.0,41.0,12.0,1650824029079507.0
-63.0,-70.0,1.0,-10.0,-11.0,-14.0,-41.0,-67.0,1650824029080457.0
-21.0,-32.0,24.0,15.0,-1.0,-6.0,-21.0,32.0,1650824029080457.0
51.0,22.0,5.0,8.0,8.0,0.0,-49.0,-75.0,1650824029101427.0
-49.0,-12.0,2.0,-2.0,-1.0,0.0,20.0,23.0,1650824029101427.0
108.0,79.0,17.0,-5.0,-1.0,6.0,18.0,18.0,1650824029103395.0
-71.0,-63.0,-12.0,16.0,0.0,-3.0,-1.0,7.0,1650824029103395.0
50.0,22.0,46.0,27.0,16.0,15.0,32.0,81.0,1650824029115365.0
-88.0,7.0,-9.0,-2.0,-4.0,-21.0,-26.0,-31.0,1650824029115365.0
-10.0,-6.0,-68.0,-27.0,1.0,-1.0,-63.0,-59.0,1650824029124339.0
12.0,6.0,3.0,-20.0,-7.0,6.0,23.0,-4.0,1650824029124339.0
40.0,51.0,12.0,16.0,2.0,2.0,-14.0,5.0,1650824029139502.0
36.0,-83.0,-15.0,-11.0,9.0,14.0,20.0,7.0,1650824029139502.0
17.0,36.0,52.0,37.0,0.0,-7.0,-15.0,20.0,1650824029140446.0
-13.0,-41.0,-12.0,-3.0,-7.0,-7.0,22.0,6.0,1650824029140446.0
-54.0,-33.0,-22.0,-18.0,-2.0,6.0,2.0,-45.0,1650824029162822.0
18.0,-3.0,-1.0,4.0,-11.0,-15.0,-8.0,35.0,1650824029162822.0
-44.0,35.0,33.0,-1.0,-5.0,-16.0,-53.0,-20.0,1650824029164813.0
57.0,-18.0,15.0,5.0,8.0,16.0,105.0,54.0,1650824029164813.0
-16.0,-18.0,-23.0,-11.0,-8.0,-26.0,-15.0,36.0,1650824029174786.0
-33.0,-25.0,-2.0,9.0,2.0,0.0,-28.0,-57.0,1650824029174786.0
-7.0,-10.0,-13.0,-12.0,-4.0,-4.0,-15.0,16.0,1650824029183835.0
27.0,54.0,13.0,16.0,4.0,13.0,51.0,23.0,1650824029183835.0
43.0,-12.0,-4.0,3.0,2.0,-6.0,-24.0,3.0,1650824029198791.0
-49.0,-8.0,-9.0,-15.0,-2.0,1.0,26.0,5.0,1650824029198791.0
33.0,39.0,40.0,8.0,-6.0,6.0,21.0,34.0,1650824029200716.0
-32.0,19.0,-15.0,12.0,6.0,5.0,7.0,17.0,1650824029200716.0
17.0,-29.0,-12.0,5.0,4.0,9.0,13.0,7.0,1650824029221727.0
32.0,28.0,28.0,-21.0,11.0,4.0,-15.0,14.0,1650824029221727.0
-22.0,-14.0,4.0,2.0,1.0,1.0,7.0,-7.0,1650824029222657.0
-33.0,13.0,5.0,-21.0,-10.0,-16.0,-31.0,-19.0,1650824029222657.0
78.0,40.0,12.0,11.0,-5.0,8.0,43.0,44.0,1650824029242626.0
-48.0,-30.0,-16.0,15.0,-3.0,-7.0,-28.0,-89.0,1650824029242626.0
-19.0,-48.0,-12.0,9.0,8.0,-2.0,-9.0,53.0,1650824029251579.0
6.0,13.0,22.0,-10.0,-12.0,-2.0,15.0,-19.0,1650824029251579.0
-24.0,0.0,7.0,4.0,-7.0,-25.0,-86.0,-48.0,1650824029259560.0
25.0,13.0,-2.0,3.0,7.0,16.0,0.0,17.0,1650824029259560.0
-5.0,1.0,8.0,11.0,7.0,2.0,-20.0,-56.0,1650824029260557.0
21.0,-14.0,-41.0,-7.0,-1.0,-1.0,-8.0,6.0,1650824029260557.0
-37.0,-22.0,-6.0,-8.0,4.0,15.0,49.0,38.0,1650824029282005.0
46.0,10.0,2.0,-14.0,-5.0,5.0,-12.0,-55.0,1650824029282005.0
-16.0,75.0,27.0,11.0,7.0,8.0,-26.0,-15.0,1650824029282928.0
13.0,3.0,4.0,17.0,-4.0,-19.0,-2.0,-12.0,1650824029282928.0
-65.0,-49.0,-14.0,-45.0,-10.0,-12.0,-28.0,-40.0,1650824029303866.0
21.0,32.0,-2.0,21.0,3.0,2.0,8.0,51.0,1650824029303866.0
21.0,18.0,13.0,-1.0,7.0,17.0,62.0,45.0,1650824029305861.0
11.0,49.0,25.0,-13.0,-4.0,-9.0,-25.0,-31.0,1650824029305861.0
4.0,-46.0,-17.0,4.0,-1.0,-3.0,-3.0,-7.0,1650824029318853.0
-15.0,13.0,-5.0,0.0,-13.0,1.0,13.0,46.0,1650824029318853.0
19.0,-22.0,-14.0,-9.0,-3.0,-1.0,29.0,37.0,1650824029320821.0
-58.0,-5.0,15.0,14.0,6.0,12.0,-6.0,48.0,1650824029320821.0
3.0,-9.0,-12.0,-10.0,-5.0,-31.0,-39.0,-9.0,1650824029341785.0
21.0,12.0,17.0,0.0,-3.0,-2.0,16.0,-41.0,1650824029341785.0
22.0,-9.0,-18.0,-4.0,-1.0,6.0,-12.0,-10.0,1650824029342767.0
-4.0,-21.0,2.0,4.0,2.0,2.0,11.0,-5.0,1650824029342767.0
-25.0,39.0,23.0,10.0,1.0,10.0,2.0,67.0,1650824029364016.0
6.0,-9.0,-10.0,-14.0,-6.0,-17.0,-15.0,-18.0,1650824029364016.0
8.0,-21.0,-24.0,5.0,-4.0,-13.0,-11.0,-19.0,1650824029366043.0
0.0,-18.0,3.0,-3.0,4.0,8.0,6.0,-40.0,1650824029366043.0
-2.0,67.0,45.0,18.0,-2.0,-1.0,5.0,-18.0,1650824029379530.0
30.0,-50.0,-27.0,11.0,21.0,12.0,21.0,47.0,1650824029379530.0
-12.0,46.0,-5.0,-36.0,-13.0,0.0,5.0,0.0,1650824029380476.0
42.0,-21.0,-35.0,11.0,6.0,-1.0,-17.0,19.0,1650824029380476.0
10.0,48.0,36.0,5.0,-7.0,8.0,20.0,-8.0,1650824029400483.0
-11.0,9.0,8.0,1.0,1.0,-2.0,-12.0,6.0,1650824029400483.0
-10.0,-59.0,-9.0,-10.0,-5.0,-7.0,-5.0,-12.0,1650824029409397.0
-46.0,-9.0,-32.0,-17.0,-8.0,-4.0,-10.0,-6.0,1650824029409397.0
12.0,-8.0,5.0,15.0,9.0,21.0,64.0,-4.0,1650824029424468.0
11.0,38.0,-7.0,-13.0,-13.0,-23.0,-55.0,-12.0,1650824029424468.0
-42.0,-24.0,11.0,7.0,-2.0,-1.0,31.0,20.0,1650824029425468.0
16.0,-18.0,-6.0,2.0,-2.0,-13.0,-53.0,-48.0,1650824029425468.0
-20.0,-19.0,-20.0,-16.0,0.0,0.0,4.0,13.0,1650824029438480.0
8.0,-22.0,3.0,7.0,6.0,5.0,-18.0,-1.0,1650824029438480.0
-35.0,3.0,-8.0,-3.0,-8.0,-2.0,17.0,7.0,1650824029445466.0
-24.0,-28.0,11.0,-11.0,-4.0,-9.0,-3.0,12.0,1650824029445466.0
24.0,-1.0,-11.0,2.0,9.0,18.0,25.0,22.0,1650824029461524.0
5.0,5.0,11.0,12.0,2.0,6.0,25.0,42.0,1650824029461524.0
27.0,13.0,-2.0,-2.0,-7.0,-9.0,-25.0,-35.0,1650824029463475.0
-8.0,-5.0,-28.0,29.0,13.0,12.0,11.0,-13.0,1650824029463475.0
-66.0,-51.0,-7.0,-25.0,6.0,6.0,-7.0,-26.0,1650824029484529.0
18.0,8.0,1.0,-10.0,-3.0,2.0,18.0,41.0,1650824029484529.0
5.0,-8.0,-6.0,2.0,-4.0,-8.0,-19.0,-30.0,1650824029485497.0
1.0,-1.0,22.0,-4.0,-4.0,0.0,10.0,29.0,1650824029485497.0
14.0,10.0,-10.0,12.0,-7.0,-15.0,-22.0,-4.0,1650824029498608.0
-9.0,-23.0,-1.0,1.0,2.0,9.0,34.0,-11.0,1650824029498608.0
-18.0,24.0,12.0,-8.0,-8.0,-8.0,-19.0,4.0,1650824029505525.0
44.0,56.0,29.0,3.0,-4.0,2.0,-3.0,11.0,1650824029505525.0
5.0,-33.0,-13.0,-2.0,3.0,2.0,12.0,-5.0,1650824029529604.0
9.0,11.0,3.0,-2.0,-3.0,-2.0,-6.0,13.0,1650824029529604.0
-31.0,-53.0,2.0,11.0,13.0,16.0,42.0,34.0,1650824029530576.0
6.0,-4.0,-23.0,-26.0,-18.0,-19.0,-56.0,-38.0,1650824029530576.0
17.0,-1.0,1.0,5.0,-5.0,-8.0,-10.0,-23.0,1650824029544475.0
0.0,-23.0,-30.0,14.0,18.0,11.0,15.0,47.0,1650824029544475.0
23.0,-17.0,-7.0,2.0,2.0,2.0,19.0,8.0,1650824029545476.0
-30.0,5.0,9.0,7.0,1.0,-4.0,-31.0,-31.0,1650824029545476.0
4.0,-6.0,-26.0,-28.0,-12.0,-6.0,-24.0,-30.0,1650824029558635.0
-7.0,23.0,11.0,-3.0,-13.0,1.0,-1.0,-29.0,1650824029558635.0
30.0,10.0,-14.0,-4.0,12.0,12.0,4.0,19.0,1650824029565552.0
-46.0,-69.0,-53.0,-29.0,-11.0,-5.0,13.0,-9.0,1650824029565552.0
10.0,73.0,15.0,20.0,7.0,2.0,7.0,11.0,1650824029581648.0
42.0,29.0,27.0,9.0,0.0,-2.0,-3.0,33.0,1650824029581648.0
-13.0,-32.0,-12.0,-19.0,-17.0,-6.0,16.0,-6.0,1650824029583589.0
10.0,0.0,24.0,7.0,8.0,6.0,-20.0,12.0,1650824029583589.0
-17.0,-28.0,4.0,8.0,3.0,0.0,4.0,-31.0,1650824029604550.0
9.0,2.0,-28.0,-6.0,-5.0,-7.0,1.0,20.0,1650824029604550.0
15.0,28.0,16.0,5.0,-1.0,0.0,-9.0,23.0,1650824029605522.0
39.0,16.0,11.0,-4.0,-1.0,8.0,15.0,42.0,1650824029605522.0
12.0,-17.0,10.0,10.0,5.0,-5.0,-30.0,-44.0,1650824029618552.0
-42.0,5.0,-2.0,20.0,15.0,13.0,19.0,-53.0,1650824029618552.0
19.0,-59.0,-45.0,-23.0,-5.0,-9.0,-22.0,-7.0,1650824029625617.0
-5.0,-4.0,-12.0,-9.0,-5.0,1.0,34.0,16.0,1650824029625617.0
15.0,-14.0,7.0,10.0,-9.0,-2.0,-7.0,11.0,1650824029641574.0
-5.0,19.0,11.0,-7.0,2.0,3.0,-2.0,0.0,1650824029641574.0
-9.0,-37.0,-15.0,-27.0,-8.0,-4.0,-7.0,-21.0,1650824029643520.0
-35.0,4.0,10.0,22.0,4.0,1.0,10.0,5.0,1650824029643520.0
9.0,-11.0,6.0,2.0,2.0,5.0,8.0,19.0,1650824029664452.0
7.0,-2.0,-11.0,-14.0,-4.0,0.0,-1.0,2.0,1650824029664452.0
-7.0,8.0,12.0,9.0,-3.0,-2.0,9.0,-19.0,1650824029665444.0
2.0,0.0,6.0,-9.0,-4.0,-3.0,-8.0,-5.0,1650824029665444.0
-13.0,10.0,-6.0,9.0,2.0,-5.0,1.0,-33.0,1650824029678476.0
7.0,-6.0,18.0,10.0,3.0,0.0,-14.0,6.0,1650824029678476.0
-9.0,44.0,13.0,10.0,12.0,14.0,0.0,36.0,1650824029685453.0
-36.0,-28.0,-3.0,0.0,-3.0,-4.0,18.0,-20.0,1650824029685453.0
-2.0,25.0,7.0,-3.0,2.0,6.0,-14.0,-23.0,1650824029701936.0
17.0,4.0,-12.0,-7.0,4.0,-1.0,10.0,15.0,1650824029701936.0
5.0,26.0,34.0,18.0,0.0,-2.0,3.0,13.0,1650824029702915.0
4.0,-13.0,10.0,-1.0,-9.0,-1.0,-2.0,-13.0,1650824029702915.0
-15.0,-12.0,-24.0,-9.0,2.0,0.0,9.0,31.0,1650824029724537.0
-33.0,-40.0,-41.0,-40.0,-12.0,-4.0,1.0,-5.0,1650824029724537.0
-9.0,28.0,0.0,11.0,1.0,-4.0,-28.0,-36.0,1650824029725542.0
12.0,11.0,3.0,8.0,3.0,9.0,39.0,36.0,1650824029725542.0
16.0,51.0,2.0,-6.0,-5.0,-5.0,-9.0,19.0,1650824029737572.0
-18.0,-33.0,8.0,12.0,15.0,5.0,3.0,-5.0,1650824029737572.0
-18.0,11.0,10.0,8.0,4.0,0.0,-17.0,-37.0,1650824029746493.0
20.0,18.0,-32.0,-15.0,-2.0,2.0,24.0,26.0,1650824029746493.0
30.0,18.0,22.0,12.0,4.0,6.0,28.0,94.0,1650824029761440.0
-5.0,0.0,19.0,0.0,-9.0,-11.0,-34.0,-68.0,1650824029761440.0
-3.0,-6.0,9.0,7.0,2.0,0.0,9.0,-21.0,1650824029763435.0
22.0,18.0,-11.0,-10.0,1.0,1.0,-16.0,14.0,1650824029763435.0
-4.0,29.0,21.0,5.0,-1.0,2.0,13.0,26.0,1650824029784546.0
14.0,-4.0,8.0,1.0,-3.0,2.0,-6.0,-3.0,1650824029784546.0
-27.0,20.0,11.0,1.0,-5.0,-9.0,11.0,39.0,1650824029785547.0
-18.0,-23.0,7.0,12.0,2.0,1.0,7.0,-14.0,1650824029785547.0
-17.0,10.0,0.0,-1.0,3.0,1.0,-19.0,-66.0,1650824029806516.0
-7.0,-5.0,-41.0,-23.0,-12.0,-7.0,7.0,3.0,1650824029806516.0
42.0,1.0,-4.0,-19.0,-7.0,1.0,7.0,24.0,1650824029808511.0
-47.0,-42.0,16.0,25.0,7.0,-5.0,-11.0,-13.0,1650824029808511.0
-34.0,-48.0,2.0,0.0,0.0,0.0,-6.0,19.0,1650824029821475.0
4.0,14.0,-17.0,-7.0,-4.0,-3.0,-6.0,-24.0,1650824029821475.0
46.0,28.0,-4.0,-4.0,2.0,-4.0,-1.0,-7.0,1650824029823443.0
-24.0,-8.0,0.0,-8.0,2.0,1.0,11.0,39.0,1650824029823443.0
32.0,13.0,11.0,16.0,0.0,7.0,-20.0,-58.0,1650824029844417.0
-22.0,45.0,16.0,18.0,0.0,-7.0,3.0,-21.0,1650824029844417.0
-35.0,-33.0,-18.0,-14.0,-9.0,-12.0,-16.0,-13.0,1650824029845389.0
12.0,21.0,4.0,5.0,6.0,5.0,-20.0,-49.0,1650824029845389.0
-13.0,10.0,-15.0,-16.0,-7.0,-6.0,31.0,30.0,1650824029857380.0
52.0,39.0,41.0,11.0,-3.0,3.0,-1.0,30.0,1650824029857380.0
-30.0,-15.0,52.0,17.0,4.0,-5.0,-21.0,-26.0,1650824029866330.0
16.0,17.0,-23.0,-1.0,2.0,10.0,10.0,0.0,1650824029866330.0
-25.0,-28.0,-5.0,0.0,1.0,-3.0,0.0,0.0,1650824029881465.0
10.0,-40.0,-25.0,-61.0,-13.0,-2.0,16.0,43.0,1650824029881465.0
10.0,-34.0,-13.0,1.0,-12.0,-13.0,-7.0,1.0,1650824029883424.0
-33.0,6.0,-16.0,-1.0,6.0,6.0,-11.0,-32.0,1650824029883424.0
6.0,-25.0,12.0,-11.0,-12.0,-17.0,4.0,16.0,1650824029904475.0
-18.0,-20.0,-1.0,16.0,-5.0,-3.0,-21.0,-25.0,1650824029904475.0
9.0,6.0,-12.0,5.0,10.0,13.0,12.0,15.0,1650824029905473.0
21.0,6.0,16.0,0.0,1.0,5.0,32.0,42.0,1650824029905473.0
1.0,5.0,-25.0,9.0,11.0,5.0,10.0,-6.0,1650824029917511.0
-1.0,4.0,7.0,6.0,-5.0,-15.0,-20.0,-4.0,1650824029917511.0
35.0,5.0,-19.0,-5.0,0.0,7.0,37.0,46.0,1650824029926521.0
9.0,21.0,29.0,4.0,-3.0,0.0,-36.0,-20.0,1650824029926521.0
-12.0,-19.0,5.0,2.0,3.0,0.0,0.0,-14.0,1650824029942011.0
11.0,-4.0,16.0,22.0,7.0,7.0,4.0,10.0,1650824029942011.0
-3.0,-8.0,-26.0,-18.0,-9.0,-8.0,-4.0,0.0,1650824029942921.0
5.0,-11.0,2.0,-13.0,1.0,-1.0,16.0,27.0,1650824029942921.0
-9.0,-18.0,12.0,-8.0,-21.0,-21.0,-33.0,-13.0,1650824029964043.0
-6.0,18.0,21.0,25.0,7.0,14.0,27.0,24.0,1650824029964043.0
17.0,58.0,42.0,46.0,24.0,15.0,4.0,4.0,1650824029965971.0
55.0,8.0,-49.0,-49.0,-5.0,2.0,5.0,6.0,1650824029965971.0
-14.0,-15.0,-54.0,-23.0,-18.0,-5.0,-5.0,-8.0,1650824029977938.0
-67.0,-52.0,-25.0,-4.0,7.0,3.0,13.0,-11.0,1650824029977938.0
2.0,30.0,49.0,19.0,-4.0,-2.0,-16.0,-29.0,1650824029986915.0
1.0,13.0,15.0,7.0,-5.0,-11.0,-17.0,-21.0,1650824029986915.0
22.0,17.0,1.0,7.0,7.0,11.0,32.0,62.0,1650824030001891.0
-8.0,-2.0,-9.0,0.0,0.0,4.0,3.0,-25.0,1650824030001891.0
-20.0,3.0,6.0,-2.0,7.0,9.0,6.0,-9.0,1650824030002890.0
11.0,15.0,3.0,3.0,-7.0,-5.0,22.0,5.0,1650824030002890.0
-13.0,-21.0,-7.0,-8.0,1.0,-10.0,-61.0,-59.0,1650824030023900.0
2.0,-15.0,-2.0,3.0,-4.0,-2.0,-2.0,18.0,1650824030023900.0
39.0,13.0,-17.0,-8.0,4.0,5.0,5.0,0.0,1650824030025828.0
-32.0,22.0,70.0,21.0,-1.0,-2.0,13.0,29.0,1650824030025828.0
2.0,-55.0,-70.0,-7.0,2.0,9.0,1.0,-47.0,1650824030037863.0
15.0,22.0,17.0,4.0,6.0,4.0,19.0,40.0,1650824030037863.0
-24.0,-82.0,-25.0,-38.0,-18.0,-15.0,-35.0,-52.0,1650824030046722.0
0.0,41.0,27.0,10.0,-11.0,-7.0,-16.0,-16.0,1650824030046722.0
2.0,-38.0,-34.0,-10.0,3.0,4.0,8.0,18.0,1650824030061692.0
21.0,24.0,29.0,10.0,-8.0,-8.0,-8.0,-6.0,1650824030061692.0
-14.0,37.0,10.0,5.0,9.0,12.0,15.0,18.0,1650824030062689.0
25.0,-44.0,-22.0,0.0,-6.0,-11.0,2.0,-3.0,1650824030062689.0
6.0,13.0,24.0,12.0,4.0,-2.0,-41.0,-32.0,1650824030084656.0
-47.0,-69.0,-19.0,-15.0,-13.0,-6.0,20.0,-8.0,1650824030084656.0
55.0,53.0,21.0,10.0,1.0,10.0,8.0,50.0,1650824030085683.0
-87.0,-52.0,-5.0,2.0,7.0,-1.0,-9.0,-28.0,1650824030085683.0
21.0,49.0,18.0,2.0,-2.0,-4.0,4.0,2.0,1650824030097642.0
34.0,21.0,1.0,2.0,3.0,-3.0,-14.0,34.0,1650824030097642.0
7.0,5.0,-6.0,-4.0,2.0,1.0,-6.0,-12.0,1650824030106647.0
7.0,9.0,-23.0,0.0,4.0,8.0,14.0,16.0,1650824030106647.0
4.0,-15.0,0.0,-1.0,-4.0,-4.0,-7.0,-46.0,1650824030121843.0
-34.0,-3.0,-2.0,2.0,-4.0,-4.0,0.0,-4.0,1650824030121843.0
-22.0,-29.0,-31.0,-10.0,0.0,-4.0,-2.0,-4.0,1650824030122772.0
19.0,20.0,-3.0,-2.0,-3.0,3.0,4.0,2.0,1650824030122772.0
2.0,-6.0,-14.0,-26.0,4.0,7.0,16.0,15.0,1650824030144415.0
22.0,28.0,16.0,15.0,-2.0,-4.0,1.0,0.0,1650824030144415.0
-11.0,-1.0,3.0,3.0,-2.0,0.0,0.0,-14.0,1650824030145413.0
4.0,-40.0,-52.0,-14.0,4.0,-4.0,-20.0,-21.0,1650824030145413.0
-8.0,9.0,6.0,-2.0,-1.0,6.0,16.0,35.0,1650824030157408.0
23.0,10.0,7.0,-1.0,1.0,0.0,-21.0,-1.0,1650824030157408.0
-3.0,-7.0,11.0,8.0,-3.0,-5.0,-16.0,-17.0,1650824030166357.0
-5.0,9.0,19.0,6.0,-2.0,-3.0,13.0,-6.0,1650824030166357.0
4.0,12.0,12.0,1.0,-4.0,2.0,52.0,33.0,1650824030181344.0
4.0,-2.0,-27.0,-7.0,5.0,-3.0,-66.0,-28.0,1650824030181344.0
-6.0,-11.0,-10.0,1.0,-5.0,-15.0,-10.0,13.0,1650824030183311.0
3.0,-8.0,0.0,-4.0,0.0,-2.0,-30.0,-16.0,1650824030183311.0
-23.0,-6.0,9.0,5.0,-1.0,10.0,27.0,5.0,1650824030204282.0
4.0,11.0,-1.0,-4.0,4.0,3.0,26.0,2.0,1650824030204282.0
-4.0,-8.0,-7.0,-1.0,3.0,6.0,13.0,18.0,1650824030205252.0
5.0,11.0,11.0,3.0,7.0,-1.0,-13.0,-9.0,1650824030205252.0
1.0,5.0,12.0,6.0,0.0,-1.0,-10.0,2.0,1650824030226217.0
0.0,-3.0,-14.0,1.0,3.0,1.0,12.0,6.0,1650824030226217.0
-8.0,-1.0,5.0,-6.0,-8.0,-8.0,-12.0,-6.0,1650824030228192.0
-3.0,-3.0,0.0,5.0,-5.0,-1.0,14.0,2.0,1650824030228192.0
-1.0,6.0,-3.0,-18.0,-6.0,-3.0,-15.0,-6.0,1650824030241184.0
-1.0,-3.0,-7.0,-2.0,-6.0,1.0,5.0,2.0,1650824030241184.0
-3.0,-13.0,-19.0,-6.0,7.0,0.0,9.0,-8.0,1650824030243162.0
-4.0,10.0,19.0,0.0,-3.0,5.0,-6.0,-3.0,1650824030243162.0
5.0,3.0,12.0,9.0,7.0,-8.0,-12.0,11.0,1650824030264129.0
2.0,3.0,7.0,5.0,3.0,2.0,10.0,-3.0,1650824030264129.0
-4.0,2.0,-1.0,6.0,0.0,7.0,6.0,-4.0,1650824030266089.0
-2.0,-6.0,-4.0,-1.0,-1.0,-5.0,-13.0,5.0,1650824030266089.0
1.0,2.0,-3.0,2.0,-2.0,-5.0,-9.0,5.0,1650824030286075.0
0.0,0.0,1.0,-7.0,-8.0,-2.0,-3.0,-2.0,1650824030286075.0
-6.0,-3.0,-3.0,0.0,-5.0,-2.0,1.0,-6.0,1650824030288031.0
29.0,4.0,-5.0,-8.0,-2.0,-3.0,-7.0,5.0,1650824030288031.0
-12.0,-2.0,4.0,13.0,6.0,6.0,2.0,-3.0,1650824030301938.0
0.0,3.0,-6.0,-2.0,-7.0,-1.0,8.0,1.0,1650824030301938.0
-6.0,-4.0,0.0,-10.0,1.0,-2.0,-4.0,-9.0,1650824030302904.0
12.0,7.0,5.0,11.0,1.0,-3.0,-3.0,-8.0,1650824030302904.0
-10.0,-2.0,5.0,-8.0,2.0,3.0,2.0,2.0,1650824030324836.0
2.0,-4.0,5.0,-5.0,-1.0,-1.0,5.0,26.0,1650824030324836.0
-1.0,-6.0,-13.0,1.0,-5.0,-5.0,-7.0,-10.0,1650824030325833.0
-6.0,-1.0,-16.0,-15.0,-8.0,-7.0,2.0,-1.0,1650824030325833.0
4.0,-4.0,5.0,11.0,9.0,8.0,-4.0,-6.0,1650824030345781.0
-2.0,4.0,5.0,2.0,1.0,2.0,4.0,5.0,1650824030345781.0
1.0,1.0,6.0,3.0,-6.0,-8.0,1.0,10.0,1650824030346780.0
-8.0,-3.0,-7.0,-26.0,-7.0,-2.0,2.0,4.0,1650824030346780.0
-19.0,-2.0,-5.0,-1.0,1.0,3.0,1.0,21.0,1650824030362735.0
-4.0,3.0,9.0,5.0,8.0,7.0,-5.0,-61.0,1650824030362735.0
15.0,-2.0,0.0,24.0,1.0,2.0,-3.0,5.0,1650824030362735.0
-53.0,-11.0,-15.0,-32.0,-5.0,-8.0,-7.0,-15.0,1650824030362735.0
10.0,6.0,14.0,9.0,-9.0,-9.0,-2.0,7.0,1650824030383757.0
-8.0,-8.0,-14.0,-14.0,-3.0,-3.0,1.0,-12.0,1650824030383757.0
-7.0,4.0,4.0,1.0,5.0,4.0,-1.0,-1.0,1650824030383757.0
13.0,6.0,16.0,29.0,9.0,7.0,5.0,8.0,1650824030383757.0
1.0,0.0,-3.0,-15.0,-2.0,-1.0,-14.0,-21.0,1650824030405833.0
-3.0,-4.0,-14.0,4.0,-5.0,-8.0,-1.0,3.0,1650824030405833.0
0.0,-4.0,-6.0,-8.0,-5.0,-4.0,0.0,2.0,1650824030406831.0
3.0,2.0,2.0,8.0,7.0,7.0,4.0,4.0,1650824030406831.0
5.0,8.0,12.0,8.0,1.0,-2.0,5.0,2.0,1650824030419795.0
9.0,0.0,7.0,3.0,-3.0,-1.0,1.0,8.0,1650824030419795.0
-8.0,-9.0,-18.0,-22.0,-7.0,-6.0,-5.0,-4.0,1650824030428787.0
2.0,0.0,5.0,6.0,4.0,5.0,-2.0,-9.0,1650824030428787.0
1.0,-11.0,-33.0,6.0,5.0,4.0,4.0,-3.0,1650824030443731.0
-2.0,-2.0,-2.0,-17.0,-6.0,-8.0,-7.0,-1.0,1650824030443731.0
-15.0,4.0,11.0,-3.0,1.0,4.0,1.0,3.0,1650824030443731.0
4.0,11.0,15.0,21.0,6.0,8.0,3.0,-4.0,1650824030443731.0
4.0,-9.0,-5.0,-10.0,-5.0,-6.0,-2.0,1.0,1650824030465694.0
0.0,-2.0,-8.0,-2.0,-5.0,-11.0,1.0,6.0,1650824030465694.0
2.0,0.0,-5.0,-5.0,-1.0,-5.0,-1.0,0.0,1650824030466625.0
6.0,6.0,6.0,8.0,6.0,8.0,0.0,-1.0,1650824030466625.0
1.0,2.0,7.0,5.0,-7.0,-2.0,-1.0,-4.0,1650824030481653.0
0.0,-7.0,-7.0,-4.0,2.0,1.0,-1.0,6.0,1650824030481653.0
-1.0,-1.0,2.0,-8.0,1.0,0.0,-3.0,-3.0,1650824030488633.0
-1.0,-4.0,-10.0,-5.0,-5.0,-5.0,-6.0,-2.0,1650824030488633.0
1.0,3.0,7.0,5.0,5.0,4.0,4.0,0.0,1650824030503612.0
-1.0,5.0,7.0,7.0,1.0,6.0,1.0,2.0,1650824030503612.0
4.0,-1.0,-4.0,1.0,-5.0,-3.0,3.0,17.0,1650824030504582.0
0.0,-1.0,1.0,1.0,4.0,-1.0,1.0,-3.0,1650824030504582.0
0.0,2.0,3.0,-3.0,3.0,-1.0,-1.0,3.0,1650824030525579.0
1.0,4.0,7.0,7.0,-3.0,-1.0,-3.0,-1.0,1650824030525579.0
-6.0,1.0,-9.0,-5.0,0.0,3.0,2.0,-4.0,1650824030526585.0
35.0,-7.0,-3.0,-5.0,-3.0,-4.0,-4.0,1.0,1650824030526585.0
-7.0,-8.0,-5.0,-5.0,-7.0,-5.0,-4.0,-7.0,1650824030540602.0
2.0,1.0,0.0,3.0,5.0,3.0,2.0,3.0,1650824030540602.0
2.0,0.0,-1.0,0.0,4.0,4.0,1.0,-2.0,1650824030548580.0
1.0,1.0,4.0,9.0,3.0,0.0,1.0,-3.0,1650824030548580.0
3.0,6.0,-3.0,6.0,-9.0,-3.0,-4.0,-4.0,1650824030563479.0
-5.0,-13.0,-11.0,-21.0,-6.0,-4.0,-5.0,-3.0,1650824030563479.0
3.0,10.0,4.0,5.0,2.0,1.0,1.0,-1.0,1650824030564488.0
-8.0,-9.0,7.0,5.0,1.0,0.0,0.0,-2.0,1650824030564488.0
6.0,2.0,-2.0,4.0,4.0,2.0,2.0,11.0,1650824030585516.0
-5.0,7.0,10.0,3.0,2.0,2.0,-3.0,-12.0,1650824030585516.0
-1.0,-8.0,-2.0,0.0,-1.0,1.0,-3.0,-4.0,1650824030586516.0
-7.0,2.0,-4.0,-2.0,-2.0,-2.0,0.0,1.0,1650824030586516.0
0.0,1.0,-1.0,-4.0,-3.0,-2.0,-3.0,-2.0,1650824030600540.0
3.0,2.0,-2.0,-2.0,-1.0,1.0,2.0,3.0,1650824030600540.0
1.0,1.0,6.0,7.0,5.0,-2.0,3.0,-1.0,1650824030608523.0
-5.0,4.0,0.0,-2.0,-3.0,1.0,0.0,-2.0,1650824030608523.0
-5.0,-8.0,-17.0,-11.0,0.0,-1.0,-1.0,-2.0,1650824030623444.0
2.0,-4.0,-4.0,-1.0,1.0,0.0,-4.0,-1.0,1650824030623444.0
4.0,11.0,13.0,8.0,5.0,7.0,4.0,1.0,1650824030624414.0
-16.0,-34.0,-17.0,-4.0,-7.0,-8.0,-5.0,-4.0,1650824030624414.0
3.0,11.0,13.0,-14.0,-6.0,0.0,0.0,-2.0,1650824030646363.0
-4.0,-16.0,-21.0,-5.0,-5.0,-4.0,-1.0,1.0,1650824030646363.0
-2.0,-8.0,-12.0,-1.0,3.0,3.0,-6.0,-2.0,1650824030646363.0
4.0,15.0,-1.0,6.0,-11.0,-6.0,4.0,4.0,1650824030646363.0
-3.0,-4.0,20.0,2.0,2.0,-5.0,-3.0,-3.0,1650824030660382.0
-1.0,0.0,-5.0,0.0,2.0,3.0,-1.0,0.0,1650824030660382.0
1.0,3.0,0.0,-2.0,-6.0,-5.0,0.0,1.0,1650824030668297.0
0.0,10.0,3.0,0.0,0.0,2.0,1.0,3.0,1650824030668297.0
-3.0,-11.0,-27.0,0.0,1.0,-1.0,-5.0,-6.0,1650824030684292.0
-1.0,6.0,22.0,15.0,12.0,10.0,5.0,2.0,1650824030684292.0
-1.0,-4.0,-4.0,-7.0,0.0,-9.0,-2.0,-1.0,1650824030685293.0
-2.0,3.0,-5.0,-17.0,-8.0,-5.0,-4.0,-3.0,1650824030685293.0
0.0,2.0,8.0,9.0,0.0,5.0,5.0,2.0,1650824030705472.0
2.0,6.0,7.0,-2.0,1.0,-2.0,-2.0,1.0,1650824030705472.0
-1.0,-4.0,2.0,7.0,1.0,4.0,0.0,-2.0,1650824030706472.0
-3.0,5.0,11.0,3.0,3.0,12.0,0.0,-3.0,1650824030706472.0
1.0,2.0,2.0,-2.0,-4.0,-12.0,-2.0,0.0,1650824030720433.0
0.0,4.0,-1.0,6.0,0.0,-1.0,1.0,1.0,1650824030720433.0
0.0,1.0,6.0,5.0,0.0,0.0,-2.0,0.0,1650824030728413.0
-5.0,-6.0,-10.0,-10.0,-2.0,-4.0,-2.0,-2.0,1650824030728413.0
0.0,1.0,0.0,-9.0,0.0,7.0,-2.0,-1.0,1650824030743860.0
2.0,-6.0,-6.0,1.0,-4.0,-1.0,-1.0,0.0,1650824030743860.0
-2.0,4.0,16.0,-1.0,-6.0,-8.0,-2.0,-2.0,1650824030743860.0
-3.0,-5.0,0.0,0.0,6.0,8.0,2.0,-1.0,1650824030743860.0
5.0,11.0,4.0,18.0,6.0,1.0,-1.0,3.0,1650824030765831.0
-1.0,-13.0,-5.0,-4.0,8.0,1.0,3.0,0.0,1650824030765831.0
2.0,13.0,12.0,-2.0,2.0,-4.0,-3.0,-1.0,1650824030766801.0
-2.0,4.0,-5.0,4.0,0.0,-3.0,-6.0,-4.0,1650824030766801.0
0.0,3.0,-3.0,-14.0,-13.0,-4.0,2.0,1.0,1650824030779766.0
1.0,10.0,8.0,7.0,6.0,1.0,2.0,-1.0,1650824030779766.0
-2.0,-12.0,-23.0,-8.0,-2.0,1.0,2.0,-1.0,1650824030788278.0
3.0,7.0,3.0,4.0,7.0,5.0,3.0,-1.0,1650824030788278.0
0.0,-3.0,3.0,1.0,-1.0,-2.0,1.0,2.0,1650824030803210.0
1.0,1.0,-3.0,-1.0,-6.0,2.0,-1.0,1.0,1650824030803210.0
-2.0,-4.0,-3.0,-4.0,-10.0,-6.0,0.0,-3.0,1650824030804209.0
2.0,-2.0,1.0,-1.0,4.0,-2.0,-2.0,0.0,1650824030804209.0
-2.0,-6.0,-4.0,1.0,0.0,2.0,-2.0,-3.0,1650824030826297.0
-5.0,-2.0,1.0,-2.0,-1.0,-1.0,0.0,0.0,1650824030826297.0
2.0,-3.0,-4.0,-8.0,3.0,6.0,1.0,0.0,1650824030826297.0
-1.0,-3.0,-3.0,-3.0,-7.0,-7.0,-3.0,-1.0,1650824030826297.0
-2.0,1.0,0.0,-2.0,-1.0,3.0,3.0,-2.0,1650824030840264.0
-4.0,4.0,0.0,-1.0,2.0,-1.0,0.0,-2.0,1650824030840264.0
0.0,-3.0,5.0,7.0,2.0,3.0,-1.0,-1.0,1650824030848174.0
-2.0,-11.0,-5.0,0.0,-4.0,6.0,-2.0,-1.0,1650824030848174.0
0.0,-1.0,-11.0,-15.0,-5.0,-13.0,-5.0,-1.0,1650824030863255.0
1.0,0.0,10.0,-8.0,-7.0,-3.0,-1.0,0.0,1650824030863255.0
-1.0,-8.0,-22.0,3.0,5.0,-1.0,3.0,2.0,1650824030864250.0
0.0,6.0,5.0,10.0,8.0,0.0,2.0,1.0,1650824030864250.0
-3.0,-11.0,-7.0,-5.0,3.0,3.0,-2.0,-1.0,1650824030885698.0
2.0,9.0,10.0,-2.0,-10.0,-2.0,-1.0,0.0,1650824030885698.0
0.0,-2.0,-2.0,-1.0,10.0,8.0,-2.0,1.0,1650824030886627.0
-3.0,-1.0,0.0,-3.0,-16.0,-8.0,-1.0,0.0,1650824030886627.0
0.0,-2.0,4.0,5.0,6.0,-8.0,3.0,-1.0,1650824030900655.0
-1.0,0.0,-2.0,0.0,-1.0,-6.0,-2.0,-1.0,1650824030900655.0
0.0,-1.0,0.0,-8.0,-5.0,-4.0,-4.0,-3.0,1650824030915598.0
-2.0,-5.0,-9.0,-1.0,4.0,5.0,2.0,-1.0,1650824030915598.0
-1.0,-5.0,0.0,-2.0,-3.0,4.0,0.0,-2.0,1650824030923836.0
0.0,1.0,-1.0,4.0,0.0,5.0,2.0,-1.0,1650824030923836.0
-1.0,2.0,1.0,3.0,12.0,5.0,1.0,2.0,1650824030923836.0
2.0,-2.0,1.0,-5.0,-3.0,-6.0,-4.0,-2.0,1650824030923836.0
0.0,3.0,2.0,2.0,-6.0,-3.0,-1.0,-3.0,1650824030945780.0
0.0,1.0,-5.0,-1.0,-4.0,-4.0,-2.0,-1.0,1650824030945780.0
0.0,0.0,7.0,7.0,-3.0,1.0,2.0,0.0,1650824030946762.0
-3.0,-6.0,-3.0,-13.0,3.0,2.0,1.0,-2.0,1650824030946762.0
0.0,5.0,9.0,8.0,4.0,1.0,1.0,2.0,1650824030959793.0
0.0,1.0,2.0,-2.0,1.0,-2.0,-1.0,-3.0,1650824030959793.0
-2.0,0.0,-4.0,0.0,-10.0,-7.0,-4.0,-3.0,1650824030968819.0
1.0,9.0,0.0,6.0,15.0,3.0,1.0,-1.0,1650824030968819.0
0.0,-1.0,5.0,-5.0,-11.0,0.0,-2.0,-1.0,1650824030983647.0
0.0,-3.0,1.0,2.0,0.0,1.0,-2.0,-2.0,1650824030983647.0
-2.0,-11.0,-1.0,-4.0,-7.0,2.0,1.0,0.0,1650824030984584.0
-2.0,10.0,10.0,-3.0,-4.0,-12.0,-1.0,-1.0,1650824030984584.0
2.0,0.0,-3.0,5.0,7.0,3.0,-1.0,-1.0,1650824031005620.0
-1.0,-1.0,-8.0,4.0,-5.0,-2.0,-1.0,1.0,1650824031005620.0
-1.0,-1.0,7.0,-1.0,-4.0,1.0,1.0,-2.0,1650824031006621.0
0.0,-5.0,-7.0,0.0,2.0,10.0,1.0,1.0,1650824031006621.0
-2.0,-4.0,-2.0,2.0,1.0,-7.0,1.0,-2.0,1650824031020629.0
4.0,-2.0,-4.0,-11.0,-7.0,-9.0,-6.0,1.0,1650824031020629.0
-1.0,5.0,4.0,10.0,3.0,4.0,1.0,1.0,1650824031028576.0
0.0,1.0,1.0,4.0,1.0,3.0,2.0,1.0,1650824031028576.0
-2.0,-1.0,0.0,0.0,-1.0,2.0,0.0,0.0,1650824031043672.0
-1.0,-3.0,-6.0,-7.0,9.0,1.0,-1.0,-1.0,1650824031043672.0
0.0,1.0,-1.0,-5.0,-1.0,-4.0,-3.0,1.0,1650824031044602.0
-2.0,-4.0,-2.0,-4.0,-7.0,-6.0,1.0,-2.0,1650824031044602.0
0.0,5.0,3.0,4.0,-1.0,4.0,2.0,1.0,1650824031066244.0
-2.0,-3.0,-5.0,-1.0,-3.0,4.0,2.0,1.0,1650824031066244.0
-1.0,1.0,1.0,0.0,-5.0,-13.0,-2.0,-2.0,1650824031066244.0
-2.0,-2.0,-3.0,-11.0,-2.0,3.0,-1.0,0.0,1650824031066244.0
0.0,-1.0,-2.0,-3.0,-4.0,-12.0,-2.0,-3.0,1650824031080139.0
-2.0,-1.0,0.0,-1.0,1.0,3.0,2.0,0.0,1650824031080139.0
2.0,5.0,2.0,-1.0,4.0,5.0,0.0,1.0,1650824031088119.0
-1.0,-4.0,-5.0,4.0,-4.0,-3.0,-2.0,0.0,1650824031088119.0
-2.0,-2.0,-6.0,-7.0,-1.0,14.0,0.0,-1.0,1650824031103092.0
0.0,2.0,4.0,3.0,2.0,-9.0,0.0,-1.0,1650824031103092.0
-1.0,2.0,0.0,3.0,-2.0,-4.0,2.0,1.0,1650824031104076.0
0.0,-2.0,1.0,-1.0,-2.0,-5.0,-4.0,-1.0,1650824031104076.0
-2.0,-7.0,-8.0,-18.0,-5.0,0.0,-2.0,-1.0,1650824031126172.0
-1.0,0.0,-2.0,0.0,-1.0,0.0,-1.0,-2.0,1650824031126172.0
-1.0,-1.0,-5.0,-6.0,-6.0,-4.0,-2.0,-3.0,1650824031127106.0
1.0,2.0,7.0,4.0,-5.0,-6.0,-3.0,0.0,1650824031127106.0
0.0,-1.0,-10.0,1.0,7.0,2.0,-2.0,-3.0,1650824031149509.0
-3.0,-2.0,2.0,2.0,10.0,9.0,3.0,-1.0,1650824031149509.0
2.0,2.0,-1.0,1.0,1.0,2.0,1.0,0.0,1650824031149509.0
-2.0,-2.0,-2.0,-5.0,7.0,1.0,-1.0,-1.0,1650824031149509.0
1.0,-1.0,3.0,2.0,-14.0,-3.0,-2.0,-1.0,1650824031163474.0
0.0,-1.0,-3.0,-2.0,-1.0,-9.0,-2.0,1.0,1650824031163474.0
-2.0,-8.0,1.0,-3.0,-11.0,-9.0,-4.0,-2.0,1650824031164498.0
-3.0,-1.0,2.0,8.0,10.0,7.0,4.0,-2.0,1650824031164498.0
3.0,1.0,4.0,3.0,3.0,2.0,0.0,1.0,1650824031185761.0
-1.0,-3.0,-8.0,-7.0,-6.0,-2.0,-4.0,-2.0,1650824031185761.0
0.0,2.0,2.0,-2.0,1.0,-2.0,0.0,0.0,1650824031193800.0
1.0,1.0,-7.0,1.0,-7.0,-5.0,2.0,0.0,1650824031193800.0
-1.0,1.0,2.0,7.0,7.0,2.0,-1.0,0.0,1650824031208760.0
-1.0,2.0,4.0,-3.0,1.0,2.0,2.0,0.0,1650824031208760.0
0.0,-2.0,-3.0,-2.0,0.0,3.0,-2.0,-2.0,1650824031209699.0
0.0,-5.0,-9.0,-2.0,-3.0,-4.0,-2.0,0.0,1650824031209699.0
1.0,2.0,2.0,1.0,2.0,-5.0,-1.0,-1.0,1650824031223734.0
1.0,-2.0,-1.0,-1.0,2.0,3.0,0.0,-1.0,1650824031223734.0
-2.0,-2.0,-3.0,1.0,-2.0,-1.0,-3.0,-3.0,1650824031223734.0
1.0,0.0,11.0,1.0,-5.0,-5.0,1.0,-1.0,1650824031223734.0
-2.0,-3.0,-4.0,1.0,0.0,5.0,3.0,0.0,1650824031245744.0
-1.0,-1.0,-1.0,-6.0,-3.0,5.0,-1.0,-2.0,1650824031245744.0
0.0,1.0,2.0,5.0,7.0,3.0,7.0,0.0,1650824031246675.0
0.0,3.0,2.0,5.0,4.0,4.0,1.0,1.0,1650824031246675.0
0.0,2.0,2.0,-2.0,-4.0,-4.0,-2.0,0.0,1650824031268682.0
-2.0,-1.0,-2.0,6.0,-10.0,-12.0,-4.0,-1.0,1650824031268682.0
0.0,-3.0,-3.0,-6.0,-4.0,1.0,0.0,1.0,1650824031269621.0
0.0,-2.0,-1.0,-1.0,3.0,3.0,0.0,0.0,1650824031269621.0
0.0,2.0,1.0,6.0,7.0,2.0,2.0,1.0,1650824031283592.0
0.0,-1.0,-5.0,-9.0,3.0,4.0,1.0,0.0,1650824031283592.0
-1.0,-2.0,-2.0,-1.0,-5.0,-4.0,-4.0,-2.0,1650824031284603.0
-1.0,1.0,0.0,-5.0,-7.0,-7.0,-3.0,-2.0,1650824031284603.0
2.0,-5.0,-9.0,0.0,3.0,7.0,1.0,-1.0,1650824031305655.0
-2.0,-1.0,-2.0,4.0,0.0,1.0,1.0,-2.0,1650824031305655.0
-3.0,-1.0,4.0,2.0,4.0,3.0,1.0,0.0,1650824031306651.0
-1.0,-2.0,-6.0,-8.0,-5.0,-4.0,-1.0,1.0,1650824031306651.0
-1.0,-2.0,0.0,-3.0,-3.0,-7.0,-3.0,1.0,1650824031329589.0
0.0,-1.0,3.0,2.0,6.0,0.0,-2.0,0.0,1650824031329589.0
-2.0,0.0,-3.0,-2.0,-2.0,1.0,-1.0,-1.0,1650824031329589.0
1.0,0.0,-7.0,-3.0,1.0,-1.0,-2.0,0.0,1650824031329589.0
-2.0,4.0,14.0,6.0,6.0,4.0,6.0,2.0,1650824031343621.0
1.0,2.0,1.0,-1.0,1.0,0.0,0.0,1.0,1650824031343621.0
-3.0,-2.0,-11.0,-3.0,-4.0,3.0,-3.0,-2.0,1650824031344549.0
0.0,-1.0,1.0,2.0,-2.0,-7.0,-5.0,-4.0,1650824031344549.0
-2.0,-1.0,-8.0,-9.0,7.0,-3.0,-3.0,-1.0,1650824031365624.0
-2.0,-1.0,9.0,9.0,-20.0,-4.0,1.0,-2.0,1650824031365624.0
1.0,-2.0,-2.0,-7.0,8.0,2.0,2.0,2.0,1650824031366555.0
1.0,-1.0,-1.0,0.0,-4.0,3.0,1.0,-1.0,1650824031366555.0
-1.0,0.0,-1.0,3.0,10.0,5.0,2.0,1.0,1650824031389577.0
-1.0,2.0,2.0,2.0,5.0,1.0,-2.0,0.0,1650824031389577.0
-2.0,-2.0,4.0,5.0,-4.0,18.0,0.0,-1.0,1650824031389577.0
-1.0,0.0,-1.0,0.0,3.0,-16.0,1.0,1.0,1650824031389577.0
0.0,0.0,1.0,-5.0,-16.0,-14.0,-7.0,-3.0,1650824031403572.0
-1.0,-1.0,-3.0,-2.0,3.0,3.0,0.0,-1.0,1650824031403572.0
1.0,0.0,0.0,4.0,0.0,-3.0,-2.0,0.0,1650824031404557.0
-2.0,1.0,5.0,-10.0,3.0,11.0,-1.0,0.0,1650824031404557.0
0.0,0.0,-1.0,3.0,-3.0,1.0,0.0,-1.0,1650824031425547.0
1.0,-1.0,-1.0,-4.0,-4.0,-5.0,-1.0,0.0,1650824031425547.0
2.0,6.0,2.0,-2.0,1.0,0.0,0.0,0.0,1650824031426488.0
-5.0,-17.0,-5.0,4.0,0.0,1.0,-2.0,-3.0,1650824031426488.0
0.0,1.0,0.0,-3.0,8.0,10.0,0.0,-1.0,1650824031448647.0
0.0,-2.0,-3.0,-4.0,0.0,-10.0,-1.0,-1.0,1650824031448647.0
-3.0,3.0,10.0,10.0,5.0,-4.0,4.0,0.0,1650824031449644.0
5.0,4.0,0.0,3.0,-15.0,-3.0,-3.0,-1.0,1650824031449644.0
2.0,4.0,-1.0,-7.0,-6.0,0.0,0.0,0.0,1650824031471634.0
-2.0,-3.0,-5.0,0.0,16.0,10.0,0.0,-1.0,1650824031471634.0
0.0,-5.0,2.0,6.0,-4.0,-8.0,-4.0,-1.0,1650824031472571.0
-2.0,0.0,-16.0,-18.0,7.0,4.0,2.0,-1.0,1650824031472571.0
1.0,0.0,3.0,7.0,3.0,5.0,1.0,1.0,1650824031485616.0
0.0,-1.0,3.0,-5.0,-7.0,-4.0,-1.0,0.0,1650824031485616.0
-2.0,-1.0,3.0,2.0,-4.0,-9.0,-1.0,-1.0,1650824031486626.0
0.0,3.0,4.0,1.0,-3.0,1.0,-1.0,1.0,1650824031486626.0
0.0,-2.0,-1.0,-3.0,-6.0,-10.0,0.0,-1.0,1650824031508687.0
0.0,0.0,-9.0,-2.0,2.0,0.0,-1.0,0.0,1650824031508687.0
-4.0,-5.0,-5.0,-4.0,10.0,6.0,0.0,-4.0,1650824031509618.0
0.0,2.0,7.0,11.0,-4.0,-2.0,3.0,0.0,1650824031509618.0
-1.0,-2.0,0.0,-3.0,-2.0,-1.0,-1.0,0.0,1650824031523580.0
0.0,-2.0,0.0,-4.0,-7.0,-4.0,-2.0,-1.0,1650824031523580.0
2.0,0.0,-5.0,-8.0,3.0,0.0,-4.0,0.0,1650824031524581.0
-4.0,-8.0,-5.0,-1.0,-4.0,1.0,-1.0,-2.0,1650824031524581.0
-3.0,-2.0,0.0,6.0,1.0,0.0,4.0,-2.0,1650824031545522.0
1.0,2.0,2.0,1.0,5.0,3.0,3.0,2.0,1650824031545522.0
-1.0,-3.0,-12.0,-8.0,-7.0,-5.0,-4.0,0.0,1650824031546518.0
0.0,4.0,7.0,3.0,3.0,1.0,-1.0,-1.0,1650824031546518.0
-2.0,-4.0,-9.0,2.0,-7.0,0.0,-3.0,-1.0,1650824031568527.0
1.0,-2.0,-11.0,-5.0,-5.0,-10.0,-2.0,1.0,1650824031568527.0
0.0,0.0,4.0,-4.0,0.0,1.0,-2.0,1.0,1650824031569485.0
1.0,-1.0,-1.0,2.0,2.0,3.0,2.0,1.0,1650824031569485.0
-1.0,1.0,-8.0,-7.0,-8.0,-10.0,-2.0,0.0,1650824031583487.0
-1.0,-1.0,6.0,13.0,6.0,9.0,0.0,-2.0,1650824031583487.0
-1.0,-2.0,-10.0,-13.0,-5.0,-11.0,0.0,0.0,1650824031590429.0
1.0,0.0,1.0,1.0,13.0,15.0,-3.0,-3.0,1650824031590429.0
-1.0,1.0,9.0,6.0,-10.0,-14.0,2.0,1.0,1650824031605578.0
3.0,2.0,-3.0,-1.0,-2.0,-6.0,2.0,1.0,1650824031605578.0
5.0,-1.0,4.0,9.0,3.0,9.0,-1.0,0.0,1650824031606515.0
-7.0,-1.0,4.0,-4.0,-3.0,-4.0,3.0,10.0,1650824031606515.0
0.0,5.0,-4.0,1.0,14.0,11.0,2.0,-3.0,1650824031628513.0
-5.0,-10.0,-10.0,-10.0,-8.0,9.0,-5.0,-11.0,1650824031628513.0
-1.0,4.0,5.0,7.0,-3.0,-8.0,2.0,-3.0,1650824031629474.0
4.0,4.0,3.0,1.0,1.0,-1.0,4.0,4.0,1650824031629474.0
3.0,-2.0,7.0,-1.0,-1.0,-5.0,-4.0,-1.0,1650824031643803.0
-5.0,0.0,1.0,-2.0,-8.0,3.0,0.0,0.0,1650824031643803.0
4.0,-1.0,-7.0,3.0,-3.0,-3.0,-2.0,2.0,1650824031644478.0
2.0,-3.0,0.0,-22.0,-7.0,-9.0,-3.0,-5.0,1650824031644478.0
-4.0,-4.0,3.0,3.0,8.0,1.0,2.0,23.0,1650824031665452.0
2.0,0.0,4.0,2.0,-6.0,1.0,-3.0,-9.0,1650824031665452.0
4.0,1.0,-1.0,2.0,-5.0,-4.0,5.0,-3.0,1650824031666422.0
-5.0,1.0,-10.0,4.0,9.0,0.0,-4.0,-6.0,1650824031666422.0
1.0,-4.0,-3.0,-3.0,2.0,14.0,4.0,6.0,1650824031688444.0
9.0,5.0,8.0,11.0,10.0,-6.0,3.0,6.0,1650824031688444.0
-3.0,1.0,-8.0,-7.0,-7.0,-2.0,4.0,4.0,1650824031689470.0
7.0,2.0,4.0,-1.0,-7.0,-6.0,-6.0,1.0,1650824031689470.0
-12.0,-3.0,14.0,8.0,0.0,-2.0,0.0,-11.0,1650824031703491.0
-6.0,-3.0,-8.0,0.0,14.0,14.0,-3.0,0.0,1650824031703491.0
4.0,1.0,3.0,0.0,4.0,-8.0,2.0,9.0,1650824031710503.0
-4.0,3.0,5.0,8.0,-10.0,-4.0,1.0,-4.0,1650824031710503.0
-7.0,-14.0,-14.0,-2.0,-11.0,-3.0,-6.0,-8.0,1650824031725587.0
7.0,2.0,7.0,-1.0,-4.0,-7.0,-2.0,-3.0,1650824031725587.0
-9.0,-3.0,-6.0,-6.0,5.0,7.0,-8.0,5.0,1650824031726587.0
-1.0,-8.0,-8.0,-8.0,-4.0,3.0,-4.0,1.0,1650824031726587.0
-5.0,8.0,2.0,1.0,10.0,6.0,-2.0,-12.0,1650824031748640.0
2.0,5.0,7.0,6.0,-1.0,-6.0,0.0,3.0,1650824031748640.0
9.0,-7.0,-3.0,-6.0,-1.0,4.0,-4.0,-4.0,1650824031749618.0
-5.0,6.0,1.0,-4.0,-5.0,7.0,3.0,-1.0,1650824031749618.0
13.0,8.0,4.0,1.0,1.0,-18.0,-5.0,-6.0,1650824031762582.0
-8.0,-8.0,-5.0,-1.0,0.0,1.0,4.0,3.0,1650824031762582.0
-6.0,3.0,3.0,-2.0,-1.0,0.0,-4.0,-4.0,1650824031770588.0
11.0,6.0,9.0,9.0,4.0,5.0,2.0,2.0,1650824031770588.0
15.0,13.0,2.0,5.0,7.0,6.0,4.0,12.0,1650824031785588.0
-7.0,-1.0,-1.0,0.0,-1.0,-1.0,-1.0,3.0,1650824031785588.0
-18.0,-7.0,-9.0,-6.0,6.0,-1.0,5.0,0.0,1650824031786532.0
2.0,-20.0,-5.0,3.0,-1.0,5.0,0.0,51.0,1650824031786532.0
4.0,-8.0,-16.0,-17.0,-25.0,-8.0,-27.0,-33.0,1650824031808044.0
-10.0,8.0,7.0,11.0,27.0,-9.0,15.0,-31.0,1650824031808044.0
9.0,9.0,24.0,15.0,-1.0,7.0,-13.0,-22.0,1650824031809016.0
6.0,3.0,-10.0,-8.0,3.0,-1.0,7.0,12.0,1650824031809016.0
2.0,-6.0,-12.0,-8.0,-1.0,8.0,15.0,22.0,1650824031823096.0
5.0,-1.0,-4.0,-10.0,-15.0,-14.0,-8.0,7.0,1650824031823096.0
-1.0,2.0,-1.0,-1.0,-2.0,-1.0,10.0,3.0,1650824031831077.0
-3.0,3.0,19.0,9.0,3.0,-8.0,-1.0,-15.0,1650824031831077.0
19.0,-3.0,-2.0,14.0,5.0,14.0,9.0,11.0,1650824031846064.0
-12.0,-14.0,-26.0,-26.0,-14.0,-4.0,-6.0,-9.0,1650824031846064.0
12.0,3.0,9.0,3.0,3.0,1.0,3.0,9.0,1650824031847047.0
-27.0,-12.0,-7.0,-6.0,-6.0,-3.0,-5.0,-10.0,1650824031847047.0
-4.0,13.0,15.0,4.0,9.0,5.0,5.0,7.0,1650824031868046.0
2.0,-7.0,-3.0,5.0,-5.0,0.0,14.0,15.0,1650824031868046.0
-6.0,4.0,-3.0,3.0,-9.0,-11.0,-25.0,-30.0,1650824031868976.0
12.0,8.0,-5.0,-11.0,-2.0,-4.0,-11.0,-26.0,1650824031868976.0
-37.0,-5.0,7.0,15.0,0.0,-3.0,14.0,56.0,1650824031882939.0
-5.0,0.0,0.0,-4.0,6.0,7.0,-2.0,-35.0,1650824031882939.0
4.0,6.0,20.0,4.0,0.0,-2.0,6.0,14.0,1650824031890944.0
20.0,6.0,-8.0,0.0,-6.0,-6.0,-5.0,-14.0,1650824031890944.0
-30.0,-3.0,8.0,-7.0,7.0,12.0,4.0,-6.0,1650824031905914.0
6.0,-4.0,-13.0,15.0,-11.0,-10.0,-7.0,30.0,1650824031905914.0
8.0,19.0,-15.0,-28.0,-1.0,3.0,8.0,19.0,1650824031906912.0
-15.0,15.0,26.0,-1.0,-1.0,-12.0,-15.0,-51.0,1650824031906912.0
13.0,-35.0,-20.0,-8.0,-6.0,-1.0,23.0,20.0,1650824031927925.0
24.0,17.0,28.0,13.0,4.0,-1.0,-14.0,17.0,1650824031927925.0
-17.0,22.0,23.0,6.0,-1.0,7.0,14.0,-26.0,1650824031928898.0
34.0,-8.0,-8.0,13.0,8.0,7.0,-14.0,29.0,1650824031928898.0
-22.0,1.0,-5.0,-7.0,-3.0,-3.0,-27.0,-42.0,1650824031942984.0
-9.0,-17.0,-7.0,-14.0,-7.0,-4.0,-6.0,-3.0,1650824031942984.0
11.0,-1.0,11.0,10.0,6.0,1.0,-1.0,16.0,1650824031957926.0
-12.0,12.0,-6.0,-4.0,-4.0,4.0,15.0,-1.0,1650824031957926.0
31.0,-9.0,5.0,1.0,-5.0,1.0,11.0,31.0,1650824031965889.0
0.0,18.0,9.0,8.0,14.0,0.0,-3.0,-10.0,1650824031965889.0
0.0,-4.0,-10.0,13.0,-6.0,0.0,19.0,39.0,1650824031966876.0
-37.0,-34.0,-29.0,-17.0,-8.0,-1.0,-17.0,-59.0,1650824031966876.0
0.0,-3.0,4.0,-12.0,-9.0,-22.0,-11.0,-33.0,1650824031988846.0
18.0,15.0,6.0,-14.0,-2.0,10.0,-34.0,16.0,1650824031988846.0
-11.0,-8.0,-23.0,3.0,7.0,11.0,9.0,-1.0,1650824031988846.0
-14.0,4.0,23.0,29.0,11.0,-4.0,-3.0,-7.0,1650824031988846.0
3.0,-15.0,-4.0,3.0,5.0,3.0,-3.0,-9.0,1650824032002846.0
-15.0,-11.0,-31.0,-18.0,-5.0,-2.0,20.0,-1.0,1650824032002846.0
17.0,-14.0,10.0,-5.0,-7.0,-5.0,-15.0,-6.0,1650824032010825.0
7.0,35.0,21.0,6.0,-2.0,3.0,3.0,4.0,1650824032010825.0
2.0,-32.0,5.0,-2.0,-2.0,-7.0,6.0,-18.0,1650824032026804.0
-17.0,4.0,9.0,-1.0,9.0,7.0,-32.0,-22.0,1650824032026804.0
3.0,0.0,-6.0,7.0,0.0,5.0,12.0,8.0,1650824032026804.0
17.0,11.0,0.0,1.0,6.0,6.0,9.0,-16.0,1650824032026804.0
5.0,39.0,5.0,-8.0,-7.0,-9.0,-10.0,8.0,1650824032048743.0
-4.0,-30.0,13.0,12.0,-6.0,-4.0,0.0,-11.0,1650824032048743.0
-21.0,-20.0,-21.0,-24.0,-14.0,-17.0,-23.0,-42.0,1650824032048743.0
9.0,-7.0,-24.0,-15.0,0.0,-2.0,5.0,29.0,1650824032048743.0
4.0,12.0,-6.0,-9.0,-1.0,9.0,14.0,3.0,1650824032062705.0
16.0,30.0,32.0,23.0,4.0,5.0,0.0,23.0,1650824032062705.0
-27.0,-43.0,-39.0,-22.0,-1.0,-8.0,-4.0,-2.0,1650824032070711.0
-14.0,-32.0,-12.0,7.0,-6.0,-7.0,-7.0,20.0,1650824032070711.0
-1.0,19.0,9.0,11.0,9.0,5.0,17.0,8.0,1650824032085712.0
7.0,28.0,-13.0,-8.0,-7.0,2.0,27.0,44.0,1650824032085712.0
6.0,-33.0,35.0,11.0,3.0,1.0,-11.0,5.0,1650824032086645.0
-1.0,2.0,-14.0,-11.0,-8.0,-1.0,10.0,6.0,1650824032086645.0
-19.0,9.0,19.0,6.0,2.0,1.0,30.0,4.0,1650824032108653.0
-1.0,-30.0,-28.0,-49.0,-21.0,-15.0,-47.0,-46.0,1650824032108653.0
6.0,-19.0,-61.0,2.0,2.0,-1.0,-6.0,-3.0,1650824032109585.0
-24.0,-15.0,1.0,8.0,3.0,-2.0,-2.0,18.0,1650824032109585.0
-7.0,26.0,7.0,19.0,10.0,3.0,-19.0,-73.0,1650824032131646.0
-2.0,-2.0,19.0,10.0,-18.0,-3.0,36.0,37.0,1650824032131646.0
-9.0,10.0,14.0,-11.0,7.0,8.0,5.0,-8.0,1650824032132642.0
19.0,27.0,-4.0,-19.0,0.0,4.0,9.0,17.0,1650824032132642.0
13.0,19.0,23.0,34.0,13.0,0.0,-12.0,13.0,1650824032145635.0
-5.0,2.0,-16.0,16.0,2.0,-2.0,15.0,16.0,1650824032145635.0
-4.0,-6.0,9.0,-35.0,-21.0,-13.0,-32.0,-44.0,1650824032146606.0
-1.0,6.0,12.0,11.0,3.0,1.0,5.0,-10.0,1650824032146606.0
28.0,15.0,10.0,8.0,5.0,6.0,-12.0,28.0,1650824032168613.0
-14.0,35.0,37.0,23.0,15.0,9.0,9.0,13.0,1650824032168613.0
-24.0,-28.0,-12.0,12.0,6.0,6.0,18.0,17.0,1650824032169571.0
17.0,2.0,-8.0,-18.0,-6.0,-1.0,25.0,12.0,1650824032169571.0
-7.0,13.0,25.0,-13.0,-7.0,-5.0,-15.0,9.0,1650824032191552.0
-4.0,-1.0,-8.0,-24.0,-5.0,-1.0,5.0,1.0,1650824032191552.0
35.0,0.0,16.0,20.0,8.0,10.0,31.0,11.0,1650824032192509.0
-18.0,25.0,33.0,13.0,9.0,-4.0,-40.0,-43.0,1650824032192509.0
-16.0,-12.0,-23.0,-5.0,-4.0,3.0,14.0,23.0,1650824032205639.0
-13.0,-37.0,-3.0,9.0,-5.0,0.0,6.0,6.0,1650824032205639.0
-4.0,12.0,-8.0,-8.0,3.0,-1.0,-16.0,4.0,1650824032206568.0
15.0,13.0,13.0,25.0,6.0,2.0,1.0,16.0,1650824032206568.0
-1.0,-33.0,-76.0,-62.0,-26.0,-13.0,11.0,19.0,1650824032228537.0
5.0,11.0,32.0,4.0,3.0,-2.0,-31.0,-45.0,1650824032228537.0
14.0,56.0,24.0,32.0,8.0,7.0,8.0,16.0,1650824032229527.0
-20.0,-54.0,-55.0,-12.0,-4.0,1.0,9.0,19.0,1650824032229527.0
-17.0,5.0,27.0,7.0,1.0,0.0,4.0,-19.0,1650824032251511.0
11.0,-12.0,-40.0,-26.0,-13.0,-12.0,-22.0,-44.0,1650824032251511.0
36.0,41.0,37.0,15.0,1.0,-1.0,-4.0,24.0,1650824032252445.0
-13.0,14.0,25.0,31.0,8.0,22.0,52.0,39.0,1650824032252445.0
8.0,-47.0,-41.0,-27.0,1.0,-11.0,-60.0,-59.0,1650824032265418.0
-22.0,-9.0,-4.0,11.0,6.0,0.0,4.0,11.0,1650824032265418.0
6.0,13.0,-6.0,-3.0,-6.0,-3.0,2.0,-1.0,1650824032266415.0
20.0,-11.0,-16.0,-20.0,-2.0,-6.0,-18.0,-5.0,1650824032266415.0
-37.0,11.0,5.0,-12.0,-7.0,9.0,50.0,51.0,1650824032288376.0
-2.0,28.0,8.0,15.0,16.0,8.0,-11.0,-50.0,1650824032288376.0
-2.0,-1.0,-47.0,-38.0,-18.0,-13.0,-10.0,-10.0,1650824032289366.0
11.0,55.0,58.0,11.0,-1.0,5.0,22.0,17.0,1650824032289366.0
-13.0,-66.0,-57.0,-13.0,-4.0,-7.0,-37.0,-17.0,1650824032311315.0
10.0,8.0,31.0,28.0,6.0,8.0,35.0,23.0,1650824032311315.0
-23.0,-45.0,-16.0,-7.0,1.0,-1.0,-17.0,-12.0,1650824032312288.0
-13.0,1.0,-2.0,-4.0,-9.0,-6.0,-9.0,-1.0,1650824032312288.0
21.0,19.0,23.0,9.0,-6.0,-7.0,1.0,5.0,1650824032326263.0
-24.0,-16.0,-6.0,-10.0,2.0,-5.0,-45.0,-28.0,1650824032326263.0
19.0,-4.0,26.0,48.0,7.0,7.0,42.0,20.0,1650824032326263.0
17.0,-50.0,-79.0,-76.0,-14.0,-15.0,-63.0,-31.0,1650824032326263.0
0.0,59.0,75.0,47.0,22.0,13.0,44.0,-33.0,1650824032347961.0
-45.0,-81.0,-79.0,-31.0,-3.0,-6.0,-21.0,28.0,1650824032347961.0
-37.0,26.0,24.0,0.0,-15.0,-8.0,18.0,-5.0,1650824032348895.0
14.0,1.0,14.0,32.0,5.0,0.0,-8.0,1.0,1650824032348895.0
13.0,31.0,14.0,-3.0,-9.0,-2.0,-1.0,11.0,1650824032371996.0
15.0,-21.0,-6.0,-34.0,-14.0,-5.0,9.0,25.0,1650824032371996.0
-24.0,-20.0,-14.0,17.0,8.0,-2.0,-26.0,-68.0,1650824032371996.0
-1.0,-13.0,-3.0,-12.0,7.0,4.0,12.0,19.0,1650824032371996.0
5.0,8.0,-26.0,6.0,0.0,4.0,-6.0,-2.0,1650824032385958.0
30.0,10.0,9.0,6.0,4.0,7.0,24.0,10.0,1650824032385958.0
26.0,7.0,18.0,-11.0,2.0,-5.0,-28.0,31.0,1650824032386889.0
-3.0,24.0,30.0,6.0,7.0,11.0,26.0,9.0,1650824032386889.0
-43.0,-45.0,-38.0,-22.0,-17.0,-17.0,-16.0,-34.0,1650824032407983.0
54.0,49.0,49.0,29.0,8.0,9.0,-7.0,-9.0,1650824032407983.0
-35.0,-17.0,-20.0,13.0,3.0,9.0,81.0,88.0,1650824032408922.0
-46.0,-39.0,-62.0,-38.0,-16.0,-27.0,-94.0,-82.0,1650824032408922.0
19.0,-15.0,7.0,5.0,8.0,-2.0,7.0,11.0,1650824032431996.0
6.0,29.0,15.0,8.0,-9.0,7.0,51.0,57.0,1650824032431996.0
37.0,14.0,6.0,8.0,15.0,3.0,-23.0,-36.0,1650824032431996.0
7.0,34.0,65.0,43.0,13.0,11.0,21.0,10.0,1650824032431996.0
29.0,-21.0,-32.0,-39.0,-12.0,0.0,16.0,30.0,1650824032446025.0
-18.0,2.0,11.0,0.0,9.0,-5.0,-8.0,-9.0,1650824032446025.0
19.0,13.0,8.0,0.0,-7.0,8.0,-8.0,25.0,1650824032446956.0
-4.0,-3.0,35.0,15.0,-3.0,-4.0,23.0,14.0,1650824032446956.0
32.0,6.0,-3.0,0.0,-3.0,-5.0,-26.0,-11.0,1650824032467900.0
-17.0,-19.0,-39.0,-32.0,-9.0,2.0,12.0,-14.0,1650824032467900.0
-7.0,-11.0,-17.0,-16.0,-4.0,1.0,-2.0,9.0,1650824032468907.0
11.0,6.0,10.0,17.0,6.0,-4.0,-10.0,30.0,1650824032468907.0
-6.0,36.0,41.0,19.0,4.0,7.0,48.0,-5.0,1650824032491863.0
28.0,-1.0,-19.0,2.0,1.0,-2.0,-69.0,-2.0,1650824032491863.0
-31.0,24.0,-7.0,-26.0,-9.0,-9.0,2.0,5.0,1650824032492833.0
4.0,-34.0,-28.0,-1.0,5.0,6.0,15.0,21.0,1650824032492833.0
17.0,5.0,-13.0,-2.0,-14.0,-10.0,-20.0,-18.0,1650824032505914.0
-34.0,10.0,16.0,21.0,17.0,7.0,28.0,-15.0,1650824032505914.0
9.0,4.0,20.0,16.0,10.0,7.0,11.0,-24.0,1650824032506884.0
-3.0,-26.0,-48.0,-67.0,-21.0,-11.0,-41.0,-13.0,1650824032506884.0
-3.0,9.0,0.0,7.0,-1.0,0.0,-6.0,31.0,1650824032528856.0
-2.0,-60.0,-29.0,-11.0,-3.0,-7.0,-12.0,-48.0,1650824032528856.0
-14.0,13.0,41.0,18.0,3.0,10.0,3.0,2.0,1650824032528856.0
-9.0,-2.0,40.0,23.0,10.0,6.0,27.0,9.0,1650824032528856.0
3.0,-18.0,-52.0,-41.0,-18.0,-13.0,-23.0,-11.0,1650824032551964.0
3.0,24.0,-20.0,-39.0,-10.0,-1.0,50.0,21.0,1650824032551964.0
12.0,38.0,71.0,39.0,17.0,7.0,-30.0,-18.0,1650824032551964.0
-10.0,-16.0,-30.0,19.0,-1.0,3.0,-6.0,-10.0,1650824032551964.0
-14.0,-10.0,-19.0,-63.0,-11.0,-4.0,-45.0,-8.0,1650824032565859.0
33.0,36.0,29.0,34.0,3.0,-4.0,29.0,56.0,1650824032565859.0
7.0,-10.0,-7.0,0.0,3.0,4.0,22.0,41.0,1650824032566857.0
-9.0,20.0,22.0,9.0,-3.0,0.0,-29.0,-66.0,1650824032566857.0
-7.0,-9.0,4.0,15.0,9.0,3.0,-2.0,-55.0,1650824032588807.0
-1.0,7.0,-5.0,1.0,-12.0,-1.0,-21.0,20.0,1650824032588807.0
18.0,-20.0,-29.0,-16.0,-10.0,0.0,41.0,-15.0,1650824032588807.0
7.0,38.0,12.0,14.0,8.0,0.0,-39.0,-3.0,1650824032588807.0
-4.0,-33.0,0.0,6.0,4.0,2.0,24.0,30.0,1650824032611964.0
11.0,-37.0,-3.0,7.0,7.0,-1.0,-8.0,-25.0,1650824032611964.0
-6.0,1.0,9.0,23.0,11.0,7.0,-1.0,-27.0,1650824032611964.0
18.0,-26.0,-88.0,-61.0,-22.0,-6.0,33.0,19.0,1650824032611964.0
-23.0,4.0,-2.0,-10.0,1.0,0.0,2.0,7.0,1650824032626127.0
9.0,31.0,35.0,0.0,-6.0,-10.0,-5.0,-5.0,1650824032626127.0
-13.0,-32.0,-12.0,-23.0,-14.0,-16.0,-35.0,-6.0,1650824032626127.0
12.0,21.0,78.0,59.0,18.0,10.0,24.0,9.0,1650824032626127.0
-9.0,40.0,25.0,35.0,11.0,5.0,-14.0,-21.0,1650824032648595.0
-18.0,-35.0,-117.0,-89.0,-24.0,-11.0,14.0,35.0,1650824032648595.0
4.0,6.0,-1.0,-11.0,-10.0,-7.0,-27.0,9.0,1650824032649528.0
-7.0,12.0,-1.0,-4.0,-6.0,-8.0,-2.0,-36.0,1650824032649528.0
-38.0,-24.0,8.0,23.0,4.0,9.0,-6.0,-19.0,1650824032671537.0
18.0,26.0,48.0,50.0,18.0,13.0,-68.0,-37.0,1650824032671537.0
-31.0,-8.0,-32.0,-31.0,-6.0,-12.0,-23.0,-27.0,1650824032672466.0
19.0,-8.0,2.0,12.0,0.0,-4.0,34.0,57.0,1650824032672466.0
11.0,8.0,20.0,27.0,10.0,7.0,11.0,38.0,1650824032685432.0
7.0,4.0,6.0,-1.0,6.0,0.0,11.0,-35.0,1650824032685432.0
8.0,23.0,14.0,0.0,-9.0,4.0,41.0,49.0,1650824032686443.0
-7.0,-58.0,2.0,20.0,6.0,1.0,-40.0,-19.0,1650824032686443.0
-24.0,-35.0,-36.0,-3.0,-14.0,-10.0,27.0,33.0,1650824032708680.0
-28.0,-14.0,-17.0,-15.0,-12.0,-10.0,-10.0,-27.0,1650824032708680.0
13.0,8.0,34.0,12.0,-4.0,1.0,4.0,4.0,1650824032709616.0
10.0,20.0,-34.0,-37.0,-3.0,3.0,23.0,16.0,1650824032709616.0
19.0,-15.0,40.0,59.0,22.0,9.0,-8.0,-24.0,1650824032739474.0
-4.0,-33.0,3.0,-11.0,6.0,-4.0,-13.0,6.0,1650824032739474.0
-15.0,-1.0,-9.0,31.0,-4.0,-4.0,-4.0,-6.0,1650824032739474.0
22.0,18.0,5.0,-16.0,-5.0,5.0,30.0,46.0,1650824032739474.0
-1.0,33.0,12.0,-1.0,3.0,0.0,-29.0,17.0,1650824032745392.0
-33.0,-32.0,-15.0,23.0,10.0,6.0,23.0,-15.0,1650824032745392.0
33.0,-11.0,-20.0,-20.0,-2.0,0.0,-21.0,14.0,1650824032753382.0
-16.0,-11.0,-4.0,-7.0,-8.0,-14.0,-39.0,-42.0,1650824032753382.0
33.0,24.0,15.0,0.0,8.0,15.0,10.0,25.0,1650824032768332.0
-4.0,28.0,37.0,33.0,9.0,5.0,33.0,32.0,1650824032768332.0
12.0,-14.0,-44.0,-13.0,-3.0,-5.0,-9.0,8.0,1650824032769328.0
-3.0,-21.0,-26.0,-27.0,-14.0,-8.0,27.0,20.0,1650824032769328.0
-4.0,25.0,46.0,33.0,5.0,-1.0,-10.0,-50.0,1650824032791387.0
4.0,0.0,18.0,2.0,-8.0,-4.0,2.0,-11.0,1650824032791387.0
-25.0,-11.0,-54.0,-72.0,-26.0,-15.0,-19.0,-37.0,1650824032792325.0
40.0,49.0,50.0,49.0,16.0,13.0,26.0,22.0,1650824032792325.0
-18.0,-28.0,-22.0,-9.0,-6.0,-6.0,-5.0,22.0,1650824032805395.0
7.0,14.0,21.0,20.0,-3.0,-4.0,32.0,43.0,1650824032805395.0
-7.0,2.0,7.0,9.0,6.0,0.0,-61.0,-40.0,1650824032813376.0
-6.0,-35.0,-29.0,-10.0,15.0,6.0,15.0,-6.0,1650824032813376.0
6.0,20.0,13.0,-4.0,-7.0,6.0,9.0,-4.0,1650824032828421.0
-6.0,7.0,2.0,7.0,4.0,-1.0,-14.0,0.0,1650824032828421.0
11.0,-13.0,-20.0,-14.0,-8.0,-2.0,15.0,23.0,1650824032829421.0
-22.0,20.0,16.0,7.0,-7.0,-8.0,-14.0,-3.0,1650824032829421.0
30.0,-19.0,-17.0,-12.0,-4.0,1.0,-8.0,-12.0,1650824032850359.0
-21.0,14.0,-9.0,-5.0,3.0,-5.0,-3.0,3.0,1650824032850359.0
10.0,-3.0,-8.0,4.0,8.0,7.0,14.0,-8.0,1650824032858342.0
0.0,0.0,47.0,32.0,8.0,6.0,-2.0,-15.0,1650824032858342.0
5.0,-21.0,-95.0,-58.0,-14.0,-11.0,-5.0,0.0,1650824032865323.0
6.0,-14.0,-23.0,-57.0,-35.0,-9.0,-17.0,-13.0,1650824032865323.0
-10.0,-11.0,55.0,58.0,19.0,2.0,-3.0,-15.0,1650824032873274.0
-6.0,-8.0,-34.0,-14.0,-4.0,-2.0,12.0,14.0,1650824032873274.0
-2.0,5.0,0.0,-21.0,-10.0,-6.0,-2.0,-9.0,1650824032888301.0
-19.0,-21.0,2.0,11.0,8.0,4.0,-3.0,5.0,1650824032888301.0
-10.0,-31.0,-18.0,-3.0,11.0,10.0,45.0,8.0,1650824032889231.0
-19.0,25.0,37.0,17.0,-2.0,2.0,-10.0,-16.0,1650824032889231.0
18.0,-34.0,-35.0,8.0,7.0,-7.0,-10.0,2.0,1650824032911200.0
-11.0,-24.0,-22.0,-23.0,-8.0,-2.0,17.0,6.0,1650824032911200.0
-18.0,10.0,16.0,-3.0,-3.0,-7.0,-29.0,-40.0,1650824032912171.0
-18.0,-4.0,-12.0,-13.0,-15.0,-10.0,9.0,3.0,1650824032912171.0
4.0,44.0,47.0,6.0,2.0,0.0,18.0,23.0,1650824032925646.0
34.0,33.0,47.0,84.0,25.0,22.0,14.0,19.0,1650824032925646.0
4.0,-3.0,-29.0,-24.0,0.0,0.0,-4.0,-14.0,1650824032933624.0
-12.0,-25.0,-43.0,-56.0,-31.0,-19.0,-12.0,-23.0,1650824032933624.0
-11.0,12.0,32.0,7.0,6.0,3.0,-6.0,-10.0,1650824032948625.0
6.0,1.0,-24.0,-22.0,-5.0,-1.0,0.0,-18.0,1650824032948625.0
2.0,37.0,32.0,-3.0,-1.0,-2.0,4.0,13.0,1650824032949558.0
21.0,10.0,-5.0,45.0,20.0,17.0,6.0,35.0,1650824032949558.0
-50.0,-54.0,-34.0,-77.0,-30.0,-24.0,-1.0,-21.0,1650824032971140.0
8.0,16.0,25.0,21.0,5.0,6.0,28.0,26.0,1650824032971140.0
-47.0,17.0,29.0,23.0,6.0,-5.0,-16.0,44.0,1650824032978178.0
-6.0,-28.0,-4.0,-8.0,5.0,5.0,8.0,-40.0,1650824032978178.0
13.0,19.0,7.0,21.0,2.0,11.0,17.0,38.0,1650824032985160.0
-11.0,27.0,3.0,-6.0,6.0,-10.0,-47.0,-88.0,1650824032985160.0
21.0,-20.0,-22.0,-10.0,-8.0,2.0,14.0,9.0,1650824032993134.0
-17.0,-7.0,12.0,14.0,9.0,4.0,27.0,1.0,1650824032993134.0
-20.0,-10.0,-33.0,3.0,2.0,3.0,-28.0,-4.0,1650824033008209.0
-10.0,-15.0,13.0,-13.0,-16.0,-18.0,-8.0,10.0,1650824033008209.0
-8.0,11.0,1.0,4.0,2.0,3.0,10.0,-18.0,1650824033009140.0
1.0,10.0,29.0,32.0,12.0,4.0,-4.0,8.0,1650824033009140.0
1.0,-58.0,-38.0,-31.0,-18.0,-15.0,7.0,-15.0,1650824033031293.0
26.0,20.0,31.0,-5.0,1.0,1.0,-5.0,20.0,1650824033031293.0
-10.0,-33.0,-57.0,-25.0,-13.0,-11.0,-18.0,-3.0,1650824033032226.0
13.0,29.0,8.0,5.0,1.0,4.0,6.0,15.0,1650824033032226.0
-23.0,9.0,27.0,47.0,10.0,9.0,17.0,-15.0,1650824033045219.0
-9.0,-16.0,-27.0,-4.0,5.0,9.0,-17.0,2.0,1650824033045219.0
24.0,7.0,-3.0,4.0,9.0,7.0,38.0,47.0,1650824033053237.0
-20.0,-8.0,6.0,0.0,-2.0,-6.0,-29.0,-27.0,1650824033053237.0
-2.0,-24.0,5.0,2.0,1.0,-9.0,-6.0,36.0,1650824033068165.0
29.0,-14.0,-30.0,-24.0,-14.0,-4.0,-23.0,-48.0,1650824033068165.0
16.0,10.0,10.0,10.0,0.0,2.0,17.0,7.0,1650824033069132.0
7.0,45.0,23.0,1.0,-3.0,-3.0,-2.0,3.0,1650824033069132.0
-9.0,-42.0,-31.0,-3.0,0.0,4.0,4.0,11.0,1650824033099078.0
13.0,10.0,3.0,18.0,18.0,12.0,28.0,29.0,1650824033099078.0
-8.0,-21.0,17.0,34.0,14.0,8.0,-12.0,-23.0,1650824033100045.0
3.0,-7.0,-45.0,-69.0,-25.0,-12.0,-3.0,6.0,1650824033100045.0
19.0,47.0,17.0,-21.0,-17.0,-15.0,-14.0,-28.0,1650824033114074.0
-19.0,-12.0,23.0,28.0,18.0,10.0,8.0,10.0,1650824033114074.0
8.0,20.0,56.0,19.0,-6.0,3.0,-7.0,-20.0,1650824033115005.0
-1.0,-10.0,-31.0,-1.0,2.0,5.0,-16.0,7.0,1650824033115005.0
22.0,28.0,12.0,12.0,7.0,3.0,7.0,28.0,1650824033128033.0
-16.0,0.0,-12.0,-19.0,-10.0,-11.0,-32.0,-95.0,1650824033128033.0
9.0,13.0,-1.0,-11.0,2.0,-5.0,-17.0,-7.0,1650824033128967.0
-9.0,-26.0,14.0,7.0,-4.0,4.0,12.0,-4.0,1650824033128967.0
16.0,51.0,23.0,16.0,10.0,6.0,-11.0,4.0,1650824033152034.0
-12.0,-3.0,-36.0,-14.0,-2.0,0.0,18.0,35.0,1650824033152034.0
10.0,33.0,-4.0,2.0,3.0,3.0,18.0,9.0,1650824033152034.0
6.0,-6.0,-8.0,-3.0,0.0,-5.0,-20.0,-19.0,1650824033152034.0
29.0,11.0,12.0,20.0,5.0,3.0,11.0,-4.0,1650824033174474.0
-1.0,23.0,37.0,5.0,-6.0,3.0,16.0,39.0,1650824033174474.0
-20.0,-34.0,-28.0,-49.0,-39.0,-25.0,-22.0,-27.0,1650824033174474.0
33.0,48.0,53.0,25.0,19.0,11.0,15.0,14.0,1650824033174474.0
-17.0,-55.0,-65.0,-23.0,-5.0,-1.0,1.0,0.0,1650824033188509.0
-3.0,0.0,21.0,-2.0,-2.0,-13.0,-30.0,-7.0,1650824033188509.0
18.0,-7.0,-23.0,1.0,2.0,3.0,-1.0,20.0,1650824033189463.0
9.0,6.0,13.0,10.0,4.0,11.0,10.0,20.0,1650824033189463.0
-20.0,19.0,51.0,39.0,11.0,5.0,-19.0,-34.0,1650824033211515.0
0.0,-17.0,-15.0,4.0,-3.0,-3.0,-14.0,26.0,1650824033211515.0
4.0,-16.0,-19.0,-19.0,-2.0,-5.0,-20.0,-12.0,1650824033212485.0
16.0,7.0,-14.0,0.0,-2.0,1.0,23.0,22.0,1650824033212485.0
-69.0,19.0,44.0,32.0,7.0,7.0,4.0,-22.0,1650824033234428.0
-18.0,-23.0,-57.0,-52.0,-20.0,-7.0,23.0,48.0,1650824033234428.0
11.0,15.0,-15.0,-1.0,4.0,-2.0,1.0,-8.0,1650824033234428.0
-21.0,-39.0,-32.0,-15.0,-12.0,-6.0,-12.0,-13.0,1650824033234428.0
12.0,-23.0,24.0,20.0,9.0,-2.0,3.0,18.0,1650824033248390.0
19.0,33.0,1.0,18.0,4.0,6.0,10.0,-19.0,1650824033248390.0
-13.0,8.0,-10.0,-11.0,-6.0,3.0,3.0,4.0,1650824033255454.0
-8.0,1.0,3.0,-20.0,-1.0,-3.0,9.0,0.0,1650824033255454.0
19.0,1.0,6.0,21.0,2.0,-3.0,-4.0,-7.0,1650824033271482.0
-7.0,-2.0,-6.0,-25.0,-13.0,-5.0,-2.0,5.0,1650824033271482.0
27.0,14.0,27.0,28.0,13.0,13.0,10.0,5.0,1650824033272412.0
-4.0,-18.0,-15.0,1.0,5.0,0.0,-21.0,-12.0,1650824033272412.0
15.0,25.0,25.0,15.0,10.0,5.0,25.0,25.0,1650824033294380.0
-6.0,-23.0,-2.0,7.0,-5.0,4.0,26.0,-6.0,1650824033294380.0
-37.0,-17.0,-10.0,-15.0,9.0,-9.0,-14.0,10.0,1650824033294380.0
-17.0,-19.0,-7.0,-7.0,-21.0,-12.0,-38.0,-22.0,1650824033294380.0
-32.0,6.0,-4.0,-6.0,2.0,8.0,-6.0,-51.0,1650824033308343.0
34.0,8.0,-4.0,-8.0,1.0,-4.0,24.0,14.0,1650824033308343.0
-10.0,-13.0,6.0,-8.0,-1.0,-1.0,6.0,-3.0,1650824033309343.0
-8.0,-7.0,2.0,17.0,6.0,7.0,5.0,0.0,1650824033309343.0
23.0,6.0,12.0,2.0,11.0,2.0,0.0,9.0,1650824033331039.0
-8.0,-7.0,-29.0,10.0,-9.0,-2.0,-7.0,-11.0,1650824033331039.0
-8.0,0.0,-4.0,-34.0,-26.0,-14.0,-7.0,-8.0,1650824033332008.0
8.0,7.0,0.0,-9.0,6.0,-3.0,-1.0,7.0,1650824033332008.0
5.0,-5.0,-15.0,-29.0,-11.0,-1.0,-6.0,8.0,1650824033354116.0
3.0,3.0,33.0,25.0,21.0,10.0,1.0,-5.0,1650824033354116.0
6.0,-1.0,6.0,21.0,-8.0,-1.0,3.0,13.0,1650824033355116.0
-7.0,-6.0,-16.0,-2.0,-2.0,-3.0,2.0,-11.0,1650824033355116.0
6.0,0.0,-14.0,-11.0,3.0,4.0,12.0,7.0,1650824033368082.0
-1.0,10.0,16.0,24.0,16.0,6.0,-10.0,-6.0,1650824033368082.0
2.0,-6.0,-4.0,2.0,11.0,3.0,-7.0,-14.0,1650824033369088.0
2.0,-4.0,-14.0,-21.0,-21.0,-5.0,10.0,0.0,1650824033369088.0
-9.0,0.0,-4.0,-14.0,-8.0,-4.0,-1.0,-1.0,1650824033392045.0
4.0,1.0,10.0,9.0,1.0,4.0,-6.0,0.0,1650824033392045.0
-5.0,-4.0,-4.0,-1.0,4.0,-1.0,2.0,8.0,1650824033392045.0
1.0,5.0,2.0,0.0,-2.0,-3.0,-3.0,-9.0,1650824033392045.0
27.0,0.0,-9.0,-12.0,-6.0,0.0,-3.0,14.0,1650824033414708.0
-11.0,-5.0,-1.0,1.0,-1.0,-4.0,2.0,-4.0,1650824033414708.0
-4.0,-2.0,3.0,7.0,-2.0,-5.0,1.0,-4.0,1650824033415711.0
-3.0,1.0,-5.0,-10.0,-8.0,-5.0,-2.0,-1.0,1650824033415711.0
10.0,-2.0,-7.0,-8.0,1.0,0.0,-4.0,1.0,1650824033428668.0
-1.0,0.0,-5.0,-11.0,4.0,8.0,-3.0,-5.0,1650824033428668.0
3.0,10.0,20.0,24.0,5.0,4.0,8.0,0.0,1650824033428668.0
-2.0,0.0,6.0,8.0,2.0,-4.0,0.0,4.0,1650824033428668.0
-2.0,-5.0,-18.0,-13.0,-10.0,-6.0,-8.0,-2.0,1650824033451608.0
-4.0,-6.0,2.0,-27.0,-12.0,-12.0,-8.0,-6.0,1650824033451608.0
1.0,-1.0,-6.0,-7.0,6.0,4.0,4.0,-1.0,1650824033452632.0
-1.0,-1.0,1.0,9.0,2.0,0.0,-3.0,-2.0,1650824033452632.0
0.0,13.0,5.0,1.0,5.0,2.0,2.0,4.0,1650824033474547.0
0.0,3.0,12.0,14.0,3.0,6.0,0.0,-1.0,1650824033474547.0
0.0,-5.0,-11.0,-5.0,-6.0,-2.0,-4.0,-6.0,1650824033474547.0
-5.0,-7.0,5.0,-8.0,2.0,-3.0,-1.0,-5.0,1650824033474547.0
2.0,8.0,4.0,4.0,-3.0,0.0,0.0,1.0,1650824033488576.0
1.0,1.0,5.0,5.0,1.0,0.0,2.0,2.0,1650824033488576.0
-1.0,-5.0,-1.0,-6.0,-2.0,1.0,-2.0,-3.0,1650824033489533.0
-1.0,4.0,-4.0,3.0,14.0,3.0,-1.0,-1.0,1650824033489533.0
-2.0,-3.0,0.0,1.0,-15.0,-6.0,0.0,0.0,1650824033510564.0
1.0,4.0,4.0,0.0,-2.0,-4.0,-2.0,-1.0,1650824033510564.0
-3.0,0.0,5.0,1.0,0.0,2.0,0.0,-5.0,1650824033511539.0
-1.0,-6.0,-12.0,0.0,0.0,-2.0,-3.0,0.0,1650824033511539.0
-5.0,-7.0,7.0,-5.0,-4.0,-3.0,-2.0,-3.0,1650824033534473.0
1.0,-9.0,-12.0,5.0,6.0,7.0,3.0,2.0,1650824033534473.0
5.0,13.0,22.0,18.0,7.0,3.0,4.0,4.0,1650824033534473.0
-5.0,-10.0,-24.0,-23.0,-5.0,-2.0,0.0,-2.0,1650824033534473.0
-1.0,-4.0,-4.0,-2.0,0.0,-1.0,-6.0,-4.0,1650824033548462.0
0.0,4.0,1.0,4.0,-2.0,-2.0,-3.0,0.0,1650824033548462.0
-4.0,-5.0,-16.0,-11.0,6.0,-4.0,-4.0,-2.0,1650824033549462.0
-2.0,-1.0,0.0,-9.0,-17.0,0.0,1.0,-2.0,1650824033549462.0
0.0,3.0,1.0,3.0,10.0,7.0,2.0,3.0,1650824033571379.0
2.0,2.0,7.0,11.0,6.0,3.0,6.0,3.0,1650824033571379.0
0.0,6.0,14.0,6.0,1.0,0.0,2.0,-1.0,1650824033571379.0
0.0,-11.0,6.0,13.0,4.0,-4.0,-4.0,-1.0,1650824033571379.0
-3.0,-1.0,-22.0,-28.0,-15.0,-10.0,-3.0,-3.0,1650824033594476.0
0.0,0.0,2.0,3.0,4.0,4.0,-4.0,-1.0,1650824033594476.0
0.0,-14.0,-17.0,-4.0,-6.0,0.0,-3.0,-2.0,1650824033594476.0
4.0,28.0,16.0,2.0,-4.0,-2.0,1.0,2.0,1650824033594476.0
0.0,1.0,9.0,27.0,28.0,9.0,4.0,1.0,1650824033608490.0
-3.0,-19.0,-11.0,0.0,-13.0,1.0,2.0,-1.0,1650824033608490.0
-3.0,-10.0,-38.0,-29.0,-5.0,0.0,3.0,-1.0,1650824033609447.0
1.0,9.0,3.0,-5.0,6.0,3.0,0.0,-1.0,1650824033609447.0
-1.0,-7.0,6.0,-1.0,-4.0,-8.0,-3.0,0.0,1650824033630392.0
0.0,8.0,11.0,-1.0,-1.0,-4.0,-6.0,-2.0,1650824033630392.0
4.0,11.0,21.0,18.0,1.0,3.0,-1.0,-4.0,1650824033631361.0
3.0,1.0,-7.0,-13.0,-8.0,-5.0,1.0,2.0,1650824033631361.0
1.0,19.0,17.0,6.0,5.0,4.0,2.0,0.0,1650824033654449.0
-4.0,-34.0,-22.0,-3.0,4.0,4.0,1.0,0.0,1650824033654449.0
-3.0,-1.0,13.0,4.0,-5.0,-5.0,-1.0,-2.0,1650824033654449.0
-2.0,-4.0,6.0,13.0,2.0,1.0,-1.0,-1.0,1650824033654449.0
3.0,-4.0,-14.0,-19.0,-9.0,-8.0,-5.0,-2.0,1650824033667297.0
2.0,13.0,-8.0,-2.0,-12.0,-7.0,-1.0,-1.0,1650824033667297.0
1.0,12.0,27.0,21.0,11.0,7.0,3.0,3.0,1650824033676311.0
-7.0,-13.0,-20.0,-16.0,1.0,13.0,0.0,0.0,1650824033676311.0
0.0,-6.0,-8.0,-5.0,7.0,-13.0,-1.0,3.0,1650824033691300.0
0.0,5.0,4.0,-3.0,-24.0,-11.0,-7.0,-18.0,1650824033691300.0
-1.0,-5.0,5.0,-1.0,2.0,3.0,1.0,1.0,1650824033698281.0
-2.0,-1.0,-2.0,12.0,3.0,-1.0,0.0,-4.0,1650824033698281.0
1.0,5.0,1.0,0.0,-2.0,4.0,-3.0,-3.0,1650824033714198.0
-3.0,2.0,-5.0,-7.0,7.0,3.0,-1.0,3.0,1650824033714198.0
1.0,2.0,14.0,10.0,-7.0,-7.0,-2.0,-1.0,1650824033715169.0
2.0,-6.0,-4.0,16.0,10.0,4.0,1.0,-1.0,1650824033715169.0
-2.0,-12.0,-39.0,-35.0,-11.0,0.0,-1.0,2.0,1650824033727203.0
-4.0,-16.0,-18.0,-10.0,2.0,-1.0,1.0,2.0,1650824033727203.0
1.0,-4.0,-13.0,-3.0,0.0,4.0,1.0,0.0,1650824033736113.0
2.0,11.0,21.0,8.0,3.0,-3.0,1.0,1.0,1650824033736113.0
5.0,3.0,6.0,19.0,1.0,-1.0,0.0,-1.0,1650824033751869.0
1.0,8.0,9.0,-2.0,3.0,2.0,2.0,2.0,1650824033751869.0
-2.0,-8.0,-23.0,-21.0,-9.0,-4.0,-4.0,-3.0,1650824033751869.0
0.0,-5.0,0.0,1.0,-4.0,-5.0,-2.0,0.0,1650824033751869.0
0.0,1.0,9.0,13.0,-4.0,1.0,1.0,2.0,1650824033774449.0
-3.0,4.0,-4.0,-13.0,1.0,1.0,-3.0,-1.0,1650824033774449.0
2.0,2.0,4.0,8.0,-2.0,-1.0,0.0,-1.0,1650824033774449.0
0.0,1.0,8.0,7.0,2.0,-10.0,0.0,3.0,1650824033774449.0
-3.0,-3.0,-6.0,-10.0,-3.0,7.0,1.0,-3.0,1650824033787484.0
2.0,6.0,22.0,11.0,6.0,0.0,3.0,6.0,1650824033787484.0
2.0,3.0,11.0,15.0,3.0,2.0,2.0,0.0,1650824033795396.0
-6.0,-17.0,-40.0,-39.0,-8.0,-3.0,0.0,9.0,1650824033795396.0
-2.0,1.0,22.0,6.0,-4.0,-3.0,-6.0,-6.0,1650824033811615.0
3.0,13.0,9.0,0.0,9.0,4.0,1.0,-1.0,1650824033811615.0
-7.0,-16.0,-18.0,0.0,-4.0,-12.0,0.0,-1.0,1650824033812582.0
-4.0,-4.0,30.0,20.0,-3.0,-6.0,2.0,2.0,1650824033812582.0
2.0,3.0,1.0,5.0,1.0,2.0,-1.0,4.0,1650824033833724.0
-1.0,-2.0,-5.0,-5.0,-4.0,-1.0,-3.0,-5.0,1650824033833724.0
2.0,2.0,0.0,-3.0,4.0,10.0,0.0,4.0,1650824033834694.0
3.0,4.0,-8.0,-5.0,2.0,3.0,-1.0,-5.0,1650824033834694.0
-4.0,-5.0,-7.0,-4.0,-4.0,1.0,-2.0,-8.0,1650824033847659.0
-1.0,-3.0,8.0,8.0,5.0,-4.0,-2.0,5.0,1650824033847659.0
-1.0,1.0,-2.0,-1.0,-2.0,-2.0,2.0,1.0,1650824033855689.0
-1.0,-1.0,-5.0,-3.0,-4.0,-3.0,-2.0,-3.0,1650824033855689.0
0.0,5.0,8.0,4.0,8.0,6.0,4.0,0.0,1650824033871646.0
1.0,1.0,-2.0,1.0,-4.0,-1.0,-1.0,1.0,1650824033871646.0
-2.0,-4.0,-9.0,-9.0,4.0,-1.0,-2.0,0.0,1650824033872603.0
-3.0,-1.0,-1.0,-7.0,-12.0,-3.0,-5.0,-4.0,1650824033872603.0
0.0,-2.0,5.0,5.0,3.0,-6.0,-3.0,2.0,1650824033893681.0
1.0,-1.0,-6.0,1.0,-2.0,1.0,2.0,0.0,1650824033893681.0
-4.0,-3.0,-11.0,-13.0,5.0,-1.0,1.0,-1.0,1650824033894688.0
-1.0,1.0,12.0,7.0,1.0,3.0,-3.0,-7.0,1650824033894688.0
-1.0,1.0,0.0,4.0,0.0,4.0,3.0,3.0,1650824033907708.0
0.0,-1.0,5.0,1.0,2.0,-5.0,2.0,0.0,1650824033907708.0
1.0,2.0,1.0,-2.0,-7.0,-2.0,-3.0,-5.0,1650824033915685.0
4.0,2.0,-5.0,1.0,2.0,-3.0,-2.0,0.0,1650824033915685.0
-3.0,-4.0,-2.0,-3.0,-5.0,-2.0,-3.0,-2.0,1650824033930695.0
-2.0,-2.0,-14.0,-4.0,-1.0,1.0,-2.0,-2.0,1650824033930695.0
0.0,2.0,5.0,-5.0,-5.0,-3.0,-1.0,1.0,1650824033931628.0
-1.0,0.0,0.0,3.0,13.0,19.0,1.0,-2.0,1650824033931628.0
-1.0,-6.0,-5.0,0.0,-13.0,-14.0,4.0,0.0,1650824033954613.0
2.0,7.0,7.0,3.0,-5.0,-12.0,-1.0,0.0,1650824033954613.0
0.0,0.0,-1.0,-4.0,0.0,2.0,0.0,1.0,1650824033954613.0
-1.0,-1.0,0.0,3.0,10.0,2.0,-1.0,1.0,1650824033954613.0
-1.0,-1.0,-1.0,2.0,1.0,3.0,-5.0,-1.0,1650824033967682.0
-1.0,-2.0,-6.0,-14.0,-7.0,7.0,-3.0,-2.0,1650824033967682.0
-2.0,-4.0,-5.0,0.0,-2.0,-12.0,-1.0,0.0,1650824033975621.0
2.0,4.0,10.0,8.0,1.0,1.0,4.0,0.0,1650824033975621.0
1.0,2.0,-8.0,2.0,6.0,2.0,1.0,1.0,1650824033990615.0
-2.0,-8.0,15.0,-4.0,-10.0,-13.0,1.0,-4.0,1650824033990615.0
-1.0,-2.0,-12.0,-8.0,4.0,5.0,-6.0,0.0,1650824033991551.0
2.0,4.0,6.0,-3.0,-2.0,9.0,3.0,-1.0,1650824033991551.0
2.0,4.0,-7.0,4.0,11.0,6.0,3.0,3.0,1650824034013519.0
-5.0,-9.0,-19.0,-9.0,-2.0,-1.0,-7.0,-3.0,1650824034013519.0
0.0,-1.0,-1.0,-4.0,-9.0,-4.0,1.0,1.0,1650824034014532.0
-3.0,-3.0,-2.0,1.0,-1.0,-3.0,1.0,-2.0,1650824034014532.0
1.0,2.0,7.0,0.0,-1.0,0.0,1.0,1.0,1650824034036431.0
-3.0,-5.0,-7.0,0.0,12.0,6.0,-4.0,-2.0,1650824034036431.0
1.0,-2.0,-3.0,-1.0,-16.0,-5.0,-1.0,-3.0,1650824034037445.0
1.0,2.0,-4.0,0.0,7.0,-2.0,1.0,1.0,1650824034037445.0
-2.0,-4.0,-3.0,-7.0,-7.0,5.0,1.0,0.0,1650824034051392.0
2.0,4.0,3.0,4.0,5.0,1.0,1.0,1.0,1650824034051392.0
-3.0,-2.0,5.0,-1.0,0.0,-2.0,-1.0,-2.0,1650824034051392.0
0.0,-4.0,-5.0,-2.0,1.0,-3.0,-3.0,0.0,1650824034051392.0
-1.0,-3.0,-4.0,-5.0,-7.0,-8.0,-4.0,-1.0,1650824034074356.0
-2.0,3.0,3.0,2.0,0.0,4.0,1.0,2.0,1650824034074356.0
0.0,3.0,7.0,7.0,11.0,9.0,4.0,2.0,1650824034074356.0
-3.0,0.0,5.0,2.0,-3.0,-4.0,-1.0,-1.0,1650824034074356.0
-1.0,-5.0,-8.0,-5.0,-3.0,-5.0,-2.0,-2.0,1650824034096332.0
-1.0,2.0,-2.0,1.0,-8.0,1.0,-1.0,0.0,1650824034096332.0
1.0,-2.0,-3.0,-5.0,1.0,12.0,1.0,-2.0,1650824034097268.0
1.0,2.0,6.0,7.0,-1.0,-16.0,1.0,-1.0,1650824034097268.0
-1.0,-1.0,2.0,3.0,0.0,-1.0,-2.0,0.0,1650824034111306.0
1.0,3.0,2.0,3.0,2.0,5.0,1.0,0.0,1650824034111306.0
0.0,-2.0,-1.0,0.0,-5.0,-7.0,-1.0,-1.0,1650824034111306.0
1.0,-1.0,-2.0,1.0,-4.0,0.0,-2.0,0.0,1650824034111306.0
-1.0,-3.0,-4.0,-1.0,7.0,0.0,1.0,0.0,1650824034134321.0
3.0,3.0,10.0,2.0,-1.0,-2.0,-4.0,-1.0,1650824034134321.0
-1.0,-7.0,0.0,2.0,6.0,4.0,0.0,-2.0,1650824034135320.0
-1.0,1.0,-2.0,-1.0,2.0,4.0,2.0,1.0,1650824034135320.0
0.0,-1.0,-2.0,-5.0,-16.0,-12.0,-1.0,-1.0,1650824034156466.0
0.0,-2.0,-3.0,0.0,5.0,8.0,1.0,0.0,1650824034156466.0
-1.0,2.0,0.0,-3.0,-1.0,-2.0,-4.0,0.0,1650824034157396.0
-1.0,-2.0,-8.0,-5.0,-13.0,-15.0,-5.0,-2.0,1650824034157396.0
1.0,1.0,1.0,8.0,14.0,21.0,7.0,-1.0,1650824034171371.0
-2.0,1.0,2.0,-5.0,15.0,0.0,2.0,-2.0,1650824034171371.0
-1.0,3.0,13.0,1.0,-17.0,-7.0,1.0,1.0,1650824034171371.0
0.0,-3.0,-12.0,-6.0,1.0,-1.0,-4.0,0.0,1650824034171371.0
-2.0,-6.0,-2.0,-8.0,-9.0,-12.0,-9.0,-2.0,1650824034194298.0
-1.0,0.0,-14.0,-1.0,-4.0,-2.0,2.0,0.0,1650824034194298.0
-1.0,2.0,12.0,9.0,9.0,8.0,2.0,2.0,1650824034194298.0
-2.0,1.0,4.0,5.0,3.0,2.0,3.0,0.0,1650824034194298.0
0.0,-2.0,-1.0,-5.0,-5.0,-1.0,-4.0,-1.0,1650824034216306.0
0.0,-1.0,0.0,-3.0,-4.0,-2.0,0.0,-1.0,1650824034216306.0
1.0,1.0,-4.0,-1.0,3.0,-4.0,-2.0,-1.0,1650824034217236.0
0.0,0.0,-3.0,-5.0,-7.0,0.0,-3.0,-2.0,1650824034217236.0
-1.0,1.0,5.0,3.0,1.0,-1.0,-1.0,-2.0,1650824034231279.0
-2.0,-1.0,1.0,2.0,2.0,1.0,1.0,0.0,1650824034231279.0
0.0,0.0,-5.0,-5.0,3.0,-3.0,0.0,-1.0,1650824034231279.0
1.0,0.0,2.0,3.0,10.0,4.0,0.0,-1.0,1650824034231279.0
0.0,1.0,1.0,1.0,-4.0,-2.0,1.0,-1.0,1650824034254513.0
2.0,-2.0,-1.0,-2.0,-8.0,-9.0,-1.0,0.0,1650824034254513.0
1.0,2.0,-6.0,-1.0,-5.0,3.0,-1.0,-1.0,1650824034254513.0
-2.0,-3.0,-2.0,2.0,11.0,10.0,5.0,-1.0,1650824034254513.0
0.0,-2.0,-2.0,-3.0,2.0,-3.0,-2.0,0.0,1650824034276525.0
1.0,2.0,0.0,1.0,-6.0,-3.0,-4.0,-1.0,1650824034276525.0
0.0,-1.0,-5.0,2.0,-1.0,4.0,-3.0,-1.0,1650824034277485.0
3.0,4.0,1.0,-3.0,-5.0,-15.0,-3.0,1.0,1650824034277485.0
-2.0,-3.0,-6.0,-3.0,-1.0,4.0,4.0,-2.0,1650824034290480.0
0.0,-2.0,4.0,2.0,-2.0,1.0,-1.0,0.0,1650824034290480.0
-3.0,0.0,-5.0,-3.0,2.0,2.0,-1.0,-2.0,1650824034291417.0
-2.0,-5.0,-2.0,-3.0,-2.0,5.0,-1.0,-1.0,1650824034291417.0
1.0,2.0,2.0,5.0,6.0,0.0,2.0,1.0,1650824034314121.0
0.0,1.0,3.0,3.0,-3.0,1.0,2.0,-1.0,1650824034314121.0
-2.0,-2.0,0.0,-3.0,1.0,-6.0,-3.0,-1.0,1650824034315120.0
-1.0,0.0,6.0,-1.0,-4.0,1.0,1.0,-1.0,1650824034315120.0
1.0,-2.0,-2.0,0.0,-1.0,-3.0,-3.0,1.0,1650824034336076.0
2.0,2.0,1.0,-1.0,3.0,3.0,1.0,-1.0,1650824034336076.0
0.0,0.0,-1.0,-2.0,0.0,-4.0,-2.0,-1.0,1650824034337069.0
-1.0,-2.0,0.0,-1.0,-7.0,-1.0,-1.0,-1.0,1650824034337069.0
-3.0,0.0,-1.0,-2.0,2.0,4.0,0.0,0.0,1650824034351089.0
-1.0,0.0,-1.0,2.0,5.0,-2.0,-2.0,-1.0,1650824034351089.0
0.0,0.0,2.0,-1.0,-4.0,-6.0,0.0,-1.0,1650824034352027.0
0.0,-1.0,-6.0,-4.0,-3.0,1.0,0.0,-2.0,1650824034352027.0
1.0,0.0,-1.0,2.0,4.0,5.0,1.0,0.0,1650824034374030.0
0.0,0.0,1.0,-4.0,3.0,-4.0,-1.0,1.0,1650824034374030.0
-1.0,-2.0,-2.0,-1.0,-9.0,-5.0,1.0,1.0,1650824034375958.0
-1.0,2.0,3.0,-1.0,-1.0,5.0,-1.0,-1.0,1650824034375958.0
-1.0,-1.0,-5.0,-5.0,-6.0,-8.0,0.0,0.0,1650824034396901.0
-2.0,-2.0,4.0,4.0,-6.0,0.0,1.0,-2.0,1650824034396901.0
1.0,1.0,-4.0,0.0,14.0,7.0,0.0,1.0,1650824034397899.0
2.0,-1.0,6.0,1.0,-6.0,-5.0,-4.0,1.0,1650824034397899.0
1.0,0.0,2.0,1.0,3.0,2.0,-2.0,-2.0,1650824034418842.0
1.0,8.0,2.0,8.0,4.0,3.0,1.0,1.0,1650824034418842.0
-2.0,-10.0,-11.0,-6.0,-3.0,-2.0,0.0,-1.0,1650824034420843.0
-2.0,-1.0,-2.0,-3.0,0.0,-1.0,-1.0,-1.0,1650824034420843.0
0.0,2.0,-1.0,-1.0,-2.0,-1.0,-1.0,-2.0,1650824034433870.0
1.0,1.0,4.0,1.0,-4.0,-5.0,-1.0,0.0,1650824034433870.0
0.0,4.0,8.0,6.0,10.0,9.0,2.0,0.0,1650824034435798.0
-1.0,-2.0,-4.0,0.0,0.0,0.0,2.0,2.0,1650824034435798.0
-1.0,-3.0,-3.0,-5.0,-3.0,7.0,-4.0,0.0,1650824034456952.0
-2.0,-6.0,-6.0,-10.0,-12.0,-13.0,-1.0,-3.0,1650824034456952.0
0.0,5.0,1.0,2.0,-2.0,-11.0,-1.0,-1.0,1650824034457885.0
-2.0,-3.0,-5.0,-2.0,-5.0,-6.0,-3.0,-2.0,1650824034457885.0
-1.0,2.0,9.0,2.0,-1.0,0.0,0.0,-1.0,1650824034469853.0
-1.0,-2.0,-1.0,4.0,12.0,18.0,1.0,1.0,1650824034469853.0
-2.0,-3.0,-5.0,-7.0,-1.0,3.0,-1.0,-1.0,1650824034478828.0
1.0,0.0,-1.0,1.0,-10.0,-23.0,-2.0,-1.0,1650824034478828.0
-1.0,-1.0,2.0,3.0,1.0,-3.0,0.0,-1.0,1650824034493822.0
-2.0,-3.0,-4.0,-6.0,4.0,0.0,-2.0,-6.0,1650824034493822.0
1.0,2.0,1.0,-1.0,-2.0,5.0,0.0,7.0,1650824034495782.0
-2.0,0.0,-4.0,1.0,4.0,11.0,3.0,3.0,1650824034495782.0
0.0,3.0,11.0,6.0,2.0,-3.0,3.0,2.0,1650824034523776.0
-3.0,-8.0,-22.0,-9.0,-5.0,-5.0,-4.0,-2.0,1650824034523776.0
-3.0,-4.0,-3.0,-10.0,17.0,5.0,-5.0,-3.0,1650824034525703.0
-1.0,2.0,5.0,4.0,-24.0,3.0,3.0,-1.0,1650824034525703.0
-1.0,-2.0,-4.0,-2.0,9.0,-2.0,1.0,1.0,1650824034529720.0
2.0,6.0,8.0,9.0,-2.0,2.0,1.0,1.0,1650824034529720.0
0.0,-2.0,-1.0,-2.0,-9.0,-7.0,-2.0,-4.0,1650824034539665.0
-2.0,0.0,-3.0,-4.0,9.0,1.0,-2.0,-1.0,1650824034539665.0
-2.0,0.0,0.0,2.0,-1.0,4.0,-3.0,-5.0,1650824034553634.0
2.0,-3.0,-2.0,-4.0,-6.0,0.0,-2.0,0.0,1650824034553634.0
-1.0,-2.0,1.0,3.0,3.0,-10.0,-1.0,-3.0,1650824034555631.0
2.0,2.0,0.0,3.0,4.0,3.0,1.0,-1.0,1650824034555631.0
0.0,2.0,12.0,2.0,-4.0,3.0,2.0,2.0,1650824034576583.0
-3.0,-8.0,-20.0,-12.0,-3.0,-9.0,-2.0,9.0,1650824034576583.0
1.0,3.0,1.0,0.0,-12.0,-17.0,-3.0,-5.0,1650824034578575.0
0.0,3.0,-2.0,9.0,11.0,17.0,6.0,1.0,1650824034578575.0
-2.0,-6.0,4.0,-17.0,-3.0,-2.0,-6.0,-4.0,1650824034590612.0
-4.0,-3.0,-6.0,-4.0,13.0,10.0,-1.0,-4.0,1650824034590612.0
-2.0,3.0,12.0,11.0,-17.0,-1.0,3.0,0.0,1650824034599258.0
-1.0,-3.0,-2.0,-5.0,-10.0,-13.0,-5.0,-1.0,1650824034599258.0
1.0,2.0,-7.0,4.0,0.0,-1.0,1.0,1.0,1650824034614245.0
-2.0,0.0,10.0,1.0,-3.0,-8.0,-1.0,-5.0,1650824034614245.0
-1.0,0.0,-1.0,1.0,5.0,5.0,-1.0,0.0,1650824034615215.0
0.0,-2.0,-1.0,2.0,12.0,10.0,-1.0,1.0,1650824034615215.0
-1.0,0.0,-1.0,1.0,3.0,6.0,0.0,-2.0,1650824034636172.0
-2.0,-4.0,-6.0,-4.0,-1.0,12.0,0.0,-1.0,1650824034636172.0
0.0,0.0,-4.0,-2.0,-7.0,-22.0,-2.0,-1.0,1650824034638154.0
-1.0,1.0,2.0,5.0,-2.0,-7.0,0.0,4.0,1650824034638154.0
0.0,-3.0,-6.0,-5.0,3.0,0.0,-1.0,-2.0,1650824034650186.0
0.0,1.0,12.0,2.0,-2.0,-2.0,0.0,-1.0,1650824034650186.0
3.0,2.0,3.0,2.0,0.0,12.0,1.0,10.0,1650824034659112.0
-5.0,-10.0,-10.0,-12.0,2.0,3.0,-5.0,-9.0,1650824034659112.0
0.0,-2.0,-10.0,-4.0,-18.0,-10.0,1.0,-1.0,1650824034674125.0
2.0,7.0,15.0,16.0,4.0,-3.0,2.0,-1.0,1650824034674125.0
-2.0,-10.0,-16.0,-13.0,-9.0,17.0,-3.0,-2.0,1650824034676058.0
1.0,5.0,22.0,7.0,6.0,-19.0,4.0,5.0,1650824034676058.0
-1.0,0.0,-13.0,0.0,5.0,4.0,0.0,-5.0,1650824034696056.0
-1.0,-3.0,3.0,-12.0,-6.0,-8.0,-5.0,-2.0,1650824034696056.0
0.0,2.0,2.0,12.0,2.0,3.0,1.0,0.0,1650824034698023.0
-2.0,-4.0,-9.0,-3.0,4.0,9.0,-4.0,-2.0,1650824034698023.0
-1.0,2.0,16.0,10.0,7.0,4.0,3.0,1.0,1650824034710019.0
3.0,7.0,9.0,15.0,11.0,3.0,6.0,2.0,1650824034710019.0
0.0,-3.0,-7.0,-6.0,4.0,3.0,2.0,10.0,1650824034718968.0
-3.0,-4.0,-9.0,-9.0,-9.0,1.0,-7.0,-13.0,1650824034718968.0
-1.0,-1.0,5.0,0.0,-9.0,-13.0,0.0,2.0,1650824034733954.0
1.0,-1.0,-8.0,-4.0,-13.0,-11.0,-2.0,3.0,1650824034733954.0
-2.0,3.0,-7.0,-5.0,12.0,11.0,2.0,-1.0,1650824034735922.0
-1.0,0.0,2.0,-12.0,-2.0,-7.0,0.0,3.0,1650824034735922.0
0.0,1.0,-11.0,5.0,-6.0,4.0,0.0,1.0,1650824034755869.0
-2.0,-3.0,3.0,3.0,1.0,2.0,1.0,-1.0,1650824034755869.0
1.0,2.0,2.0,-9.0,2.0,-6.0,-3.0,-7.0,1650824034763847.0
1.0,-1.0,0.0,-5.0,-9.0,-1.0,-5.0,-1.0,1650824034763847.0
0.0,-1.0,2.0,6.0,1.0,-2.0,-2.0,-3.0,1650824034769856.0
2.0,10.0,16.0,22.0,12.0,5.0,7.0,14.0,1650824034769856.0
0.0,-4.0,12.0,0.0,5.0,14.0,-6.0,-4.0,1650824034778825.0
-5.0,-8.0,-45.0,-27.0,-10.0,-13.0,0.0,-7.0,1650824034778825.0
-1.0,-4.0,10.0,1.0,6.0,4.0,5.0,7.0,1650824034801676.0
0.0,3.0,-3.0,1.0,-8.0,-9.0,-2.0,6.0,1650824034801676.0
3.0,6.0,11.0,15.0,12.0,7.0,-2.0,-3.0,1650824034803643.0
1.0,2.0,17.0,15.0,-3.0,5.0,4.0,9.0,1650824034803643.0
3.0,7.0,3.0,0.0,2.0,2.0,7.0,27.0,1650824034816635.0
-4.0,-8.0,-3.0,-13.0,-14.0,-7.0,-5.0,-7.0,1650824034816635.0
-6.0,-10.0,-14.0,-9.0,-18.0,-13.0,5.0,-17.0,1650824034818612.0
3.0,5.0,1.0,1.0,23.0,21.0,8.0,1.0,1650824034818612.0
-6.0,-4.0,5.0,-1.0,-14.0,-7.0,-10.0,9.0,1650824034830599.0
6.0,7.0,3.0,7.0,0.0,-6.0,3.0,15.0,1650824034830599.0
-3.0,-3.0,2.0,-10.0,-4.0,-9.0,-5.0,7.0,1650824034839573.0
2.0,2.0,6.0,10.0,5.0,2.0,3.0,3.0,1650824034839573.0
4.0,8.0,-1.0,4.0,10.0,9.0,-1.0,-10.0,1650824034853602.0
-1.0,-8.0,-25.0,-17.0,-1.0,4.0,2.0,-8.0,1650824034853602.0
-9.0,-11.0,-15.0,-16.0,-19.0,-14.0,-11.0,0.0,1650824034855597.0
1.0,10.0,18.0,10.0,1.0,8.0,5.0,-3.0,1650824034855597.0
6.0,21.0,48.0,32.0,19.0,16.0,3.0,-14.0,1650824034876681.0
-3.0,-12.0,-49.0,-8.0,-10.0,-20.0,-13.0,-15.0,1650824034876681.0
-8.0,-24.0,-26.0,-30.0,-9.0,-4.0,-2.0,7.0,1650824034878623.0
-1.0,-1.0,7.0,-2.0,1.0,0.0,4.0,3.0,1650824034878623.0
2.0,7.0,12.0,4.0,-9.0,-12.0,-9.0,4.0,1650824034890651.0
9.0,14.0,29.0,23.0,13.0,16.0,15.0,6.0,1650824034890651.0
1.0,4.0,-1.0,11.0,5.0,5.0,1.0,40.0,1650824034899553.0
-3.0,-9.0,-20.0,-8.0,-11.0,-9.0,-4.0,-47.0,1650824034899553.0
-3.0,-3.0,13.0,-4.0,-2.0,-5.0,-8.0,-25.0,1650824034913591.0
-14.0,-21.0,-33.0,-20.0,-4.0,-4.0,-12.0,-7.0,1650824034913591.0
5.0,13.0,14.0,14.0,2.0,-1.0,0.0,-4.0,1650824034915559.0
4.0,-2.0,20.0,24.0,7.0,4.0,2.0,28.0,1650824034915559.0
-3.0,-14.0,-70.0,-59.0,-22.0,-10.0,3.0,3.0,1650824034936503.0
-5.0,13.0,27.0,10.0,8.0,13.0,0.0,-2.0,1650824034936503.0
12.0,-10.0,6.0,50.0,23.0,17.0,10.0,3.0,1650824034938527.0
-5.0,-10.0,-9.0,-32.0,-8.0,-7.0,-10.0,-7.0,1650824034938527.0
-1.0,9.0,35.0,26.0,0.0,-2.0,13.0,23.0,1650824034959441.0
-6.0,-24.0,-65.0,-69.0,-16.0,-8.0,-8.0,9.0,1650824034959441.0
2.0,20.0,55.0,25.0,-3.0,-3.0,0.0,-15.0,1650824034960439.0
9.0,22.0,4.0,26.0,9.0,3.0,-1.0,-1.0,1650824034960439.0
-24.0,-32.0,-40.0,-31.0,-8.0,-5.0,-13.0,-31.0,1650824034973801.0
16.0,7.0,30.0,10.0,-12.0,-9.0,3.0,12.0,1650824034973801.0
-11.0,10.0,-1.0,12.0,9.0,-2.0,4.0,-23.0,1650824034979817.0
-6.0,-19.0,-12.0,-13.0,-9.0,-4.0,15.0,65.0,1650824034979817.0
31.0,18.0,-17.0,6.0,7.0,-1.0,-27.0,12.0,1650824034996863.0
-11.0,33.0,76.0,59.0,24.0,14.0,0.0,-32.0,1650824034996863.0
-14.0,-74.0,-83.0,-65.0,-27.0,-16.0,-13.0,-35.0,1650824034997832.0
2.0,-2.0,-26.0,-29.0,-8.0,-6.0,-4.0,39.0,1650824034997832.0
-5.0,49.0,30.0,39.0,14.0,7.0,14.0,-13.0,1650824035018892.0
-2.0,-51.0,-3.0,-40.0,-20.0,-11.0,2.0,18.0,1650824035018892.0
9.0,44.0,47.0,39.0,5.0,-9.0,-31.0,-50.0,1650824035020889.0
6.0,11.0,15.0,-1.0,3.0,4.0,6.0,1.0,1650824035020889.0
-1.0,-21.0,-3.0,34.0,7.0,6.0,1.0,-1.0,1650824035033856.0
-7.0,-20.0,-53.0,-58.0,-5.0,5.0,-1.0,-12.0,1650824035033856.0
-10.0,7.0,20.0,14.0,7.0,7.0,15.0,7.0,1650824035039904.0
-2.0,-5.0,-8.0,7.0,-1.0,-4.0,-11.0,5.0,1650824035039904.0
10.0,17.0,22.0,25.0,5.0,4.0,9.0,4.0,1650824035056858.0
-7.0,10.0,23.0,29.0,13.0,-1.0,-5.0,-21.0,1650824035056858.0
10.0,8.0,2.0,-21.0,-9.0,0.0,18.0,45.0,1650824035057791.0
2.0,8.0,18.0,31.0,7.0,2.0,-13.0,-28.0,1650824035057791.0
-10.0,-27.0,26.0,-15.0,-11.0,-9.0,-17.0,26.0,1650824035079797.0
6.0,-13.0,-72.0,-29.0,-12.0,-4.0,8.0,-1.0,1650824035079797.0
7.0,29.0,33.0,43.0,21.0,11.0,-5.0,-72.0,1650824035080741.0
3.0,19.0,32.0,-17.0,2.0,-2.0,-34.0,-39.0,1650824035080741.0
-19.0,-75.0,-115.0,-77.0,-35.0,-20.0,63.0,17.0,1650824035093834.0
-8.0,-1.0,36.0,12.0,-7.0,-7.0,-56.0,-6.0,1650824035093834.0
22.0,25.0,29.0,14.0,4.0,-5.0,1.0,8.0,1650824035099824.0
-20.0,5.0,-4.0,22.0,5.0,2.0,-7.0,-11.0,1650824035099824.0
37.0,17.0,62.0,20.0,6.0,6.0,6.0,-22.0,1650824035116924.0
-9.0,-1.0,-10.0,7.0,5.0,2.0,15.0,8.0,1650824035116924.0
-8.0,-17.0,-64.0,-32.0,-17.0,-9.0,5.0,26.0,1650824035117854.0
0.0,17.0,62.0,38.0,11.0,7.0,9.0,-5.0,1650824035117854.0
-10.0,0.0,-18.0,-29.0,12.0,14.0,-9.0,-2.0,1650824035138858.0
11.0,23.0,31.0,56.0,1.0,-6.0,11.0,9.0,1650824035138858.0
-5.0,-1.0,28.0,-5.0,-3.0,-4.0,-8.0,7.0,1650824035140872.0
7.0,-6.0,-32.0,-21.0,-3.0,1.0,19.0,-8.0,1650824035140872.0
-2.0,-7.0,-5.0,2.0,4.0,2.0,-23.0,4.0,1650824035154821.0
2.0,-2.0,0.0,-19.0,-6.0,9.0,9.0,25.0,1650824035154821.0
-19.0,-51.0,-71.0,-25.0,-12.0,-16.0,-4.0,30.0,1650824035159821.0
36.0,14.0,33.0,5.0,-11.0,6.0,16.0,80.0,1650824035159821.0
-24.0,-2.0,-25.0,-25.0,-2.0,-8.0,-16.0,-81.0,1650824035176682.0
7.0,40.0,33.0,35.0,22.0,22.0,29.0,11.0,1650824035176682.0
10.0,10.0,3.0,3.0,2.0,4.0,-35.0,-13.0,1650824035178645.0
-19.0,-25.0,-67.0,-45.0,-7.0,-8.0,14.0,-13.0,1650824035178645.0
20.0,21.0,36.0,37.0,8.0,8.0,3.0,65.0,1650824035199179.0
-13.0,-14.0,3.0,4.0,-10.0,-11.0,-7.0,-36.0,1650824035199179.0
1.0,2.0,6.0,-11.0,-4.0,-1.0,3.0,-6.0,1650824035201114.0
-5.0,-16.0,-16.0,-27.0,-5.0,3.0,-6.0,-17.0,1650824035201114.0
4.0,30.0,13.0,37.0,16.0,10.0,10.0,5.0,1650824035213141.0
-19.0,-35.0,-50.0,-22.0,-2.0,-5.0,5.0,9.0,1650824035213141.0
14.0,21.0,51.0,10.0,3.0,8.0,12.0,40.0,1650824035220125.0
-5.0,-29.0,-17.0,45.0,23.0,4.0,-1.0,-4.0,1650824035220125.0
-5.0,15.0,18.0,-43.0,-25.0,-19.0,-6.0,-5.0,1650824035236925.0
-3.0,-12.0,4.0,13.0,-3.0,-6.0,-14.0,3.0,1650824035236925.0
-1.0,4.0,-13.0,4.0,3.0,4.0,18.0,47.0,1650824035237896.0
-11.0,-30.0,-4.0,-4.0,-7.0,-6.0,-17.0,-27.0,1650824035237896.0
-19.0,-1.0,-15.0,-7.0,-4.0,-7.0,9.0,2.0,1650824035258908.0
14.0,16.0,-1.0,-7.0,-6.0,-1.0,-40.0,-29.0,1650824035258908.0
3.0,22.0,48.0,35.0,13.0,5.0,13.0,-25.0,1650824035260835.0
-1.0,16.0,-18.0,-37.0,-9.0,-5.0,9.0,65.0,1650824035260835.0
-12.0,-40.0,-26.0,10.0,1.0,-2.0,-20.0,-58.0,1650824035273800.0
0.0,11.0,3.0,16.0,-5.0,-8.0,4.0,19.0,1650824035273800.0
5.0,23.0,-4.0,-56.0,2.0,10.0,-1.0,-2.0,1650824035279784.0
-11.0,-38.0,-30.0,4.0,-2.0,-1.0,-7.0,-25.0,1650824035279784.0
-2.0,-8.0,6.0,-20.0,-10.0,-8.0,-1.0,7.0,1650824035296686.0
5.0,12.0,-3.0,-1.0,10.0,6.0,9.0,-1.0,1650824035296686.0
11.0,34.0,91.0,68.0,15.0,11.0,1.0,-3.0,1650824035297616.0
-16.0,-35.0,-79.0,-85.0,-13.0,-7.0,-6.0,-21.0,1650824035297616.0
10.0,7.0,30.0,13.0,-8.0,0.0,11.0,61.0,1650824035319557.0
-6.0,-10.0,13.0,11.0,11.0,2.0,16.0,4.0,1650824035319557.0
-17.0,6.0,-3.0,2.0,-23.0,-13.0,-9.0,-12.0,1650824035320555.0
25.0,28.0,39.0,25.0,4.0,2.0,-3.0,39.0,1650824035320555.0
-13.0,-32.0,-46.0,-13.0,-4.0,7.0,52.0,-23.0,1650824035333547.0
5.0,7.0,5.0,-14.0,-3.0,-14.0,-51.0,20.0,1650824035333547.0
-5.0,-14.0,-28.0,-11.0,6.0,5.0,26.0,26.0,1650824035340510.0
-4.0,11.0,11.0,22.0,-1.0,2.0,-2.0,-31.0,1650824035340510.0
16.0,25.0,-25.0,13.0,26.0,15.0,5.0,4.0,1650824035357230.0
0.0,-1.0,95.0,15.0,-28.0,-12.0,1.0,8.0,1650824035357230.0
-5.0,-19.0,-71.0,-61.0,-5.0,-2.0,-8.0,-20.0,1650824035358189.0
-13.0,-22.0,-36.0,-65.0,-15.0,-6.0,1.0,-11.0,1650824035358189.0
2.0,13.0,36.0,20.0,-1.0,-8.0,-14.0,27.0,1650824035379310.0
9.0,40.0,31.0,14.0,13.0,8.0,-14.0,-76.0,1650824035379310.0
8.0,-57.0,-19.0,23.0,-10.0,-13.0,-15.0,3.0,1650824035380295.0
-13.0,27.0,27.0,36.0,9.0,7.0,8.0,-14.0,1650824035380295.0
15.0,28.0,25.0,-5.0,12.0,14.0,-4.0,11.0,1650824035393333.0
-13.0,-21.0,-44.0,-23.0,-6.0,-3.0,7.0,12.0,1650824035393333.0
21.0,15.0,9.0,-5.0,2.0,7.0,27.0,43.0,1650824035400308.0
0.0,-8.0,8.0,26.0,-4.0,-6.0,-38.0,-87.0,1650824035400308.0
-7.0,-30.0,-24.0,-17.0,-8.0,-15.0,-11.0,1.0,1650824035416265.0
-14.0,-16.0,-16.0,5.0,5.0,-4.0,-32.0,-65.0,1650824035416265.0
-15.0,-9.0,-7.0,-13.0,1.0,3.0,2.0,30.0,1650824035418245.0
3.0,-5.0,-10.0,6.0,-11.0,-9.0,-5.0,8.0,1650824035418245.0
0.0,31.0,56.0,37.0,10.0,10.0,-3.0,3.0,1650824035439204.0
1.0,-17.0,-76.0,-5.0,15.0,8.0,12.0,5.0,1650824035439204.0
-19.0,-36.0,-57.0,-85.0,-23.0,-9.0,-12.0,-39.0,1650824035440193.0
8.0,33.0,53.0,31.0,0.0,-2.0,11.0,11.0,1650824035440193.0
0.0,-20.0,-40.0,-43.0,-7.0,-6.0,-16.0,-19.0,1650824035453034.0
-2.0,-13.0,-27.0,-3.0,0.0,1.0,13.0,21.0,1650824035453034.0
-10.0,-21.0,-21.0,16.0,5.0,1.0,5.0,-11.0,1650824035462017.0
10.0,-5.0,-24.0,-17.0,-8.0,1.0,22.0,60.0,1650824035462017.0
15.0,29.0,13.0,21.0,8.0,6.0,3.0,10.0,1650824035477098.0
10.0,31.0,18.0,12.0,15.0,13.0,20.0,6.0,1650824035477098.0
3.0,12.0,11.0,8.0,2.0,5.0,28.0,57.0,1650824035478091.0
-6.0,1.0,-13.0,-17.0,-11.0,-11.0,-14.0,-27.0,1650824035478091.0
-9.0,-1.0,9.0,12.0,-3.0,-9.0,-20.0,-70.0,1650824035499102.0
-6.0,-5.0,3.0,-18.0,-9.0,-2.0,-5.0,25.0,1650824035499102.0
4.0,12.0,9.0,20.0,6.0,3.0,27.0,-14.0,1650824035501030.0
4.0,5.0,20.0,33.0,10.0,5.0,-13.0,13.0,1650824035501030.0
-15.0,-21.0,-21.0,-8.0,-13.0,-14.0,-11.0,5.0,1650824035512998.0
5.0,-10.0,-46.0,-21.0,-4.0,9.0,12.0,-3.0,1650824035512998.0
-5.0,7.0,24.0,-24.0,-10.0,-9.0,-28.0,-20.0,1650824035521975.0
4.0,-10.0,-23.0,-14.0,8.0,8.0,19.0,16.0,1650824035521975.0
3.0,8.0,37.0,5.0,-10.0,-3.0,2.0,-5.0,1650824035536156.0
19.0,19.0,-10.0,9.0,19.0,13.0,23.0,33.0,1650824035536156.0
-13.0,-34.0,-24.0,-46.0,-25.0,-20.0,-19.0,-16.0,1650824035538084.0
-12.0,8.0,38.0,43.0,-2.0,-5.0,-19.0,-77.0,1650824035538084.0
9.0,-2.0,-21.0,-5.0,8.0,10.0,4.0,32.0,1650824035559556.0
12.0,19.0,55.0,22.0,7.0,1.0,2.0,36.0,1650824035559556.0
-19.0,24.0,21.0,33.0,8.0,2.0,-32.0,-80.0,1650824035560570.0
5.0,3.0,-32.0,-22.0,-2.0,-1.0,0.0,30.0,1650824035560570.0
-11.0,-10.0,-1.0,-6.0,-16.0,-14.0,-14.0,-40.0,1650824035572604.0
8.0,-3.0,8.0,-4.0,-10.0,-7.0,-12.0,23.0,1650824035572604.0
12.0,4.0,-10.0,10.0,5.0,1.0,7.0,48.0,1650824035581524.0
-16.0,-14.0,6.0,1.0,4.0,10.0,23.0,11.0,1650824035581524.0
5.0,22.0,43.0,57.0,12.0,0.0,-12.0,-17.0,1650824035596684.0
-6.0,-28.0,-98.0,-94.0,-30.0,-8.0,4.0,-22.0,1650824035596684.0
-11.0,-17.0,28.0,46.0,20.0,5.0,-4.0,7.0,1650824035597619.0
-3.0,-48.0,-17.0,-25.0,3.0,2.0,1.0,5.0,1650824035597619.0
7.0,37.0,15.0,22.0,7.0,9.0,11.0,58.0,1650824035619562.0
-2.0,-21.0,0.0,9.0,9.0,6.0,12.0,16.0,1650824035619562.0
13.0,13.0,-9.0,-1.0,-2.0,4.0,2.0,1.0,1650824035620561.0
5.0,1.0,-16.0,-26.0,-10.0,-6.0,-1.0,2.0,1650824035620561.0
2.0,-18.0,-24.0,-12.0,3.0,5.0,9.0,20.0,1650824035633551.0
-25.0,-19.0,25.0,19.0,-13.0,-19.0,-23.0,-42.0,1650824035633551.0
17.0,9.0,-15.0,6.0,8.0,12.0,16.0,13.0,1650824035641576.0
-10.0,17.0,30.0,15.0,2.0,1.0,-15.0,-43.0,1650824035641576.0
-14.0,-24.0,-31.0,-30.0,-10.0,-7.0,5.0,26.0,1650824035656363.0
13.0,29.0,48.0,15.0,-2.0,-3.0,-36.0,-43.0,1650824035656363.0
19.0,42.0,37.0,29.0,14.0,17.0,33.0,31.0,1650824035658310.0
17.0,6.0,-13.0,-4.0,9.0,9.0,5.0,11.0,1650824035658310.0
-4.0,-5.0,19.0,-3.0,-10.0,-9.0,-2.0,-1.0,1650824035679380.0
-29.0,-21.0,-19.0,-6.0,10.0,1.0,3.0,-7.0,1650824035679380.0
-4.0,-14.0,-24.0,3.0,11.0,3.0,-12.0,-16.0,1650824035680385.0
-5.0,-28.0,7.0,-5.0,3.0,4.0,4.0,12.0,1650824035680385.0
-9.0,5.0,-19.0,-34.0,-15.0,-8.0,-10.0,-21.0,1650824035692349.0
19.0,24.0,57.0,59.0,13.0,5.0,22.0,28.0,1650824035692349.0
-13.0,-22.0,-78.0,-48.0,-15.0,-11.0,-13.0,-14.0,1650824035701345.0
9.0,38.0,36.0,32.0,-3.0,0.0,9.0,8.0,1650824035701345.0
-9.0,-4.0,-10.0,-6.0,10.0,9.0,3.0,42.0,1650824035716364.0
21.0,2.0,17.0,-1.0,-4.0,6.0,11.0,4.0,1650824035716364.0
-10.0,-22.0,-11.0,5.0,-4.0,-9.0,10.0,82.0,1650824035718292.0
19.0,19.0,10.0,3.0,2.0,6.0,25.0,20.0,1650824035718292.0
-20.0,-21.0,-30.0,-22.0,-6.0,-4.0,-39.0,-31.0,1650824035738620.0
5.0,2.0,4.0,-4.0,-5.0,-3.0,21.0,31.0,1650824035738620.0
4.0,23.0,40.0,31.0,-3.0,-1.0,-2.0,-10.0,1650824035740614.0
4.0,19.0,8.0,14.0,20.0,8.0,-11.0,-6.0,1650824035740614.0
8.0,-3.0,7.0,-8.0,2.0,7.0,1.0,-2.0,1650824035752648.0
-5.0,-3.0,37.0,3.0,-35.0,-15.0,11.0,9.0,1650824035752648.0
9.0,-14.0,-38.0,-57.0,22.0,10.0,-8.0,0.0,1650824035761657.0
6.0,45.0,26.0,38.0,3.0,-4.0,1.0,13.0,1650824035761657.0
-34.0,-44.0,-8.0,10.0,8.0,3.0,4.0,-28.0,1650824035776221.0
2.0,31.0,20.0,27.0,16.0,11.0,2.0,1.0,1650824035776221.0
-2.0,-7.0,-2.0,-11.0,-19.0,-10.0,-2.0,-18.0,1650824035778216.0
-25.0,-26.0,-11.0,-14.0,-20.0,-20.0,-16.0,-22.0,1650824035778216.0
36.0,30.0,32.0,16.0,3.0,3.0,19.0,33.0,1650824035799534.0
-15.0,-19.0,-29.0,-21.0,-4.0,-2.0,-3.0,30.0,1650824035799534.0
-12.0,1.0,16.0,16.0,-2.0,-6.0,-24.0,-50.0,1650824035800534.0
2.0,2.0,1.0,2.0,6.0,-2.0,-13.0,15.0,1650824035800534.0
-2.0,-15.0,-18.0,-10.0,-6.0,-4.0,14.0,16.0,1650824035812569.0
-5.0,-14.0,-4.0,-17.0,-3.0,-3.0,-18.0,-18.0,1650824035812569.0
-16.0,8.0,18.0,42.0,5.0,7.0,-5.0,-27.0,1650824035821487.0
-3.0,2.0,-2.0,-10.0,-12.0,-7.0,6.0,6.0,1650824035821487.0
-13.0,-25.0,-46.0,-39.0,-6.0,-8.0,-12.0,-31.0,1650824035836633.0
5.0,11.0,9.0,34.0,0.0,1.0,1.0,5.0,1650824035836633.0
-8.0,10.0,10.0,-33.0,10.0,8.0,15.0,11.0,1650824035838576.0
8.0,5.0,53.0,66.0,12.0,5.0,-1.0,2.0,1650824035838576.0
-14.0,-38.0,-71.0,-86.0,-24.0,-7.0,-3.0,-17.0,1650824035859506.0
-3.0,0.0,-10.0,-5.0,5.0,3.0,14.0,22.0,1650824035859506.0
26.0,28.0,27.0,23.0,10.0,1.0,3.0,20.0,1650824035860503.0
-7.0,-15.0,-21.0,-16.0,-9.0,-6.0,2.0,7.0,1650824035860503.0
10.0,20.0,20.0,39.0,11.0,3.0,-25.0,-54.0,1650824035872471.0
-1.0,-14.0,-31.0,-24.0,-6.0,-4.0,-22.0,-21.0,1650824035872471.0
0.0,-18.0,-9.0,-8.0,-16.0,-6.0,28.0,14.0,1650824035881446.0
-1.0,-4.0,-27.0,-24.0,3.0,7.0,-14.0,-12.0,1650824035881446.0
13.0,10.0,8.0,20.0,2.0,-5.0,-12.0,-4.0,1650824035896405.0
-10.0,-7.0,-17.0,-28.0,-8.0,-2.0,13.0,5.0,1650824035896405.0
3.0,-9.0,9.0,14.0,-7.0,-3.0,-10.0,-13.0,1650824035898401.0
-4.0,29.0,35.0,19.0,7.0,-3.0,-1.0,1.0,1650824035898401.0
-4.0,-37.0,-7.0,-22.0,-10.0,-5.0,12.0,21.0,1650824035919087.0
-5.0,-8.0,-5.0,-1.0,13.0,8.0,-7.0,-26.0,1650824035919087.0
-10.0,-1.0,26.0,1.0,3.0,8.0,-4.0,-12.0,1650824035921020.0
7.0,-5.0,45.0,25.0,-7.0,-7.0,10.0,14.0,1650824035921020.0
3.0,13.0,-18.0,-13.0,1.0,2.0,6.0,28.0,1650824035941190.0
3.0,-3.0,-5.0,5.0,0.0,-6.0,0.0,-17.0,1650824035941190.0
11.0,-5.0,-4.0,9.0,1.0,4.0,8.0,1.0,1650824035943117.0
10.0,28.0,57.0,16.0,4.0,4.0,3.0,26.0,1650824035943117.0
25.0,3.0,-30.0,-18.0,-4.0,-5.0,12.0,24.0,1650824035956077.0
-36.0,-10.0,3.0,-2.0,-2.0,-3.0,-9.0,-34.0,1650824035956077.0
-20.0,-21.0,-34.0,-15.0,-9.0,-12.0,-17.0,10.0,1650824035958072.0
14.0,12.0,0.0,-7.0,-7.0,1.0,10.0,40.0,1650824035958072.0
4.0,1.0,6.0,17.0,3.0,-5.0,4.0,6.0,1650824035979537.0
9.0,-12.0,-21.0,-4.0,5.0,1.0,5.0,10.0,1650824035979537.0
-8.0,8.0,14.0,14.0,-6.0,4.0,-8.0,-32.0,1650824035980537.0
-2.0,1.0,-42.0,-34.0,16.0,7.0,-1.0,8.0,1650824035980537.0
-12.0,-8.0,0.0,-1.0,15.0,7.0,-1.0,-19.0,1650824036001480.0
12.0,32.0,71.0,53.0,-9.0,-5.0,17.0,28.0,1650824036001480.0
-7.0,-54.0,-35.0,-40.0,3.0,-5.0,-8.0,-1.0,1650824036003495.0
-7.0,-8.0,-20.0,-10.0,-19.0,-4.0,-10.0,-34.0,1650824036003495.0
-3.0,30.0,-18.0,-25.0,10.0,12.0,17.0,38.0,1650824036016467.0
-12.0,-22.0,22.0,5.0,4.0,-6.0,-18.0,27.0,1650824036016467.0
30.0,55.0,37.0,30.0,8.0,5.0,12.0,23.0,1650824036018435.0
-8.0,-30.0,-26.0,-1.0,-8.0,-6.0,-8.0,-16.0,1650824036018435.0
25.0,-2.0,41.0,55.0,6.0,7.0,16.0,-14.0,1650824036039544.0
-34.0,8.0,-29.0,-37.0,-13.0,-8.0,5.0,-21.0,1650824036039544.0
4.0,19.0,10.0,8.0,-2.0,2.0,10.0,46.0,1650824036040530.0
-9.0,-8.0,-13.0,-13.0,4.0,-3.0,-22.0,-86.0,1650824036040530.0
17.0,12.0,25.0,16.0,0.0,0.0,-11.0,2.0,1650824036068782.0
20.0,0.0,-22.0,-1.0,10.0,7.0,-2.0,-18.0,1650824036068782.0
0.0,7.0,-10.0,-2.0,-3.0,-7.0,0.0,-29.0,1650824036070711.0
-13.0,-29.0,-2.0,7.0,7.0,4.0,24.0,31.0,1650824036070711.0
-15.0,-11.0,1.0,15.0,-29.0,-16.0,-22.0,-7.0,1650824036075724.0
17.0,42.0,-17.0,-55.0,-7.0,2.0,1.0,-22.0,1650824036075724.0
-15.0,-42.0,-24.0,-25.0,-10.0,-7.0,-6.0,-2.0,1650824036082677.0
-11.0,-40.0,-76.0,-80.0,-10.0,-6.0,-7.0,-2.0,1650824036082677.0
-5.0,18.0,52.0,51.0,8.0,6.0,5.0,1.0,1650824036098635.0
9.0,48.0,36.0,26.0,15.0,14.0,-10.0,-19.0,1650824036098635.0
8.0,-4.0,-3.0,-10.0,-10.0,-10.0,-11.0,-31.0,1650824036100631.0
5.0,-4.0,-24.0,2.0,1.0,-1.0,-14.0,0.0,1650824036100631.0
14.0,16.0,10.0,-9.0,1.0,3.0,25.0,64.0,1650824036121574.0
3.0,-29.0,-15.0,14.0,5.0,6.0,-7.0,24.0,1650824036121574.0
18.0,47.0,20.0,0.0,1.0,-9.0,-8.0,-14.0,1650824036123570.0
-13.0,11.0,17.0,7.0,-6.0,-5.0,23.0,-8.0,1650824036123570.0
-15.0,-9.0,0.0,1.0,0.0,-2.0,-11.0,-18.0,1650824036135603.0
-5.0,-13.0,-17.0,-5.0,0.0,-2.0,2.0,9.0,1650824036135603.0
12.0,7.0,12.0,49.0,-5.0,3.0,-1.0,12.0,1650824036142586.0
7.0,-11.0,-38.0,-68.0,-2.0,2.0,-1.0,12.0,1650824036142586.0
-9.0,1.0,32.0,13.0,15.0,3.0,6.0,-10.0,1650824036159172.0
-9.0,-50.0,-33.0,11.0,13.0,0.0,-6.0,-20.0,1650824036159172.0
-3.0,-10.0,-55.0,-32.0,-6.0,1.0,-2.0,-2.0,1650824036161104.0
-2.0,8.0,49.0,29.0,-21.0,-17.0,-2.0,2.0,1650824036161104.0
-8.0,10.0,0.0,-17.0,-8.0,0.0,12.0,25.0,1650824036189029.0
20.0,11.0,13.0,-5.0,1.0,3.0,-13.0,-26.0,1650824036189029.0
-24.0,-8.0,9.0,30.0,16.0,8.0,7.0,11.0,1650824036191052.0
1.0,13.0,17.0,15.0,13.0,3.0,38.0,42.0,1650824036191052.0
6.0,-19.0,-22.0,-9.0,-1.0,-7.0,-37.0,-11.0,1650824036196038.0
-25.0,-3.0,4.0,-2.0,-18.0,-20.0,-2.0,18.0,1650824036196038.0
12.0,7.0,3.0,-14.0,-4.0,2.0,-4.0,-4.0,1650824036202995.0
-2.0,1.0,-6.0,2.0,5.0,8.0,-2.0,-19.0,1650824036202995.0
-3.0,-2.0,-4.0,0.0,2.0,-1.0,7.0,-4.0,1650824036217923.0
10.0,3.0,-6.0,1.0,-5.0,1.0,16.0,14.0,1650824036217923.0
-10.0,-11.0,9.0,-10.0,-4.0,-5.0,-18.0,-19.0,1650824036226871.0
0.0,-3.0,-5.0,10.0,13.0,7.0,-11.0,8.0,1650824036226871.0
7.0,12.0,12.0,15.0,-2.0,4.0,8.0,-14.0,1650824036241880.0
5.0,-6.0,14.0,33.0,2.0,0.0,1.0,7.0,1650824036241880.0
-9.0,1.0,-55.0,-68.0,6.0,0.0,1.0,-3.0,1650824036242829.0
1.0,-44.0,13.0,12.0,-4.0,-1.0,-6.0,-3.0,1650824036242829.0
-9.0,-19.0,-30.0,-16.0,-1.0,1.0,-8.0,-10.0,1650824036255794.0
3.0,11.0,6.0,-1.0,-1.0,0.0,4.0,-2.0,1650824036255794.0
1.0,1.0,17.0,24.0,4.0,1.0,0.0,6.0,1650824036263120.0
4.0,29.0,10.0,11.0,1.0,4.0,-1.0,-3.0,1650824036263120.0
-2.0,-5.0,-20.0,-16.0,-2.0,-2.0,-9.0,-17.0,1650824036278852.0
-2.0,1.0,14.0,-6.0,-16.0,-9.0,-3.0,7.0,1650824036278852.0
-2.0,-6.0,4.0,9.0,2.0,-8.0,13.0,3.0,1650824036280778.0
0.0,5.0,-4.0,-3.0,-1.0,0.0,-14.0,-9.0,1650824036280778.0
-3.0,-5.0,6.0,7.0,-4.0,3.0,7.0,-8.0,1650824036301945.0
5.0,-3.0,-9.0,-11.0,10.0,3.0,2.0,11.0,1650824036301945.0
0.0,0.0,12.0,5.0,-9.0,1.0,-11.0,-2.0,1650824036302874.0
1.0,5.0,1.0,3.0,8.0,2.0,5.0,13.0,1650824036302874.0
0.0,2.0,0.0,3.0,1.0,-1.0,-4.0,-10.0,1650824036315905.0
4.0,4.0,3.0,-7.0,-4.0,2.0,1.0,1.0,1650824036315905.0
-2.0,-9.0,-5.0,-4.0,-3.0,-5.0,-1.0,-4.0,1650824036323208.0
-3.0,-4.0,-5.0,-5.0,-8.0,0.0,-1.0,5.0,1650824036323208.0
4.0,4.0,-1.0,-1.0,4.0,1.0,-1.0,0.0,1650824036346298.0
4.0,-1.0,-1.0,-10.0,3.0,11.0,4.0,1.0,1650824036346298.0
0.0,0.0,13.0,17.0,1.0,-8.0,-1.0,-2.0,1650824036348265.0
-1.0,17.0,0.0,3.0,-6.0,-6.0,-5.0,-6.0,1650824036348265.0
-3.0,-6.0,9.0,-1.0,2.0,-1.0,-2.0,-1.0,1650824036361979.0
4.0,1.0,-4.0,3.0,-3.0,-1.0,4.0,-3.0,1650824036361979.0
-13.0,-16.0,-17.0,-17.0,-2.0,5.0,-4.0,-1.0,1650824036362911.0
14.0,7.0,17.0,12.0,0.0,-5.0,-5.0,-4.0,1650824036362911.0
-22.0,12.0,1.0,-3.0,4.0,-5.0,2.0,-5.0,1650824036374878.0
-4.0,-12.0,6.0,4.0,1.0,-2.0,-1.0,1.0,1650824036374878.0
0.0,9.0,8.0,10.0,8.0,4.0,2.0,4.0,1650824036383864.0
2.0,1.0,-5.0,-9.0,0.0,3.0,-7.0,-6.0,1650824036383864.0
7.0,-10.0,-4.0,0.0,-13.0,-7.0,-2.0,0.0,1650824036398811.0
0.0,8.0,-1.0,-5.0,-2.0,0.0,3.0,2.0,1650824036398811.0
0.0,-5.0,1.0,-3.0,-5.0,0.0,-4.0,-2.0,1650824036400807.0
6.0,7.0,-2.0,2.0,3.0,1.0,1.0,-1.0,1650824036400807.0
2.0,-5.0,-2.0,1.0,5.0,4.0,-1.0,0.0,1650824036420924.0
-2.0,-3.0,-8.0,-6.0,-1.0,-1.0,1.0,0.0,1650824036420924.0
-2.0,0.0,-2.0,-3.0,-7.0,-5.0,-2.0,0.0,1650824036427975.0
-9.0,-15.0,4.0,2.0,0.0,1.0,-3.0,-2.0,1650824036427975.0
14.0,29.0,10.0,6.0,6.0,-2.0,0.0,5.0,1650824036435007.0
-14.0,-28.0,-25.0,-12.0,-7.0,-7.0,4.0,0.0,1650824036435007.0
2.0,-3.0,7.0,0.0,4.0,5.0,-5.0,-9.0,1650824036443984.0
1.0,5.0,-9.0,4.0,-1.0,1.0,4.0,-1.0,1650824036443984.0
0.0,-3.0,1.0,-3.0,-1.0,-1.0,-2.0,-1.0,1650824036467029.0
-1.0,-2.0,0.0,-7.0,-2.0,-6.0,-7.0,-3.0,1650824036467029.0
5.0,2.0,-4.0,4.0,-7.0,-3.0,0.0,3.0,1650824036468026.0
4.0,1.0,0.0,-7.0,1.0,2.0,-1.0,0.0,1650824036468026.0
-17.0,-31.0,-18.0,3.0,11.0,6.0,1.0,-2.0,1650824036481988.0
1.0,18.0,10.0,3.0,7.0,2.0,2.0,4.0,1650824036481988.0
-1.0,-8.0,-18.0,0.0,-4.0,-3.0,-1.0,-2.0,1650824036482986.0
-10.0,-2.0,9.0,-1.0,-9.0,-8.0,-3.0,-2.0,1650824036482986.0
3.0,9.0,0.0,-1.0,-10.0,-5.0,-1.0,-1.0,1650824036496813.0
7.0,6.0,6.0,-4.0,-2.0,0.0,2.0,-2.0,1650824036496813.0
14.0,3.0,1.0,1.0,6.0,3.0,4.0,5.0,1650824036503860.0
-7.0,1.0,-4.0,4.0,-1.0,-1.0,0.0,-2.0,1650824036503860.0
-2.0,-3.0,-5.0,-6.0,-3.0,-6.0,-8.0,-9.0,1650824036518780.0
-8.0,-3.0,-4.0,-1.0,-1.0,-2.0,-4.0,-4.0,1650824036518780.0
-7.0,-12.0,7.0,-2.0,-5.0,0.0,1.0,-1.0,1650824036520749.0
1.0,-2.0,-6.0,3.0,1.0,-2.0,4.0,3.0,1650824036520749.0
2.0,7.0,-1.0,7.0,2.0,3.0,4.0,2.0,1650824036541766.0
6.0,7.0,6.0,-5.0,3.0,6.0,1.0,1.0,1650824036541766.0
0.0,10.0,3.0,3.0,-5.0,-7.0,-6.0,-1.0,1650824036542690.0
-10.0,-11.0,0.0,-3.0,-4.0,-1.0,-3.0,-4.0,1650824036542690.0
9.0,1.0,-2.0,0.0,-1.0,5.0,2.0,1.0,1650824036555692.0
3.0,5.0,-23.0,0.0,4.0,1.0,6.0,3.0,1650824036555692.0
-13.0,-9.0,1.0,3.0,4.0,4.0,4.0,-1.0,1650824036563633.0
1.0,-12.0,-3.0,-1.0,-7.0,-9.0,-3.0,1.0,1650824036563633.0
-4.0,-2.0,-4.0,-11.0,-2.0,-2.0,-6.0,-4.0,1650824036578659.0
-4.0,-7.0,4.0,-2.0,-3.0,-1.0,-4.0,-2.0,1650824036578659.0
0.0,1.0,5.0,1.0,-3.0,0.0,3.0,2.0,1650824036580588.0
5.0,2.0,-4.0,2.0,12.0,9.0,6.0,3.0,1650824036580588.0
6.0,0.0,4.0,1.0,-5.0,-1.0,2.0,3.0,1650824036601553.0
-1.0,-3.0,5.0,6.0,9.0,6.0,3.0,1.0,1650824036601553.0
-1.0,2.0,2.0,14.0,-3.0,-4.0,-3.0,0.0,1650824036603527.0
0.0,-1.0,-5.0,-20.0,3.0,1.0,0.0,-1.0,1650824036603527.0
1.0,2.0,-4.0,-6.0,-8.0,-4.0,1.0,-1.0,1650824036624470.0
-4.0,2.0,6.0,3.0,-8.0,-3.0,0.0,-3.0,1650824036624470.0
15.0,9.0,8.0,-2.0,2.0,1.0,0.0,3.0,1650824036625468.0
1.0,11.0,-1.0,8.0,-2.0,-2.0,1.0,-1.0,1650824036625468.0
-11.0,-20.0,-3.0,-3.0,0.0,-1.0,-3.0,-6.0,1650824036639452.0
4.0,2.0,10.0,5.0,-1.0,1.0,2.0,6.0,1650824036639452.0
0.0,-5.0,-2.0,-3.0,11.0,5.0,-1.0,-6.0,1650824036640428.0
1.0,-3.0,-5.0,5.0,4.0,2.0,0.0,-2.0,1650824036640428.0
1.0,-15.0,-2.0,-2.0,1.0,-4.0,5.0,6.0,1650824036661371.0
2.0,3.0,2.0,-3.0,-6.0,-3.0,-3.0,-3.0,1650824036661371.0
-1.0,6.0,2.0,-6.0,-14.0,-6.0,-2.0,2.0,1650824036663367.0
3.0,4.0,1.0,5.0,13.0,1.0,-1.0,-2.0,1650824036663367.0
-3.0,13.0,3.0,2.0,-9.0,-1.0,1.0,1.0,1650824036675361.0
-1.0,-5.0,-2.0,0.0,2.0,0.0,0.0,-3.0,1650824036675361.0
2.0,-2.0,-3.0,-1.0,9.0,0.0,2.0,-1.0,1650824036684339.0
-3.0,-3.0,1.0,3.0,-3.0,1.0,-3.0,-3.0,1650824036684339.0
-3.0,2.0,2.0,4.0,8.0,2.0,0.0,-1.0,1650824036706324.0
-2.0,-2.0,-5.0,-4.0,-5.0,-5.0,-3.0,0.0,1650824036706324.0
-7.0,-4.0,-5.0,-9.0,-8.0,-9.0,-5.0,-4.0,1650824036708275.0
-4.0,-2.0,3.0,7.0,-6.0,2.0,1.0,2.0,1650824036708275.0
5.0,6.0,2.0,-6.0,5.0,0.0,5.0,3.0,1650824036721241.0
3.0,4.0,-1.0,1.0,-2.0,0.0,-2.0,1.0,1650824036721241.0
-4.0,-3.0,0.0,-6.0,0.0,-2.0,-2.0,1.0,1650824036723235.0
8.0,-7.0,-4.0,-4.0,-9.0,-6.0,-7.0,-6.0,1650824036723235.0
-11.0,-3.0,-4.0,-1.0,2.0,2.0,-6.0,-6.0,1650824036744448.0
0.0,6.0,-2.0,-4.0,3.0,6.0,1.0,2.0,1650824036744448.0
0.0,-1.0,2.0,4.0,1.0,2.0,2.0,0.0,1650824036745448.0
2.0,4.0,4.0,3.0,4.0,4.0,4.0,3.0,1650824036745448.0
5.0,3.0,-2.0,-1.0,2.0,-1.0,1.0,3.0,1650824036759557.0
0.0,4.0,10.0,2.0,5.0,0.0,-1.0,-1.0,1650824036759557.0
-5.0,2.0,-3.0,-3.0,-3.0,1.0,-2.0,-1.0,1650824036760564.0
-3.0,-1.0,4.0,-11.0,-10.0,-7.0,-2.0,0.0,1650824036760564.0
-1.0,3.0,-2.0,0.0,-5.0,-7.0,-7.0,-3.0,1650824036781706.0
-5.0,-5.0,-6.0,-2.0,-12.0,-3.0,2.0,-1.0,1650824036781706.0
2.0,1.0,1.0,3.0,1.0,3.0,2.0,2.0,1650824036782641.0
-3.0,-2.0,-2.0,0.0,4.0,3.0,1.0,-2.0,1650824036782641.0
-1.0,0.0,1.0,-3.0,4.0,1.0,-1.0,-1.0,1650824036795687.0
1.0,-3.0,-3.0,0.0,-2.0,-3.0,0.0,0.0,1650824036795687.0
-2.0,1.0,5.0,9.0,-1.0,1.0,1.0,0.0,1650824036804589.0
-4.0,-2.0,-8.0,-14.0,-1.0,-2.0,-1.0,1.0,1650824036804589.0
-1.0,0.0,0.0,0.0,5.0,0.0,-1.0,0.0,1650824036819552.0
2.0,-2.0,-2.0,1.0,4.0,5.0,-1.0,0.0,1650824036819552.0
-2.0,-1.0,-2.0,-1.0,-3.0,7.0,-1.0,0.0,1650824036820541.0
7.0,9.0,4.0,7.0,-6.0,-17.0,-3.0,2.0,1650824036820541.0
3.0,-10.0,2.0,2.0,1.0,7.0,7.0,2.0,1650824036841895.0
-8.0,-7.0,-11.0,-4.0,6.0,1.0,0.0,-2.0,1650824036841895.0
-2.0,-3.0,2.0,-1.0,1.0,-5.0,0.0,-1.0,1650824036842825.0
-1.0,0.0,-3.0,-4.0,-2.0,3.0,-3.0,-1.0,1650824036842825.0
0.0,2.0,1.0,-2.0,-12.0,-10.0,-4.0,0.0,1650824036863681.0
5.0,3.0,-2.0,0.0,-1.0,1.0,0.0,0.0,1650824036863681.0
-4.0,-4.0,-2.0,-4.0,22.0,12.0,3.0,0.0,1650824036865679.0
-3.0,-4.0,-7.0,0.0,-18.0,-4.0,0.0,-1.0,1650824036865679.0
2.0,2.0,-3.0,2.0,2.0,4.0,-1.0,-1.0,1650824036878710.0
-3.0,-2.0,0.0,1.0,13.0,-1.0,0.0,-1.0,1650824036878710.0
1.0,0.0,-1.0,1.0,-8.0,-4.0,1.0,2.0,1650824036880666.0
-2.0,-2.0,2.0,0.0,0.0,-2.0,-1.0,0.0,1650824036880666.0
0.0,-2.0,-1.0,0.0,1.0,1.0,0.0,0.0,1650824036901649.0
-1.0,-2.0,-3.0,-6.0,-7.0,-7.0,-7.0,-1.0,1650824036901649.0
-1.0,-2.0,-2.0,-8.0,-12.0,-8.0,-4.0,-3.0,1650824036903576.0
-3.0,-1.0,0.0,2.0,10.0,11.0,5.0,1.0,1650824036903576.0
0.0,7.0,6.0,10.0,21.0,9.0,2.0,3.0,1650824036924260.0
1.0,0.0,5.0,1.0,-5.0,-2.0,-2.0,-2.0,1650824036924260.0
2.0,-2.0,-2.0,-3.0,-4.0,-5.0,-1.0,1.0,1650824036925257.0
-3.0,-3.0,-5.0,-7.0,-10.0,-3.0,-3.0,-1.0,1650824036925257.0
-6.0,-1.0,-3.0,-3.0,-3.0,-2.0,-3.0,-3.0,1650824036939289.0
4.0,2.0,-1.0,1.0,11.0,-2.0,0.0,0.0,1650824036939289.0
7.0,7.0,2.0,3.0,-15.0,-2.0,2.0,3.0,1650824036940218.0
-10.0,-4.0,1.0,9.0,9.0,-4.0,1.0,-4.0,1650824036940218.0
4.0,9.0,6.0,-17.0,-8.0,-6.0,-1.0,0.0,1650824036961162.0
-1.0,1.0,6.0,3.0,2.0,4.0,2.0,-1.0,1650824036961162.0
-1.0,0.0,-3.0,-3.0,4.0,0.0,0.0,2.0,1650824036963156.0
3.0,4.0,3.0,0.0,3.0,4.0,-5.0,-2.0,1650824036963156.0
-3.0,-5.0,-3.0,7.0,-6.0,-3.0,-1.0,-4.0,1650824036984494.0
-2.0,-3.0,-5.0,-2.0,-8.0,-2.0,-1.0,2.0,1650824036984494.0
1.0,4.0,2.0,6.0,5.0,2.0,0.0,-1.0,1650824036985495.0
-1.0,-2.0,1.0,-4.0,1.0,3.0,0.0,0.0,1650824036985495.0
-3.0,-4.0,-5.0,-2.0,-7.0,0.0,-1.0,0.0,1650824036998472.0
-3.0,-7.0,-2.0,0.0,18.0,7.0,-2.0,-1.0,1650824036998472.0
-3.0,-4.0,-4.0,0.0,-6.0,-3.0,-4.0,-3.0,1650824037005511.0
2.0,1.0,-2.0,0.0,0.0,0.0,4.0,2.0,1650824037005511.0
-2.0,0.0,-1.0,0.0,-5.0,-1.0,0.0,0.0,1650824037022515.0
1.0,0.0,-1.0,-1.0,-7.0,-2.0,0.0,-2.0,1650824037022515.0
0.0,-3.0,-3.0,-2.0,14.0,1.0,-2.0,-2.0,1650824037023515.0
-2.0,-3.0,-1.0,-5.0,-17.0,-9.0,-2.0,-3.0,1650824037023515.0
3.0,2.0,2.0,0.0,-1.0,1.0,3.0,2.0,1650824037044488.0
-1.0,1.0,-2.0,2.0,-5.0,-1.0,-1.0,0.0,1650824037044488.0
-3.0,-3.0,-3.0,-5.0,-1.0,-2.0,-3.0,-2.0,1650824037045456.0
0.0,1.0,1.0,1.0,6.0,10.0,1.0,1.0,1650824037045456.0
-5.0,-3.0,0.0,6.0,11.0,7.0,1.0,0.0,1650824037058422.0
0.0,1.0,1.0,4.0,1.0,0.0,1.0,0.0,1650824037058422.0
-1.0,0.0,-1.0,-2.0,-2.0,-2.0,0.0,-1.0,1650824037065466.0
3.0,0.0,-3.0,-3.0,0.0,-1.0,-1.0,0.0,1650824037065466.0
2.0,0.0,-2.0,-7.0,-25.0,5.0,-2.0,0.0,1650824037081976.0
-5.0,0.0,1.0,-5.0,5.0,-16.0,-2.0,-3.0,1650824037081976.0
-4.0,-1.0,-4.0,8.0,10.0,1.0,0.0,-3.0,1650824037082923.0
0.0,-3.0,-1.0,3.0,4.0,1.0,-1.0,-2.0,1650824037082923.0
3.0,-2.0,-3.0,-2.0,15.0,3.0,-3.0,0.0,1650824037103592.0
0.0,-2.0,-1.0,-5.0,-30.0,-1.0,-1.0,-1.0,1650824037103592.0
0.0,6.0,4.0,4.0,6.0,0.0,5.0,2.0,1650824037105588.0
-1.0,0.0,-3.0,1.0,3.0,1.0,0.0,0.0,1650824037105588.0
-1.0,-3.0,-4.0,-2.0,-2.0,-5.0,-3.0,-1.0,1650824037118619.0
1.0,-2.0,-3.0,-2.0,-3.0,-1.0,-2.0,0.0,1650824037118619.0
-3.0,-3.0,-1.0,-2.0,1.0,-1.0,1.0,-1.0,1650824037125569.0
-3.0,-1.0,7.0,0.0,-1.0,2.0,-1.0,-3.0,1650824037125569.0
-2.0,1.0,2.0,7.0,5.0,-2.0,-1.0,-1.0,1650824037141826.0
0.0,2.0,2.0,-2.0,7.0,6.0,3.0,0.0,1650824037141826.0
1.0,-1.0,-2.0,-3.0,-9.0,-2.0,0.0,-1.0,1650824037143833.0
0.0,0.0,-3.0,-2.0,3.0,-4.0,0.0,0.0,1650824037143833.0
-3.0,-4.0,-2.0,-4.0,-15.0,-8.0,-4.0,-3.0,1650824037164474.0
0.0,-2.0,0.0,6.0,5.0,2.0,0.0,-1.0,1650824037164474.0
0.0,0.0,0.0,-5.0,-16.0,-2.0,-2.0,1.0,1650824037165474.0
-1.0,0.0,-1.0,-4.0,9.0,4.0,1.0,0.0,1650824037165474.0
-1.0,-2.0,-3.0,-1.0,-10.0,-11.0,-3.0,-1.0,1650824037178507.0
3.0,8.0,6.0,10.0,3.0,2.0,4.0,3.0,1650824037178507.0
-4.0,-21.0,-7.0,-4.0,9.0,3.0,-1.0,-2.0,1650824037185541.0
-2.0,-2.0,-4.0,0.0,-2.0,-4.0,-1.0,-6.0,1650824037185541.0
-1.0,-1.0,-1.0,-2.0,-1.0,1.0,-2.0,0.0,1650824037201494.0
-1.0,-1.0,-3.0,-5.0,-4.0,1.0,-2.0,-1.0,1650824037201494.0
-1.0,5.0,4.0,2.0,-1.0,5.0,1.0,1.0,1650824037203466.0
1.0,1.0,0.0,1.0,-6.0,-9.0,-1.0,2.0,1650824037203466.0
-1.0,-4.0,-3.0,-5.0,-1.0,-5.0,-3.0,-2.0,1650824037223558.0
-2.0,-2.0,0.0,1.0,-5.0,-5.0,-2.0,-2.0,1650824037223558.0
0.0,2.0,1.0,2.0,4.0,11.0,3.0,-1.0,1650824037225527.0
-2.0,-1.0,-2.0,0.0,1.0,4.0,3.0,1.0,1650824037225527.0
-1.0,2.0,4.0,-1.0,4.0,-1.0,0.0,-2.0,1650824037238518.0
-1.0,-2.0,0.0,-1.0,-5.0,-7.0,-3.0,-2.0,1650824037238518.0
0.0,1.0,1.0,7.0,-5.0,-8.0,-4.0,-2.0,1650824037245539.0
0.0,1.0,-2.0,-7.0,-6.0,0.0,-1.0,1.0,1650824037245539.0
-1.0,1.0,-1.0,-4.0,-4.0,-4.0,2.0,-1.0,1650824037261496.0
-4.0,-2.0,0.0,-4.0,-7.0,-5.0,-3.0,-2.0,1650824037261496.0
1.0,-1.0,-3.0,-4.0,15.0,10.0,-2.0,-3.0,1650824037263425.0
0.0,-1.0,0.0,2.0,-10.0,-11.0,-3.0,0.0,1650824037263425.0
0.0,6.0,7.0,8.0,24.0,12.0,6.0,2.0,1650824037284395.0
0.0,-6.0,-9.0,-1.0,-2.0,4.0,2.0,-1.0,1650824037284395.0
-1.0,-2.0,3.0,-1.0,-8.0,-7.0,-4.0,-1.0,1650824037285372.0
-1.0,-2.0,-3.0,-3.0,-3.0,-2.0,-4.0,-2.0,1650824037285372.0
-1.0,1.0,-1.0,-2.0,-7.0,-4.0,-2.0,-1.0,1650824037299359.0
1.0,1.0,-1.0,1.0,2.0,4.0,-2.0,1.0,1650824037299359.0
0.0,0.0,-4.0,-8.0,-5.0,6.0,-3.0,-2.0,1650824037305380.0
2.0,6.0,5.0,3.0,-3.0,-13.0,2.0,0.0,1650824037305380.0
0.0,-7.0,-1.0,11.0,7.0,9.0,5.0,0.0,1650824037321336.0
-2.0,1.0,2.0,-2.0,4.0,-8.0,-1.0,0.0,1650824037321336.0
-2.0,-1.0,-1.0,-2.0,-11.0,-8.0,1.0,1.0,1650824037323292.0
-2.0,0.0,-1.0,-4.0,3.0,7.0,-2.0,0.0,1650824037323292.0
0.0,3.0,-1.0,-6.0,3.0,-3.0,-1.0,-1.0,1650824037344452.0
-2.0,-3.0,-1.0,-3.0,-9.0,1.0,-1.0,2.0,1650824037344452.0
0.0,1.0,-2.0,-1.0,12.0,0.0,0.0,-2.0,1650824037345466.0
2.0,-3.0,0.0,1.0,-2.0,2.0,1.0,-1.0,1650824037345466.0
0.0,0.0,7.0,5.0,5.0,1.0,2.0,-1.0,1650824037357448.0
3.0,0.0,-4.0,2.0,5.0,6.0,2.0,2.0,1650824037357448.0
-1.0,0.0,-2.0,0.0,-4.0,-5.0,-1.0,1.0,1650824037366402.0
-3.0,-3.0,-3.0,-3.0,-4.0,-2.0,-1.0,0.0,1650824037366402.0
-1.0,-2.0,-5.0,-4.0,-10.0,-2.0,-5.0,-2.0,1650824037381383.0
-1.0,-2.0,-3.0,-2.0,2.0,-1.0,-1.0,-2.0,1650824037381383.0
1.0,6.0,9.0,6.0,-4.0,-2.0,3.0,-1.0,1650824037383351.0
1.0,-1.0,-2.0,1.0,7.0,7.0,3.0,3.0,1650824037383351.0
0.0,-1.0,-3.0,-2.0,2.0,4.0,-1.0,1.0,1650824037404448.0
1.0,-2.0,0.0,-2.0,0.0,-4.0,-3.0,-1.0,1650824037404448.0
-2.0,-3.0,-7.0,-9.0,-7.0,4.0,-3.0,0.0,1650824037405612.0
0.0,-2.0,4.0,4.0,-1.0,1.0,2.0,0.0,1650824037405612.0
1.0,3.0,3.0,3.0,-2.0,-13.0,-1.0,-2.0,1650824037417606.0
0.0,-1.0,-3.0,1.0,15.0,12.0,1.0,-2.0,1650824037417606.0
0.0,-10.0,-2.0,1.0,0.0,0.0,0.0,3.0,1650824037426556.0
-5.0,-3.0,-4.0,-9.0,-6.0,-3.0,-4.0,-3.0,1650824037426556.0
-1.0,1.0,-3.0,-3.0,3.0,1.0,-1.0,0.0,1650824037441101.0
-1.0,4.0,2.0,3.0,-14.0,-1.0,1.0,3.0,1650824037441101.0
-1.0,5.0,3.0,4.0,11.0,9.0,3.0,0.0,1650824037443096.0
2.0,-1.0,-3.0,1.0,1.0,-7.0,-1.0,0.0,1650824037443096.0
1.0,-1.0,0.0,-5.0,-6.0,-8.0,0.0,22.0,1650824037464473.0
-5.0,0.0,1.0,-2.0,-2.0,-2.0,-8.0,-43.0,1650824037464473.0
-2.0,-2.0,-7.0,-6.0,-5.0,-7.0,0.0,-6.0,1650824037465198.0
-3.0,2.0,0.0,7.0,15.0,3.0,2.0,-5.0,1650824037465198.0
1.0,-2.0,-2.0,-4.0,-7.0,10.0,-2.0,-8.0,1650824037478165.0
3.0,-1.0,-1.0,1.0,9.0,-4.0,2.0,16.0,1650824037478165.0
-4.0,0.0,2.0,3.0,1.0,-3.0,1.0,-3.0,1650824037486172.0
2.0,1.0,3.0,1.0,-11.0,-3.0,-7.0,-3.0,1650824037486172.0
0.0,1.0,4.0,3.0,6.0,-2.0,3.0,3.0,1650824037501973.0
-3.0,-12.0,-10.0,-5.0,-1.0,3.0,0.0,4.0,1650824037501973.0
0.0,-1.0,-1.0,-2.0,-6.0,-7.0,-4.0,-3.0,1650824037502970.0
-2.0,-1.0,-6.0,-5.0,-3.0,3.0,1.0,6.0,1650824037502970.0
-3.0,-2.0,-3.0,-3.0,-5.0,1.0,-4.0,-3.0,1650824037524234.0
2.0,4.0,3.0,5.0,-2.0,-1.0,2.0,2.0,1650824037524234.0
2.0,1.0,3.0,4.0,8.0,4.0,2.0,2.0,1650824037525239.0
-1.0,-2.0,-2.0,1.0,-1.0,-4.0,-2.0,2.0,1650824037525239.0
1.0,1.0,0.0,-1.0,-1.0,0.0,-1.0,-5.0,1650824037538198.0
-2.0,-1.0,3.0,2.0,7.0,2.0,4.0,2.0,1650824037538198.0
-2.0,-3.0,-4.0,-3.0,-10.0,2.0,-2.0,2.0,1650824037546619.0
1.0,0.0,-2.0,-2.0,-2.0,-4.0,1.0,3.0,1650824037546619.0
-2.0,-3.0,-3.0,-1.0,2.0,4.0,-3.0,-9.0,1650824037561647.0
-2.0,0.0,-2.0,-4.0,-7.0,-12.0,1.0,4.0,1650824037561647.0
1.0,-2.0,-7.0,-4.0,-5.0,-2.0,-7.0,3.0,1650824037563575.0
0.0,2.0,11.0,6.0,1.0,25.0,8.0,-1.0,1650824037563575.0
0.0,0.0,1.0,4.0,8.0,-17.0,-5.0,-3.0,1650824037583694.0
-1.0,1.0,-2.0,-3.0,-6.0,0.0,-7.0,2.0,1650824037583694.0
0.0,-1.0,-8.0,-2.0,0.0,-3.0,5.0,-1.0,1650824037585622.0
-1.0,1.0,3.0,-2.0,6.0,-2.0,0.0,1.0,1650824037585622.0
-2.0,-4.0,-11.0,-7.0,-19.0,-6.0,-3.0,7.0,1650824037597657.0
0.0,1.0,1.0,2.0,8.0,9.0,4.0,8.0,1650824037597657.0
1.0,6.0,1.0,-6.0,5.0,4.0,1.0,-2.0,1650824037606580.0
-2.0,-13.0,-11.0,-8.0,5.0,6.0,-5.0,-9.0,1650824037606580.0
0.0,1.0,6.0,6.0,-3.0,-7.0,4.0,7.0,1650824037621650.0
0.0,-2.0,-4.0,1.0,2.0,-7.0,-3.0,3.0,1650824037621650.0
-1.0,-1.0,3.0,3.0,-5.0,-6.0,0.0,-3.0,1650824037623588.0
1.0,1.0,1.0,1.0,-11.0,1.0,1.0,6.0,1650824037623588.0
-2.0,-5.0,-5.0,-9.0,-6.0,-1.0,-2.0,-4.0,1650824037644525.0
-1.0,0.0,-1.0,2.0,5.0,-1.0,0.0,-4.0,1650824037644525.0
-3.0,0.0,5.0,8.0,6.0,1.0,6.0,-1.0,1650824037645522.0
-1.0,1.0,3.0,2.0,5.0,4.0,-5.0,-4.0,1650824037645522.0
-1.0,-1.0,0.0,-1.0,-1.0,-3.0,-5.0,-3.0,1650824037657671.0
2.0,2.0,4.0,0.0,-9.0,1.0,-1.0,-8.0,1650824037657671.0
1.0,0.0,-3.0,2.0,11.0,7.0,5.0,6.0,1650824037666584.0
-1.0,1.0,2.0,1.0,-7.0,-17.0,-5.0,1.0,1650824037666584.0
1.0,-3.0,-11.0,-10.0,18.0,2.0,3.0,-3.0,1650824037681564.0
1.0,3.0,17.0,11.0,-17.0,1.0,0.0,8.0,1650824037681564.0
-1.0,-3.0,-11.0,-4.0,-18.0,-19.0,-7.0,-6.0,1650824037683538.0
-1.0,-1.0,-4.0,-3.0,8.0,10.0,1.0,-14.0,1650824037683538.0
2.0,5.0,12.0,14.0,8.0,2.0,-1.0,4.0,1650824037703557.0
-2.0,-5.0,-6.0,-12.0,1.0,-4.0,1.0,2.0,1650824037703557.0
1.0,5.0,-3.0,1.0,-7.0,0.0,-5.0,-1.0,1650824037705553.0
-1.0,-1.0,8.0,-1.0,2.0,10.0,2.0,1.0,1650824037705553.0
-2.0,0.0,2.0,4.0,4.0,0.0,-2.0,0.0,1650824037717548.0
3.0,1.0,0.0,1.0,3.0,-1.0,0.0,1.0,1650824037717548.0
0.0,3.0,9.0,6.0,-5.0,-1.0,12.0,10.0,1650824037733889.0
2.0,-2.0,-7.0,-5.0,-3.0,-11.0,-14.0,-6.0,1650824037733889.0
-3.0,-2.0,-2.0,-7.0,1.0,-1.0,-6.0,-5.0,1650824037741649.0
-2.0,2.0,1.0,3.0,4.0,21.0,16.0,-3.0,1650824037741649.0
0.0,0.0,5.0,-1.0,-1.0,-8.0,-19.0,0.0,1650824037743617.0
0.0,2.0,-7.0,3.0,-6.0,-14.0,6.0,19.0,1650824037743617.0
0.0,2.0,17.0,3.0,0.0,8.0,-8.0,-11.0,1650824037764223.0
-2.0,-1.0,-11.0,-3.0,1.0,-7.0,4.0,1.0,1650824037764223.0
0.0,-5.0,-4.0,-5.0,5.0,4.0,3.0,6.0,1650824037770591.0
-4.0,-2.0,-3.0,-4.0,-12.0,-5.0,-1.0,-8.0,1650824037770591.0
-2.0,-5.0,-6.0,-4.0,-4.0,-3.0,-3.0,-2.0,1650824037786596.0
2.0,1.0,4.0,9.0,5.0,3.0,-3.0,-3.0,1650824037786596.0
1.0,3.0,11.0,9.0,4.0,6.0,2.0,-3.0,1650824037788524.0
-4.0,-3.0,-16.0,-15.0,-7.0,-5.0,-1.0,-5.0,1650824037788524.0
-1.0,-4.0,1.0,0.0,-8.0,-6.0,4.0,3.0,1650824037801489.0
-1.0,-4.0,-4.0,-7.0,-6.0,-2.0,-9.0,-5.0,1650824037801489.0
-3.0,-7.0,0.0,4.0,16.0,11.0,2.0,-3.0,1650824037803504.0
3.0,12.0,21.0,15.0,3.0,-3.0,8.0,8.0,1650824037803504.0
-1.0,-5.0,-11.0,-6.0,-11.0,-2.0,1.0,-5.0,1650824037824457.0
1.0,-1.0,4.0,1.0,6.0,1.0,0.0,17.0,1650824037824457.0
-3.0,0.0,-8.0,-3.0,0.0,-11.0,-11.0,-35.0,1650824037825426.0
2.0,1.0,11.0,5.0,-7.0,14.0,5.0,2.0,1650824037825426.0
-3.0,-3.0,-16.0,-4.0,1.0,-6.0,-1.0,-3.0,1650824037854581.0
-2.0,0.0,10.0,9.0,1.0,-9.0,-2.0,-17.0,1650824037854581.0
-1.0,-1.0,-4.0,-9.0,-1.0,0.0,0.0,20.0,1650824037855567.0
2.0,-3.0,-2.0,-1.0,8.0,12.0,-5.0,15.0,1650824037855567.0
-1.0,-3.0,-17.0,-26.0,-19.0,-9.0,11.0,-9.0,1650824037861579.0
-2.0,-3.0,0.0,-6.0,-4.0,-12.0,-1.0,9.0,1650824037861579.0
8.0,11.0,13.0,15.0,15.0,10.0,4.0,6.0,1650824037867562.0
10.0,9.0,6.0,9.0,13.0,6.0,11.0,4.0,1650824037867562.0
-24.0,-3.0,-9.0,4.0,-10.0,1.0,-4.0,-41.0,1650824037884519.0
-6.0,-18.0,-13.0,-22.0,-16.0,-14.0,-22.0,-4.0,1650824037884519.0
4.0,3.0,20.0,-7.0,-9.0,-2.0,5.0,14.0,1650824037885488.0
-2.0,11.0,14.0,21.0,28.0,8.0,-3.0,-21.0,1650824037885488.0
2.0,-19.0,0.0,1.0,-11.0,7.0,7.0,33.0,1650824037906458.0
1.0,5.0,-20.0,-5.0,-2.0,-1.0,19.0,-60.0,1650824037906458.0
1.0,5.0,2.0,-3.0,-6.0,-9.0,-32.0,3.0,1650824037908425.0
2.0,6.0,25.0,29.0,2.0,-7.0,16.0,6.0,1650824037908425.0
6.0,0.0,-3.0,-4.0,8.0,14.0,3.0,-10.0,1650824037920422.0
-3.0,-3.0,18.0,-4.0,-1.0,-5.0,-24.0,17.0,1650824037920422.0
25.0,-3.0,-3.0,21.0,-2.0,4.0,23.0,2.0,1650824037927375.0
-14.0,7.0,-14.0,-61.0,-17.0,-17.0,-51.0,-47.0,1650824037927375.0
1.0,-46.0,-26.0,4.0,-1.0,1.0,19.0,27.0,1650824037944396.0
-26.0,-4.0,16.0,17.0,8.0,4.0,10.0,42.0,1650824037944396.0
7.0,18.0,35.0,41.0,17.0,18.0,39.0,14.0,1650824037945341.0
-6.0,-7.0,-73.0,-49.0,-13.0,-7.0,-13.0,-29.0,1650824037945341.0
-4.0,28.0,54.0,-2.0,-13.0,-19.0,-31.0,-23.0,1650824037966491.0
6.0,-28.0,-51.0,-35.0,-10.0,1.0,38.0,-20.0,1650824037966491.0
-9.0,-9.0,7.0,22.0,-4.0,-13.0,-40.0,24.0,1650824037968419.0
18.0,19.0,19.0,7.0,4.0,7.0,5.0,-9.0,1650824037968419.0
-21.0,-6.0,-31.0,-30.0,-5.0,0.0,15.0,11.0,1650824037980927.0
36.0,82.0,54.0,49.0,22.0,14.0,27.0,53.0,1650824037980927.0
-51.0,-52.0,-12.0,-22.0,-16.0,-14.0,-43.0,-51.0,1650824037987938.0
0.0,-29.0,-1.0,-7.0,-2.0,0.0,32.0,15.0,1650824037987938.0
11.0,0.0,3.0,13.0,17.0,5.0,-46.0,-56.0,1650824038003895.0
-24.0,4.0,-11.0,-28.0,-25.0,-9.0,15.0,59.0,1650824038003895.0
18.0,0.0,26.0,19.0,7.0,2.0,-4.0,-8.0,1650824038005883.0
7.0,33.0,41.0,29.0,2.0,17.0,7.0,110.0,1650824038005883.0
-7.0,44.0,34.0,3.0,19.0,-13.0,-21.0,-15.0,1650824038026808.0
-18.0,-51.0,4.0,47.0,-2.0,3.0,1.0,-34.0,1650824038026808.0
27.0,26.0,-8.0,-22.0,-6.0,-3.0,9.0,86.0,1650824038027809.0
-39.0,-91.0,-69.0,-59.0,-14.0,-12.0,3.0,-111.0,1650824038027809.0
78.0,73.0,15.0,13.0,0.0,5.0,40.0,124.0,1650824038039839.0
11.0,-36.0,9.0,12.0,14.0,13.0,-26.0,-56.0,1650824038039839.0
0.0,24.0,-16.0,-19.0,-5.0,-4.0,8.0,-48.0,1650824038048747.0
5.0,5.0,37.0,2.0,5.0,-1.0,-5.0,18.0,1650824038048747.0
5.0,15.0,-6.0,25.0,9.0,16.0,24.0,11.0,1650824038063775.0
5.0,-7.0,-50.0,-50.0,-19.0,-17.0,-2.0,20.0,1650824038063775.0
25.0,-12.0,-8.0,12.0,-4.0,9.0,11.0,-30.0,1650824038065703.0
-45.0,10.0,12.0,21.0,26.0,13.0,-17.0,53.0,1650824038065703.0
