EMG_s0,EMG_s1,EMG_s2,EMG_s3,EMG_s4,EMG_s5,EMG_s6,EMG_s7,timestamp
-1.0,0.0,0.0,0.0,1.0,-1.0,0.0,-2.0,1650823835581334.0
-2.0,-3.0,-4.0,-2.0,9.0,3.0,-2.0,-3.0,1650823835581334.0
-3.0,-2.0,-4.0,0.0,0.0,0.0,0.0,-1.0,1650823835582326.0
-3.0,-2.0,-3.0,-3.0,-7.0,-13.0,-3.0,0.0,1650823835582326.0
-2.0,-3.0,-4.0,-7.0,-8.0,5.0,-2.0,-3.0,1650823835588310.0
-1.0,-1.0,0.0,-2.0,-6.0,-10.0,2.0,0.0,1650823835588310.0
0.0,0.0,1.0,5.0,14.0,14.0,1.0,0.0,1650823835589308.0
1.0,0.0,-1.0,1.0,-2.0,-5.0,0.0,-3.0,1650823835589308.0
-1.0,-1.0,-2.0,0.0,-2.0,-5.0,-3.0,1.0,1650823835594294.0
-2.0,0.0,-2.0,-3.0,-8.0,0.0,-2.0,-3.0,1650823835594294.0
-1.0,-3.0,-2.0,-3.0,-7.0,-5.0,-1.0,-2.0,1650823835608256.0
-2.0,0.0,-2.0,-1.0,3.0,2.0,0.0,-3.0,1650823835608256.0
-1.0,0.0,-1.0,1.0,13.0,-2.0,-3.0,-1.0,1650823835616242.0
-1.0,1.0,0.0,2.0,-15.0,11.0,3.0,-1.0,1650823835616242.0
-1.0,0.0,1.0,4.0,3.0,-7.0,2.0,0.0,1650823835623221.0
-1.0,-2.0,0.0,-3.0,-7.0,-5.0,-4.0,-2.0,1650823835623221.0
-1.0,-1.0,-2.0,-1.0,1.0,-3.0,1.0,0.0,1650823835638180.0
0.0,-1.0,-2.0,-4.0,2.0,-4.0,-4.0,0.0,1650823835638180.0
-1.0,2.0,-1.0,-3.0,-6.0,-6.0,-1.0,-2.0,1650823835654137.0
0.0,-1.0,0.0,1.0,7.0,7.0,0.0,-2.0,1650823835654137.0
-1.0,-2.0,-1.0,3.0,-4.0,4.0,3.0,-1.0,1650823835656133.0
1.0,0.0,0.0,3.0,13.0,2.0,3.0,-1.0,1650823835656133.0
0.0,-1.0,-3.0,-5.0,-11.0,-10.0,-6.0,-2.0,1650823835701013.0
1.0,0.0,2.0,2.0,-1.0,6.0,2.0,1.0,1650823835701013.0
-1.0,0.0,-1.0,1.0,5.0,1.0,2.0,0.0,1650823835702010.0
-1.0,0.0,-2.0,-2.0,-3.0,-2.0,0.0,-2.0,1650823835702010.0
0.0,-1.0,-2.0,-3.0,-1.0,-2.0,-2.0,-1.0,1650823835703007.0
1.0,0.0,-2.0,-3.0,1.0,-5.0,-2.0,-1.0,1650823835703007.0
-1.0,0.0,-1.0,-2.0,-12.0,-3.0,0.0,-1.0,1650823835713978.0
0.0,0.0,0.0,3.0,8.0,14.0,1.0,0.0,1650823835713978.0
0.0,-2.0,0.0,1.0,3.0,-6.0,2.0,-1.0,1650823835715973.0
-1.0,0.0,1.0,1.0,-9.0,3.0,1.0,0.0,1650823835715973.0
0.0,0.0,0.0,0.0,1.0,-4.0,-2.0,0.0,1650823835719989.0
1.0,-1.0,-3.0,-3.0,-4.0,-10.0,-4.0,-1.0,1650823835719989.0
-2.0,0.0,2.0,1.0,2.0,4.0,3.0,-2.0,1650823835728772.0
-1.0,-2.0,-2.0,-2.0,3.0,1.0,0.0,-1.0,1650823835728772.0
-3.0,-2.0,-3.0,-3.0,-3.0,5.0,-1.0,-2.0,1650823835742775.0
0.0,0.0,1.0,2.0,1.0,-5.0,2.0,1.0,1650823835742775.0
0.0,1.0,1.0,1.0,2.0,-3.0,-3.0,0.0,1650823835751821.0
1.0,0.0,-1.0,1.0,6.0,5.0,1.0,0.0,1650823835751821.0
0.0,1.0,0.0,-1.0,1.0,0.0,0.0,-2.0,1650823835774544.0
-2.0,0.0,0.0,-3.0,-3.0,-4.0,-1.0,0.0,1650823835774544.0
-2.0,-1.0,-2.0,-2.0,-3.0,2.0,0.0,1.0,1650823835775811.0
-3.0,-1.0,-3.0,-6.0,-7.0,0.0,-4.0,-3.0,1650823835775811.0
1.0,0.0,3.0,3.0,7.0,-9.0,-1.0,1.0,1650823835796911.0
1.0,-1.0,3.0,4.0,13.0,0.0,4.0,0.0,1650823835796911.0
0.0,1.0,-2.0,-3.0,-17.0,0.0,0.0,0.0,1650823835797883.0
1.0,-1.0,-2.0,-2.0,-5.0,-6.0,-1.0,-1.0,1650823835797883.0
-2.0,-3.0,-5.0,-5.0,1.0,3.0,-2.0,-2.0,1650823835811845.0
-2.0,-1.0,0.0,-1.0,-5.0,1.0,-2.0,-1.0,1650823835811845.0
-2.0,-1.0,1.0,3.0,6.0,2.0,4.0,0.0,1650823835812852.0
-1.0,-2.0,-2.0,-3.0,0.0,-5.0,-3.0,-2.0,1650823835812852.0
0.0,0.0,-1.0,1.0,-6.0,-2.0,-2.0,-1.0,1650823835834899.0
1.0,0.0,-2.0,-1.0,5.0,0.0,-2.0,0.0,1650823835834899.0
1.0,0.0,-2.0,-1.0,2.0,9.0,-1.0,0.0,1650823835835901.0
-2.0,-1.0,0.0,-3.0,-11.0,-14.0,-2.0,-1.0,1650823835835901.0
1.0,1.0,1.0,3.0,9.0,2.0,4.0,2.0,1650823835848925.0
0.0,-1.0,0.0,3.0,5.0,8.0,-1.0,2.0,1650823835848925.0
0.0,0.0,0.0,-1.0,-2.0,-1.0,-2.0,-2.0,1650823835855557.0
-2.0,-1.0,-2.0,0.0,1.0,-3.0,-3.0,-1.0,1650823835855557.0
-1.0,-1.0,-1.0,-2.0,-5.0,-5.0,-2.0,-1.0,1650823835871827.0
-1.0,-2.0,-2.0,-2.0,-13.0,-4.0,-1.0,-2.0,1650823835871827.0
-1.0,-1.0,-1.0,-3.0,2.0,11.0,0.0,-2.0,1650823835873765.0
3.0,1.0,2.0,4.0,-1.0,-13.0,2.0,0.0,1650823835873765.0
0.0,0.0,-1.0,0.0,5.0,0.0,-1.0,-1.0,1650823835893729.0
-1.0,1.0,-1.0,-1.0,-5.0,-1.0,-1.0,0.0,1650823835893729.0
-1.0,-2.0,-2.0,-1.0,5.0,0.0,-1.0,-1.0,1650823835895700.0
-2.0,0.0,-1.0,-4.0,-10.0,2.0,-2.0,0.0,1650823835895700.0
0.0,0.0,0.0,-2.0,-1.0,-3.0,0.0,0.0,1650823835908661.0
-1.0,0.0,0.0,-1.0,4.0,-1.0,0.0,-2.0,1650823835908661.0
1.0,-1.0,3.0,1.0,-2.0,-6.0,0.0,-2.0,1650823835915711.0
1.0,3.0,3.0,5.0,16.0,11.0,2.0,1.0,1650823835915711.0
0.0,-1.0,0.0,0.0,0.0,1.0,-3.0,-1.0,1650823835931668.0
-1.0,-2.0,-3.0,-5.0,-8.0,-5.0,-4.0,-1.0,1650823835931668.0
-2.0,-1.0,-2.0,-2.0,-6.0,-7.0,-3.0,-1.0,1650823835933596.0
-2.0,0.0,0.0,2.0,3.0,3.0,3.0,-3.0,1650823835933596.0
-2.0,-1.0,-1.0,0.0,0.0,2.0,-1.0,-1.0,1650823835954566.0
-1.0,0.0,-2.0,-1.0,-1.0,4.0,2.0,-1.0,1650823835954566.0
2.0,1.0,2.0,5.0,14.0,7.0,3.0,1.0,1650823835955537.0
1.0,0.0,0.0,-2.0,-1.0,-1.0,-2.0,1.0,1650823835955537.0
-1.0,-2.0,-4.0,-6.0,-11.0,-3.0,-4.0,-2.0,1650823835968565.0
-3.0,0.0,-2.0,-2.0,-1.0,-2.0,3.0,-2.0,1650823835968565.0
-2.0,1.0,1.0,2.0,-4.0,-9.0,1.0,0.0,1650823835975550.0
-1.0,-1.0,0.0,1.0,3.0,1.0,0.0,0.0,1650823835975550.0
0.0,-1.0,1.0,-1.0,-1.0,-2.0,0.0,1.0,1650823835991467.0
-2.0,-1.0,-3.0,-3.0,-4.0,-1.0,-3.0,-1.0,1650823835991467.0
-2.0,1.0,-2.0,-1.0,2.0,0.0,0.0,0.0,1650823835993456.0
-1.0,-1.0,-2.0,2.0,21.0,4.0,0.0,-2.0,1650823835993456.0
1.0,0.0,2.0,1.0,-27.0,-3.0,0.0,0.0,1650823836014600.0
0.0,1.0,1.0,2.0,5.0,3.0,-1.0,1.0,1650823836014600.0
-1.0,-2.0,1.0,2.0,1.0,-1.0,0.0,-1.0,1650823836015398.0
0.0,-2.0,0.0,0.0,-3.0,-2.0,-1.0,-2.0,1650823836015398.0
-2.0,-1.0,-3.0,-3.0,6.0,1.0,0.0,-2.0,1650823836027660.0
0.0,1.0,-2.0,0.0,0.0,-3.0,-1.0,-2.0,1650823836027660.0
2.0,1.0,1.0,-1.0,5.0,-1.0,0.0,6.0,1650823836036807.0
-3.0,-2.0,-5.0,-2.0,-13.0,1.0,-4.0,-11.0,1650823836036807.0
1.0,1.0,0.0,2.0,8.0,2.0,-1.0,0.0,1650823836051834.0
0.0,0.0,2.0,-1.0,-9.0,-3.0,0.0,0.0,1650823836051834.0
-2.0,-3.0,-9.0,-5.0,0.0,-3.0,-1.0,-5.0,1650823836052791.0
-1.0,-1.0,4.0,-3.0,0.0,-4.0,-2.0,4.0,1650823836052791.0
-1.0,0.0,-1.0,3.0,4.0,3.0,1.0,2.0,1650823836074719.0
-2.0,0.0,7.0,5.0,8.0,7.0,2.0,-1.0,1650823836074719.0
-1.0,-1.0,-2.0,-1.0,-1.0,4.0,2.0,0.0,1650823836075704.0
-1.0,-1.0,-2.0,-6.0,-8.0,-2.0,-1.0,0.0,1650823836075704.0
0.0,-4.0,-12.0,-7.0,-9.0,-11.0,-5.0,-2.0,1650823836087670.0
-1.0,0.0,-1.0,-2.0,-2.0,-7.0,-1.0,0.0,1650823836087670.0
-1.0,1.0,6.0,5.0,13.0,6.0,3.0,-1.0,1650823836096649.0
1.0,0.0,-2.0,1.0,-15.0,-1.0,-1.0,2.0,1650823836096649.0
0.0,-1.0,4.0,-1.0,5.0,0.0,-1.0,-2.0,1650823836112608.0
0.0,-1.0,-5.0,-3.0,-7.0,-4.0,-1.0,-1.0,1650823836112608.0
-2.0,-1.0,-4.0,-6.0,-1.0,-3.0,-4.0,-1.0,1650823836113602.0
-2.0,-1.0,2.0,3.0,8.0,5.0,1.0,-1.0,1650823836113602.0
0.0,1.0,1.0,5.0,7.0,1.0,2.0,4.0,1650823836134660.0
1.0,-2.0,-2.0,-4.0,-12.0,-8.0,-4.0,-1.0,1650823836134660.0
1.0,-1.0,-7.0,-3.0,-6.0,-3.0,-1.0,0.0,1650823836135660.0
1.0,1.0,3.0,6.0,7.0,1.0,0.0,1.0,1650823836135660.0
-2.0,-1.0,4.0,-2.0,6.0,5.0,0.0,-3.0,1650823836147694.0
1.0,-3.0,-13.0,-4.0,0.0,4.0,7.0,18.0,1650823836147694.0
-3.0,0.0,1.0,-2.0,-12.0,-4.0,-8.0,-27.0,1650823836156603.0
-3.0,-3.0,-4.0,-1.0,-4.0,-1.0,2.0,-5.0,1650823836156603.0
0.0,3.0,7.0,5.0,15.0,12.0,2.0,-3.0,1650823836171683.0
2.0,0.0,-2.0,0.0,-3.0,-3.0,0.0,-2.0,1650823836171683.0
0.0,-2.0,2.0,-1.0,-16.0,-6.0,1.0,7.0,1650823836173670.0
2.0,0.0,-10.0,-2.0,6.0,2.0,0.0,4.0,1650823836173670.0
-2.0,0.0,12.0,-1.0,-8.0,-7.0,-3.0,-4.0,1650823836194594.0
-2.0,-3.0,-1.0,-6.0,0.0,-3.0,-5.0,-5.0,1650823836194594.0
0.0,-1.0,-4.0,1.0,0.0,3.0,-1.0,4.0,1650823836195591.0
-2.0,0.0,3.0,1.0,0.0,2.0,0.0,-1.0,1650823836195591.0
4.0,5.0,12.0,13.0,8.0,2.0,3.0,6.0,1650823836207623.0
-3.0,-6.0,-27.0,-16.0,5.0,4.0,-2.0,-4.0,1650823836207623.0
-3.0,-3.0,-4.0,-3.0,-4.0,-6.0,-2.0,1.0,1650823836216535.0
1.0,0.0,-3.0,-5.0,-5.0,-8.0,-2.0,1.0,1650823836216535.0
-2.0,-1.0,-4.0,-1.0,-5.0,1.0,1.0,-1.0,1650823836231559.0
0.0,4.0,15.0,11.0,5.0,3.0,0.0,-3.0,1650823836231559.0
0.0,0.0,-4.0,-2.0,1.0,-1.0,-2.0,-1.0,1650823836233514.0
1.0,-2.0,-3.0,-3.0,-2.0,0.0,-1.0,-1.0,1650823836233514.0
-1.0,0.0,0.0,2.0,-2.0,-2.0,1.0,0.0,1650823836254460.0
0.0,-2.0,4.0,3.0,2.0,0.0,-2.0,-4.0,1650823836254460.0
1.0,0.0,3.0,0.0,17.0,6.0,2.0,4.0,1650823836255431.0
1.0,-2.0,1.0,-1.0,-18.0,-10.0,0.0,10.0,1650823836255431.0
-2.0,-2.0,-6.0,-8.0,-9.0,-6.0,-4.0,-7.0,1650823836267426.0
0.0,2.0,3.0,4.0,21.0,2.0,-3.0,-6.0,1650823836267426.0
0.0,-2.0,4.0,0.0,-14.0,2.0,1.0,1.0,1650823836276402.0
-2.0,-1.0,4.0,-2.0,6.0,2.0,-2.0,-5.0,1650823836276402.0
1.0,-2.0,-8.0,1.0,2.0,-1.0,4.0,7.0,1650823836291442.0
3.0,2.0,5.0,-1.0,-7.0,-8.0,-2.0,2.0,1650823836291442.0
1.0,5.0,4.0,10.0,6.0,0.0,-2.0,1.0,1650823836293457.0
-5.0,-2.0,-8.0,-4.0,1.0,-1.0,1.0,-6.0,1650823836293457.0
-3.0,-13.0,-26.0,-29.0,-15.0,-8.0,-4.0,26.0,1650823836314560.0
-4.0,-1.0,8.0,4.0,-2.0,3.0,-5.0,-34.0,1650823836314560.0
1.0,7.0,0.0,-4.0,-4.0,-3.0,-2.0,-2.0,1650823836315521.0
0.0,10.0,6.0,6.0,2.0,5.0,3.0,-4.0,1650823836315521.0
-1.0,-6.0,-1.0,2.0,5.0,4.0,-3.0,-11.0,1650823836327448.0
0.0,3.0,2.0,1.0,-11.0,-4.0,2.0,10.0,1650823836327448.0
-3.0,-3.0,0.0,3.0,3.0,1.0,4.0,5.0,1650823836336387.0
1.0,-1.0,-1.0,1.0,12.0,3.0,-2.0,-3.0,1650823836336387.0
0.0,-1.0,1.0,-1.0,-5.0,-1.0,-2.0,-2.0,1650823836351382.0
-1.0,-2.0,-2.0,-2.0,0.0,-3.0,1.0,6.0,1650823836351382.0
0.0,-2.0,1.0,1.0,-11.0,-7.0,0.0,-2.0,1650823836353315.0
5.0,0.0,-1.0,-2.0,1.0,3.0,1.0,6.0,1650823836353315.0
-1.0,1.0,2.0,5.0,8.0,10.0,-1.0,-4.0,1650823836375256.0
0.0,-3.0,1.0,0.0,-7.0,-9.0,0.0,3.0,1650823836375256.0
-2.0,-2.0,-2.0,-4.0,0.0,-4.0,-3.0,-4.0,1650823836380264.0
0.0,-2.0,5.0,4.0,-10.0,-14.0,1.0,17.0,1650823836380264.0
0.0,1.0,-3.0,2.0,11.0,18.0,2.0,-10.0,1650823836388268.0
-3.0,-5.0,-14.0,-17.0,-3.0,7.0,0.0,-4.0,1650823836388268.0
-1.0,-1.0,8.0,1.0,2.0,1.0,-2.0,-1.0,1650823836397203.0
1.0,-2.0,-1.0,0.0,8.0,-2.0,-1.0,2.0,1650823836397203.0
1.0,4.0,9.0,8.0,-7.0,-9.0,-1.0,-2.0,1650823836411327.0
2.0,2.0,0.0,8.0,-3.0,-3.0,2.0,6.0,1650823836411327.0
2.0,4.0,16.0,3.0,3.0,1.0,3.0,5.0,1650823836413259.0
-3.0,-5.0,-22.0,-10.0,-4.0,-2.0,-4.0,-7.0,1650823836413259.0
-1.0,0.0,-6.0,-6.0,1.0,-3.0,-2.0,-6.0,1650823836434269.0
-2.0,0.0,2.0,-1.0,0.0,1.0,-2.0,1.0,1650823836434269.0
-1.0,-3.0,-5.0,1.0,-4.0,2.0,-1.0,-3.0,1650823836436210.0
-1.0,4.0,7.0,5.0,2.0,6.0,2.0,-4.0,1650823836436210.0
1.0,2.0,2.0,1.0,0.0,-2.0,3.0,-1.0,1650823836448231.0
5.0,-1.0,-4.0,-1.0,-10.0,1.0,4.0,17.0,1650823836448231.0
0.0,3.0,2.0,5.0,10.0,-4.0,-9.0,-16.0,1650823836457141.0
-2.0,3.0,3.0,4.0,0.0,2.0,1.0,-11.0,1650823836457141.0
0.0,-7.0,-6.0,-11.0,-8.0,-4.0,6.0,30.0,1650823836479104.0
-5.0,-5.0,-4.0,-7.0,16.0,3.0,-10.0,-47.0,1650823836479104.0
0.0,-4.0,-10.0,-4.0,-9.0,3.0,10.0,15.0,1650823836481105.0
0.0,2.0,10.0,8.0,-2.0,-3.0,-7.0,-12.0,1650823836481105.0
2.0,9.0,22.0,8.0,-6.0,-9.0,-6.0,-7.0,1650823836494109.0
-3.0,-3.0,-34.0,-11.0,8.0,11.0,2.0,10.0,1650823836494109.0
-6.0,-6.0,-12.0,-5.0,-2.0,-9.0,2.0,4.0,1650823836496049.0
-1.0,-3.0,1.0,-5.0,-5.0,-2.0,0.0,0.0,1650823836496049.0
12.0,7.0,-1.0,9.0,-1.0,-6.0,-3.0,-1.0,1650823836516831.0
10.0,0.0,3.0,-6.0,0.0,-1.0,-8.0,3.0,1650823836516831.0
4.0,9.0,2.0,0.0,5.0,7.0,-1.0,-3.0,1650823836517789.0
-6.0,5.0,-3.0,-1.0,-8.0,-12.0,-3.0,9.0,1650823836517789.0
-15.0,-13.0,-1.0,2.0,-3.0,8.0,7.0,-6.0,1650823836531738.0
-5.0,-9.0,11.0,10.0,10.0,6.0,5.0,6.0,1650823836531738.0
-1.0,-3.0,3.0,2.0,11.0,7.0,-4.0,0.0,1650823836533666.0
15.0,7.0,-1.0,-7.0,-11.0,-5.0,4.0,10.0,1650823836533666.0
2.0,5.0,-13.0,-7.0,-5.0,-8.0,-7.0,-1.0,1650823836554640.0
-2.0,3.0,3.0,6.0,-6.0,2.0,1.0,-2.0,1650823836554640.0
4.0,7.0,31.0,20.0,13.0,1.0,5.0,8.0,1650823836555608.0
-6.0,-14.0,-26.0,-19.0,0.0,3.0,-3.0,-2.0,1650823836555608.0
-4.0,-1.0,3.0,-6.0,-6.0,-5.0,-5.0,-22.0,1650823836576551.0
1.0,1.0,3.0,0.0,-8.0,-5.0,3.0,16.0,1650823836576551.0
2.0,2.0,-3.0,-7.0,-5.0,-3.0,-4.0,-3.0,1650823836578553.0
-2.0,-1.0,8.0,10.0,6.0,4.0,0.0,-5.0,1650823836578553.0
-1.0,-2.0,-13.0,7.0,10.0,4.0,9.0,29.0,1650823836591539.0
-2.0,0.0,-1.0,-14.0,-12.0,-4.0,-5.0,-32.0,1650823836591539.0
-1.0,2.0,4.0,2.0,-3.0,1.0,-2.0,-13.0,1650823836593506.0
-4.0,-4.0,12.0,-2.0,-3.0,-3.0,-4.0,-6.0,1650823836593506.0
3.0,-2.0,-1.0,-2.0,4.0,-3.0,2.0,10.0,1650823836614302.0
-2.0,5.0,12.0,11.0,3.0,0.0,-5.0,-8.0,1650823836614302.0
1.0,-6.0,-15.0,-6.0,-4.0,-2.0,7.0,4.0,1650823836615331.0
-4.0,-7.0,-15.0,-9.0,-7.0,-4.0,-6.0,-6.0,1650823836615331.0
1.0,2.0,17.0,3.0,6.0,2.0,-10.0,-12.0,1650823836636313.0
0.0,2.0,4.0,10.0,18.0,4.0,10.0,15.0,1650823836636313.0
-3.0,-5.0,-13.0,-11.0,-22.0,-6.0,0.0,-2.0,1650823836638269.0
4.0,0.0,4.0,2.0,4.0,-2.0,0.0,1.0,1650823836638269.0
3.0,2.0,2.0,6.0,-1.0,1.0,2.0,-2.0,1650823836651273.0
-3.0,1.0,-4.0,-3.0,0.0,0.0,2.0,-9.0,1650823836651273.0
-3.0,-6.0,-1.0,1.0,3.0,4.0,-9.0,-2.0,1650823836658282.0
1.0,2.0,5.0,7.0,7.0,-1.0,4.0,4.0,1650823836658282.0
-6.0,2.0,-4.0,-7.0,-8.0,-3.0,-1.0,-6.0,1650823836673268.0
0.0,-5.0,0.0,-3.0,-4.0,0.0,-1.0,8.0,1650823836673268.0
-1.0,-3.0,-15.0,-7.0,1.0,-2.0,-2.0,0.0,1650823836682254.0
3.0,10.0,14.0,8.0,-5.0,4.0,-2.0,-4.0,1650823836682254.0
-1.0,-12.0,-18.0,-6.0,6.0,2.0,3.0,-1.0,1650823836696338.0
-1.0,2.0,3.0,4.0,-7.0,-2.0,-5.0,-8.0,1650823836696338.0
1.0,-2.0,3.0,-6.0,4.0,1.0,1.0,0.0,1650823836698360.0
-3.0,-3.0,-1.0,1.0,3.0,7.0,1.0,-1.0,1650823836698360.0
0.0,3.0,-4.0,-4.0,-5.0,-11.0,-6.0,-4.0,1650823836719445.0
1.0,0.0,2.0,5.0,-4.0,-1.0,-6.0,10.0,1650823836719445.0
0.0,-7.0,-15.0,-11.0,-5.0,3.0,5.0,0.0,1650823836720444.0
-1.0,3.0,-2.0,5.0,-1.0,-4.0,4.0,-1.0,1650823836720444.0
-1.0,1.0,8.0,4.0,4.0,5.0,2.0,0.0,1650823836733312.0
0.0,-6.0,-7.0,-9.0,-9.0,-10.0,-9.0,2.0,1650823836733312.0
-2.0,0.0,5.0,2.0,1.0,0.0,3.0,-3.0,1650823836741292.0
-5.0,-2.0,-11.0,-3.0,9.0,4.0,7.0,4.0,1650823836741292.0
5.0,2.0,2.0,5.0,-3.0,1.0,-4.0,-6.0,1650823836756966.0
3.0,4.0,4.0,4.0,5.0,-1.0,-1.0,3.0,1650823836756966.0
1.0,4.0,8.0,7.0,11.0,4.0,3.0,9.0,1650823836757896.0
-5.0,-12.0,-16.0,-22.0,-23.0,-10.0,-2.0,2.0,1650823836757896.0
0.0,-1.0,-2.0,-8.0,-2.0,-2.0,-8.0,-11.0,1650823836785743.0
6.0,0.0,-6.0,-5.0,-6.0,-3.0,1.0,1.0,1650823836785743.0
-6.0,8.0,7.0,5.0,1.0,-2.0,-1.0,-5.0,1650823836795645.0
-11.0,0.0,3.0,6.0,6.0,-1.0,0.0,5.0,1650823836795645.0
-4.0,-7.0,3.0,2.0,11.0,8.0,1.0,4.0,1650823836795645.0
-2.0,3.0,6.0,2.0,-15.0,-4.0,2.0,0.0,1650823836795645.0
5.0,1.0,-10.0,-6.0,-6.0,-5.0,-6.0,7.0,1650823836801629.0
17.0,11.0,6.0,2.0,5.0,1.0,-1.0,1.0,1650823836801629.0
-34.0,-16.0,-3.0,-4.0,-4.0,-1.0,7.0,-4.0,1650823836816656.0
-4.0,-7.0,-7.0,0.0,11.0,4.0,-4.0,-3.0,1650823836816656.0
2.0,-3.0,-7.0,6.0,3.0,-4.0,-2.0,-3.0,1650823836818613.0
-1.0,-1.0,-4.0,-11.0,-16.0,-3.0,-7.0,-7.0,1650823836818613.0
8.0,7.0,0.0,-1.0,-6.0,-2.0,3.0,1.0,1650823836839704.0
8.0,4.0,5.0,5.0,6.0,-1.0,5.0,18.0,1650823836839704.0
-6.0,2.0,-5.0,-1.0,1.0,0.0,-1.0,-5.0,1650823836840643.0
-3.0,-13.0,0.0,7.0,17.0,11.0,11.0,-4.0,1650823836840643.0
5.0,1.0,0.0,-3.0,-15.0,-6.0,-8.0,20.0,1650823836852674.0
-9.0,-2.0,-3.0,-14.0,2.0,-6.0,-5.0,-45.0,1650823836852674.0
7.0,5.0,6.0,4.0,-5.0,5.0,-2.0,3.0,1650823836861739.0
3.0,3.0,3.0,6.0,10.0,-3.0,-3.0,-9.0,1650823836861739.0
-2.0,-7.0,-4.0,-5.0,-5.0,-4.0,-3.0,-6.0,1650823836876700.0
1.0,0.0,-5.0,0.0,-3.0,1.0,-1.0,11.0,1650823836876700.0
2.0,2.0,2.0,-3.0,-2.0,-1.0,-2.0,-1.0,1650823836877696.0
-8.0,-8.0,-2.0,-6.0,-5.0,0.0,-1.0,-5.0,1650823836877696.0
3.0,5.0,1.0,4.0,-1.0,-6.0,2.0,2.0,1650823836906687.0
3.0,13.0,15.0,17.0,19.0,12.0,8.0,10.0,1650823836906687.0
1.0,-9.0,-9.0,-7.0,-4.0,0.0,2.0,-1.0,1650823836908615.0
16.0,-7.0,0.0,0.0,-6.0,-2.0,-9.0,3.0,1650823836908615.0
8.0,11.0,-1.0,3.0,3.0,5.0,2.0,-5.0,1650823836912611.0
-5.0,6.0,1.0,-3.0,-1.0,-7.0,2.0,0.0,1650823836912611.0
-5.0,-10.0,-8.0,-7.0,-15.0,-5.0,0.0,-7.0,1650823836921583.0
10.0,19.0,9.0,1.0,11.0,5.0,-10.0,0.0,1650823836921583.0
0.0,-14.0,-16.0,1.0,-4.0,8.0,11.0,6.0,1650823836944589.0
-7.0,-2.0,9.0,-1.0,-1.0,1.0,4.0,13.0,1650823836944589.0
-5.0,-32.0,-22.0,-3.0,6.0,-4.0,-6.0,-9.0,1650823836945519.0
2.0,2.0,0.0,0.0,-4.0,-7.0,-6.0,0.0,1650823836945519.0
4.0,14.0,12.0,1.0,4.0,1.0,4.0,16.0,1650823836959545.0
3.0,9.0,-6.0,-2.0,3.0,3.0,-1.0,-5.0,1650823836959545.0
18.0,22.0,11.0,7.0,-3.0,4.0,6.0,11.0,1650823836960490.0
-21.0,22.0,28.0,5.0,0.0,2.0,11.0,-6.0,1650823836960490.0
39.0,-33.0,-31.0,-1.0,4.0,3.0,3.0,-16.0,1650823836972471.0
-38.0,-47.0,2.0,-7.0,-13.0,-14.0,-28.0,-27.0,1650823836972471.0
21.0,-41.0,-17.0,-12.0,-5.0,-8.0,-6.0,-25.0,1650823836981483.0
-15.0,31.0,38.0,14.0,3.0,3.0,0.0,49.0,1650823836981483.0
-23.0,-21.0,3.0,2.0,7.0,3.0,0.0,-25.0,1650823836996534.0
-16.0,37.0,-11.0,-7.0,-13.0,-10.0,-2.0,-2.0,1650823836996534.0
10.0,-27.0,2.0,1.0,3.0,-4.0,0.0,27.0,1650823836998528.0
32.0,-14.0,-9.0,8.0,8.0,21.0,21.0,-29.0,1650823836998528.0
-22.0,12.0,2.0,-18.0,-14.0,-19.0,-36.0,-49.0,1650823837019538.0
17.0,49.0,15.0,13.0,13.0,22.0,46.0,52.0,1650823837019538.0
-16.0,-57.0,-13.0,-3.0,-8.0,-19.0,-20.0,-10.0,1650823837020479.0
81.0,78.0,11.0,25.0,17.0,14.0,21.0,-5.0,1650823837020479.0
-64.0,-71.0,-3.0,-23.0,-20.0,-27.0,-50.0,-33.0,1650823837041475.0
-51.0,-80.0,-64.0,-31.0,-15.0,-15.0,-25.0,-52.0,1650823837041475.0
9.0,96.0,31.0,4.0,12.0,25.0,41.0,84.0,1650823837043435.0
-6.0,7.0,23.0,28.0,16.0,17.0,20.0,35.0,1650823837043435.0
99.0,85.0,88.0,47.0,29.0,34.0,20.0,45.0,1650823837056372.0
0.0,-30.0,-52.0,-40.0,-19.0,-8.0,33.0,13.0,1650823837056372.0
6.0,94.0,25.0,7.0,-3.0,-8.0,-27.0,-8.0,1650823837058367.0
-51.0,-94.0,-43.0,-21.0,-19.0,-23.0,-12.0,19.0,1650823837058367.0
-25.0,32.0,25.0,14.0,2.0,10.0,26.0,51.0,1650823837079339.0
-32.0,-120.0,-66.0,-25.0,-7.0,-18.0,-61.0,-95.0,1650823837079339.0
-4.0,54.0,32.0,8.0,10.0,17.0,65.0,13.0,1650823837080310.0
5.0,13.0,1.0,-6.0,-15.0,-32.0,-81.0,-57.0,1650823837080310.0
-25.0,37.0,-23.0,-5.0,-13.0,2.0,35.0,39.0,1650823837102023.0
36.0,-7.0,32.0,28.0,8.0,6.0,19.0,43.0,1650823837102023.0
-55.0,18.0,22.0,33.0,33.0,17.0,-31.0,-82.0,1650823837102953.0
-26.0,-91.0,-98.0,-62.0,-27.0,-26.0,-12.0,14.0,1650823837102953.0
-29.0,-3.0,29.0,-5.0,-3.0,4.0,35.0,20.0,1650823837116983.0
10.0,112.0,85.0,19.0,-2.0,4.0,-8.0,-25.0,1650823837116983.0
57.0,-25.0,-51.0,-32.0,-21.0,-14.0,-35.0,9.0,1650823837117919.0
-58.0,-12.0,-27.0,-10.0,-7.0,-3.0,30.0,43.0,1650823837117919.0
93.0,-29.0,5.0,9.0,8.0,-6.0,-6.0,-66.0,1650823837138924.0
39.0,104.0,52.0,26.0,22.0,43.0,23.0,92.0,1650823837138924.0
-59.0,-71.0,17.0,20.0,-5.0,-30.0,-47.0,-97.0,1650823837140853.0
77.0,112.0,18.0,-8.0,16.0,17.0,-21.0,5.0,1650823837140853.0
-72.0,-61.0,-47.0,-37.0,-37.0,-9.0,86.0,97.0,1650823837161796.0
20.0,94.0,123.0,71.0,31.0,0.0,-45.0,-42.0,1650823837161796.0
38.0,35.0,-24.0,-26.0,-12.0,-6.0,-7.0,21.0,1650823837162793.0
-66.0,-6.0,93.0,25.0,-2.0,-6.0,-12.0,-7.0,1650823837162793.0
29.0,104.0,-53.0,-11.0,-15.0,-5.0,22.0,46.0,1650823837175785.0
-49.0,-94.0,-51.0,-22.0,10.0,-8.0,-8.0,-25.0,1650823837175785.0
5.0,0.0,21.0,5.0,7.0,26.0,32.0,16.0,1650823837183339.0
45.0,-13.0,-57.0,-36.0,-1.0,-24.0,-62.0,-78.0,1650823837183339.0
6.0,68.0,53.0,26.0,19.0,8.0,-26.0,-46.0,1650823837198300.0
87.0,-15.0,-43.0,0.0,-6.0,6.0,23.0,65.0,1650823837198300.0
-51.0,19.0,4.0,-7.0,-5.0,-3.0,1.0,-56.0,1650823837206747.0
51.0,-16.0,-15.0,-7.0,-17.0,2.0,42.0,59.0,1650823837206747.0
-28.0,-41.0,-8.0,16.0,14.0,-15.0,-41.0,-52.0,1650823837221507.0
6.0,31.0,-19.0,-30.0,-23.0,-15.0,-1.0,28.0,1650823837221507.0
-22.0,-24.0,-32.0,-10.0,-2.0,6.0,15.0,54.0,1650823837223435.0
49.0,37.0,33.0,24.0,7.0,-1.0,-24.0,-29.0,1650823837223435.0
-85.0,-38.0,-6.0,-1.0,8.0,-6.0,-58.0,-4.0,1650823837235403.0
1.0,27.0,6.0,8.0,5.0,7.0,35.0,1.0,1650823837235403.0
-20.0,-37.0,-40.0,1.0,-2.0,7.0,27.0,85.0,1650823837244378.0
33.0,50.0,-11.0,3.0,-1.0,2.0,30.0,-21.0,1650823837244378.0
-20.0,-83.0,-50.0,-30.0,-11.0,-11.0,-37.0,-45.0,1650823837260337.0
5.0,-15.0,30.0,5.0,-13.0,-13.0,-5.0,-9.0,1650823837260337.0
-26.0,-3.0,-24.0,-4.0,9.0,18.0,23.0,29.0,1650823837262350.0
-7.0,-43.0,19.0,4.0,-3.0,0.0,2.0,15.0,1650823837262350.0
18.0,-19.0,-46.0,12.0,13.0,7.0,17.0,14.0,1650823837281280.0
22.0,24.0,17.0,16.0,0.0,6.0,-22.0,-62.0,1650823837281280.0
21.0,-19.0,10.0,-9.0,-9.0,-14.0,-10.0,14.0,1650823837283275.0
-33.0,-83.0,-33.0,-30.0,-5.0,8.0,18.0,-10.0,1650823837283275.0
96.0,115.0,24.0,9.0,5.0,6.0,-5.0,29.0,1650823837296267.0
-116.0,-114.0,2.0,4.0,0.0,-6.0,12.0,-44.0,1650823837296267.0
58.0,49.0,-12.0,8.0,-1.0,-7.0,-65.0,-19.0,1650823837303248.0
-12.0,27.0,-8.0,6.0,-1.0,15.0,65.0,85.0,1650823837303248.0
66.0,21.0,14.0,-7.0,-3.0,-5.0,5.0,-22.0,1650823837319247.0
18.0,55.0,-27.0,4.0,8.0,12.0,-25.0,28.0,1650823837319247.0
-21.0,7.0,25.0,-2.0,-3.0,-16.0,-14.0,-33.0,1650823837321173.0
16.0,-36.0,32.0,17.0,1.0,-1.0,-2.0,-3.0,1650823837321173.0
-75.0,-38.0,0.0,-18.0,-16.0,6.0,14.0,13.0,1650823837341958.0
34.0,75.0,-11.0,16.0,12.0,-2.0,26.0,44.0,1650823837341958.0
-52.0,-111.0,-14.0,-10.0,4.0,10.0,6.0,-35.0,1650823837342892.0
-42.0,19.0,-41.0,-20.0,-11.0,-11.0,-17.0,-19.0,1650823837342892.0
-15.0,-27.0,46.0,22.0,7.0,8.0,33.0,43.0,1650823837355921.0
26.0,-23.0,-38.0,-27.0,-16.0,-3.0,29.0,9.0,1650823837355921.0
46.0,-1.0,58.0,19.0,-1.0,-8.0,-32.0,-44.0,1650823837362902.0
-43.0,34.0,-51.0,-7.0,6.0,13.0,9.0,4.0,1650823837362902.0
-35.0,34.0,-5.0,-19.0,-17.0,-16.0,-25.0,11.0,1650823837379000.0
-13.0,-62.0,16.0,-3.0,3.0,3.0,15.0,9.0,1650823837379000.0
6.0,33.0,-25.0,4.0,1.0,-2.0,-4.0,-2.0,1650823837380969.0
-20.0,-72.0,14.0,5.0,-1.0,-14.0,-26.0,-56.0,1650823837380969.0
56.0,91.0,16.0,18.0,14.0,27.0,39.0,14.0,1650823837401978.0
-72.0,-70.0,-22.0,-27.0,-16.0,-17.0,6.0,10.0,1650823837401978.0
-8.0,17.0,6.0,6.0,3.0,-12.0,-21.0,-14.0,1650823837402911.0
25.0,51.0,24.0,16.0,11.0,15.0,-7.0,15.0,1650823837402911.0
3.0,-25.0,0.0,-4.0,4.0,-1.0,10.0,28.0,1650823837415941.0
20.0,-32.0,-20.0,-9.0,-28.0,-26.0,-50.0,-35.0,1650823837415941.0
14.0,102.0,75.0,17.0,8.0,11.0,52.0,56.0,1650823837422883.0
21.0,79.0,49.0,31.0,7.0,4.0,11.0,-23.0,1650823837422883.0
-36.0,-98.0,-84.0,-60.0,0.0,3.0,-27.0,-57.0,1650823837439054.0
1.0,51.0,14.0,-14.0,5.0,3.0,17.0,52.0,1650823837439054.0
42.0,5.0,-18.0,-9.0,-11.0,-2.0,0.0,20.0,1650823837440980.0
78.0,60.0,69.0,29.0,8.0,16.0,17.0,35.0,1650823837440980.0
-79.0,-40.0,-18.0,4.0,-3.0,-13.0,-27.0,-58.0,1650823837461923.0
11.0,-2.0,-14.0,-4.0,-11.0,-8.0,-24.0,-32.0,1650823837461923.0
-2.0,20.0,3.0,-3.0,3.0,5.0,27.0,-17.0,1650823837463919.0
-38.0,-35.0,-28.0,-16.0,-9.0,-23.0,-30.0,-15.0,1650823837463919.0
20.0,3.0,28.0,3.0,-7.0,-13.0,-9.0,-22.0,1650823837474937.0
33.0,70.0,2.0,4.0,11.0,14.0,4.0,27.0,1650823837474937.0
-3.0,-38.0,-13.0,6.0,-1.0,-5.0,5.0,-29.0,1650823837483921.0
-121.0,-89.0,9.0,-6.0,-9.0,-15.0,5.0,1.0,1650823837483921.0
24.0,14.0,8.0,11.0,4.0,-1.0,-35.0,-2.0,1650823837499900.0
-1.0,-26.0,-24.0,-9.0,3.0,4.0,-24.0,6.0,1650823837499900.0
-4.0,37.0,9.0,-8.0,-8.0,-6.0,26.0,62.0,1650823837500882.0
8.0,41.0,25.0,14.0,11.0,16.0,11.0,16.0,1650823837500882.0
-6.0,-65.0,-50.0,-22.0,-9.0,-13.0,-21.0,-24.0,1650823837521844.0
3.0,35.0,19.0,2.0,-5.0,-1.0,18.0,5.0,1650823837521844.0
-11.0,4.0,-15.0,-16.0,-2.0,6.0,-9.0,-47.0,1650823837522811.0
6.0,-23.0,-40.0,-22.0,-11.0,-5.0,-12.0,-26.0,1650823837522811.0
107.0,127.0,58.0,26.0,21.0,16.0,16.0,36.0,1650823837534780.0
-72.0,-15.0,-7.0,9.0,11.0,10.0,-12.0,-41.0,1650823837534780.0
42.0,32.0,-16.0,-19.0,-19.0,-12.0,28.0,51.0,1650823837544753.0
-29.0,44.0,-2.0,12.0,11.0,5.0,-19.0,-11.0,1650823837544753.0
30.0,60.0,24.0,12.0,8.0,0.0,0.0,-14.0,1650823837558828.0
0.0,-47.0,10.0,-1.0,3.0,11.0,17.0,74.0,1650823837558828.0
-53.0,-69.0,-11.0,1.0,-2.0,-26.0,-79.0,-86.0,1650823837560800.0
13.0,-42.0,-17.0,-12.0,-12.0,-3.0,-2.0,-6.0,1650823837560800.0
-10.0,15.0,1.0,-2.0,-2.0,-7.0,1.0,-75.0,1650823837581855.0
17.0,0.0,3.0,0.0,-5.0,7.0,18.0,39.0,1650823837581855.0
-48.0,-24.0,-1.0,-7.0,-4.0,-7.0,-29.0,-58.0,1650823837582786.0
-30.0,-79.0,-5.0,-13.0,-10.0,-10.0,-3.0,9.0,1650823837582786.0
19.0,16.0,-8.0,21.0,7.0,13.0,14.0,25.0,1650823837595127.0
0.0,1.0,-14.0,-7.0,13.0,3.0,-10.0,-46.0,1650823837595127.0
0.0,-84.0,-13.0,-14.0,-9.0,4.0,24.0,44.0,1650823837604043.0
13.0,54.0,-6.0,16.0,18.0,15.0,-7.0,-49.0,1650823837604043.0
-37.0,-4.0,-12.0,-3.0,-1.0,13.0,18.0,33.0,1650823837619157.0
-3.0,6.0,16.0,-4.0,-7.0,-16.0,4.0,-5.0,1650823837619157.0
21.0,65.0,11.0,15.0,8.0,17.0,1.0,-8.0,1650823837621111.0
21.0,60.0,10.0,2.0,-2.0,-9.0,26.0,60.0,1650823837621111.0
-21.0,-73.0,11.0,-3.0,-17.0,-22.0,-12.0,-19.0,1650823837642178.0
33.0,28.0,-38.0,-1.0,2.0,-4.0,-18.0,-32.0,1650823837642178.0
-9.0,-5.0,8.0,8.0,12.0,17.0,16.0,38.0,1650823837643175.0
48.0,44.0,26.0,0.0,-5.0,0.0,21.0,-5.0,1650823837643175.0
17.0,25.0,28.0,11.0,1.0,-5.0,-40.0,-24.0,1650823837655223.0
-38.0,-45.0,-80.0,-39.0,-20.0,-14.0,-4.0,-34.0,1650823837655223.0
29.0,-43.0,-13.0,-10.0,-6.0,-3.0,18.0,36.0,1650823837663844.0
-22.0,-57.0,-13.0,8.0,5.0,8.0,-11.0,9.0,1650823837663844.0
-4.0,3.0,49.0,14.0,-1.0,-3.0,2.0,15.0,1650823837679016.0
2.0,7.0,5.0,-29.0,-12.0,-11.0,-17.0,-8.0,1650823837679016.0
16.0,56.0,3.0,12.0,3.0,10.0,12.0,4.0,1650823837680978.0
40.0,-16.0,-33.0,-33.0,-7.0,-4.0,2.0,7.0,1650823837680978.0
9.0,-40.0,15.0,27.0,12.0,11.0,17.0,22.0,1650823837701957.0
-1.0,41.0,18.0,6.0,-5.0,-7.0,7.0,10.0,1650823837701957.0
-24.0,-64.0,-21.0,-13.0,-7.0,-10.0,-34.0,-28.0,1650823837702889.0
39.0,69.0,14.0,10.0,-2.0,4.0,19.0,2.0,1650823837702889.0
30.0,-36.0,-41.0,-15.0,0.0,-14.0,-42.0,11.0,1650823837714941.0
-50.0,-76.0,23.0,11.0,-6.0,-21.0,-50.0,-80.0,1650823837714941.0
-15.0,7.0,-2.0,2.0,1.0,2.0,7.0,9.0,1650823837723948.0
13.0,18.0,-16.0,9.0,9.0,8.0,-2.0,11.0,1650823837723948.0
4.0,56.0,9.0,-11.0,-4.0,7.0,22.0,47.0,1650823837739042.0
-1.0,-40.0,3.0,7.0,6.0,14.0,14.0,14.0,1650823837739042.0
40.0,18.0,15.0,13.0,-3.0,-3.0,-4.0,8.0,1650823837741031.0
-41.0,-51.0,-43.0,-28.0,-9.0,-8.0,-1.0,8.0,1650823837741031.0
-2.0,86.0,7.0,-1.0,3.0,5.0,32.0,23.0,1650823837761973.0
21.0,1.0,6.0,7.0,0.0,3.0,7.0,22.0,1650823837761973.0
54.0,4.0,23.0,10.0,5.0,10.0,16.0,0.0,1650823837762943.0
-70.0,16.0,15.0,5.0,5.0,0.0,15.0,14.0,1650823837762943.0
38.0,-34.0,-15.0,-12.0,-12.0,-4.0,-4.0,-16.0,1650823837776011.0
19.0,65.0,22.0,14.0,4.0,6.0,13.0,8.0,1650823837776011.0
18.0,19.0,8.0,3.0,-2.0,-8.0,-4.0,-1.0,1650823837783951.0
-13.0,35.0,2.0,-5.0,-3.0,0.0,-21.0,-49.0,1650823837783951.0
-14.0,1.0,-25.0,-7.0,3.0,4.0,7.0,33.0,1650823837799280.0
63.0,1.0,27.0,13.0,-1.0,-1.0,10.0,-14.0,1650823837799280.0
-99.0,-50.0,-24.0,4.0,4.0,-4.0,-12.0,-36.0,1650823837800310.0
13.0,-32.0,16.0,-12.0,-8.0,-5.0,3.0,-13.0,1650823837800310.0
-33.0,-11.0,-1.0,2.0,6.0,13.0,0.0,4.0,1650823837822126.0
40.0,57.0,24.0,16.0,3.0,0.0,12.0,41.0,1650823837822126.0
12.0,104.0,31.0,35.0,16.0,12.0,32.0,40.0,1650823837823108.0
-40.0,-126.0,-76.0,-31.0,3.0,-1.0,-12.0,-24.0,1650823837823108.0
-18.0,-28.0,-26.0,-42.0,-22.0,-14.0,-19.0,-34.0,1650823837835645.0
19.0,42.0,5.0,-2.0,-2.0,4.0,-2.0,8.0,1650823837835645.0
46.0,39.0,22.0,12.0,13.0,3.0,-10.0,-7.0,1650823837844555.0
11.0,-11.0,1.0,22.0,3.0,22.0,39.0,42.0,1650823837844555.0
13.0,10.0,27.0,18.0,0.0,-12.0,13.0,9.0,1650823837859660.0
-31.0,14.0,-22.0,-15.0,-5.0,-1.0,-7.0,-18.0,1650823837859660.0
19.0,-1.0,-31.0,-24.0,-16.0,-16.0,-16.0,-16.0,1650823837860638.0
7.0,-44.0,17.0,7.0,-1.0,-1.0,-16.0,17.0,1650823837860638.0
-8.0,-15.0,-18.0,-8.0,3.0,0.0,37.0,18.0,1650823837881576.0
6.0,53.0,26.0,17.0,5.0,9.0,-2.0,-55.0,1650823837881576.0
-47.0,-55.0,-19.0,-10.0,-7.0,-23.0,-58.0,-49.0,1650823837883569.0
30.0,60.0,19.0,-7.0,-7.0,-7.0,-4.0,13.0,1650823837883569.0
-24.0,-6.0,5.0,5.0,1.0,1.0,-27.0,-32.0,1650823837895728.0
7.0,-11.0,-3.0,8.0,3.0,5.0,23.0,42.0,1650823837895728.0
-9.0,5.0,-5.0,-11.0,5.0,19.0,51.0,42.0,1650823837904641.0
14.0,-2.0,5.0,23.0,-2.0,-13.0,-41.0,-49.0,1650823837904641.0
25.0,14.0,-22.0,-20.0,10.0,9.0,8.0,26.0,1650823837919642.0
-45.0,-27.0,20.0,-3.0,0.0,-8.0,-1.0,5.0,1650823837919642.0
49.0,75.0,34.0,-3.0,-8.0,4.0,9.0,24.0,1650823837920612.0
-56.0,-96.0,0.0,-7.0,-5.0,-3.0,13.0,6.0,1650823837920612.0
-18.0,-7.0,-28.0,-13.0,-15.0,-13.0,-31.0,-65.0,1650823837941573.0
24.0,-11.0,-14.0,1.0,7.0,9.0,-8.0,3.0,1650823837941573.0
-35.0,-2.0,7.0,-13.0,-12.0,-20.0,-24.0,-19.0,1650823837943557.0
33.0,38.0,14.0,26.0,16.0,24.0,45.0,14.0,1650823837943557.0
-18.0,-1.0,5.0,14.0,3.0,-9.0,-11.0,8.0,1650823837963510.0
38.0,-25.0,-10.0,-4.0,1.0,-3.0,-5.0,21.0,1650823837963510.0
-53.0,-81.0,-23.0,-3.0,-1.0,1.0,-16.0,-44.0,1650823837971461.0
34.0,62.0,11.0,-8.0,-2.0,-2.0,-11.0,23.0,1650823837971461.0
-5.0,-8.0,-3.0,-1.0,-3.0,2.0,8.0,-16.0,1650823837979469.0
3.0,33.0,13.0,10.0,5.0,14.0,36.0,52.0,1650823837979469.0
-7.0,27.0,24.0,14.0,9.0,1.0,6.0,-6.0,1650823837980438.0
-36.0,11.0,-1.0,-14.0,-17.0,-18.0,-24.0,1.0,1650823837980438.0
3.0,10.0,-16.0,2.0,26.0,11.0,9.0,7.0,1650823838001462.0
-38.0,29.0,9.0,-13.0,-21.0,-18.0,-12.0,0.0,1650823838001462.0
17.0,-13.0,-26.0,-14.0,-3.0,1.0,2.0,-1.0,1650823838003453.0
22.0,56.0,25.0,13.0,6.0,2.0,5.0,5.0,1650823838003453.0
2.0,1.0,50.0,18.0,-8.0,-9.0,-38.0,-61.0,1650823838024464.0
-6.0,-6.0,-7.0,11.0,8.0,4.0,17.0,14.0,1650823838024464.0
25.0,12.0,0.0,8.0,15.0,19.0,24.0,12.0,1650823838025406.0
-10.0,31.0,0.0,-12.0,-12.0,-32.0,-49.0,-38.0,1650823838025406.0
12.0,-34.0,-12.0,0.0,-4.0,9.0,32.0,48.0,1650823838038664.0
-45.0,-68.0,-33.0,-10.0,2.0,-3.0,-10.0,-1.0,1650823838038664.0
44.0,53.0,5.0,0.0,-3.0,3.0,8.0,-27.0,1650823838040658.0
-52.0,-106.0,3.0,0.0,-7.0,-20.0,-19.0,-41.0,1650823838040658.0
56.0,63.0,19.0,11.0,0.0,16.0,29.0,74.0,1650823838061801.0
-3.0,-50.0,-45.0,-11.0,6.0,-7.0,-24.0,-54.0,1650823838061801.0
-39.0,-21.0,-10.0,-6.0,-8.0,-15.0,-25.0,-15.0,1650823838063729.0
36.0,43.0,-9.0,5.0,8.0,17.0,29.0,36.0,1650823838063729.0
-47.0,-42.0,-34.0,-22.0,-16.0,-10.0,-8.0,-5.0,1650823838084691.0
-3.0,26.0,31.0,1.0,-8.0,-3.0,-2.0,7.0,1650823838084691.0
21.0,10.0,8.0,-2.0,3.0,7.0,4.0,20.0,1650823838085669.0
-13.0,25.0,3.0,16.0,21.0,12.0,13.0,3.0,1650823838085669.0
-27.0,-38.0,15.0,16.0,5.0,-2.0,2.0,-1.0,1650823838098635.0
30.0,15.0,24.0,19.0,11.0,9.0,17.0,12.0,1650823838098635.0
-2.0,17.0,0.0,-8.0,-4.0,-1.0,-11.0,12.0,1650823838105615.0
-22.0,-28.0,-2.0,-10.0,-9.0,-4.0,20.0,0.0,1650823838105615.0
49.0,31.0,-12.0,1.0,13.0,7.0,-18.0,6.0,1650823838121641.0
-35.0,-2.0,-1.0,3.0,-3.0,-6.0,-8.0,-9.0,1650823838121641.0
28.0,-57.0,-8.0,-2.0,-2.0,-6.0,4.0,11.0,1650823838123595.0
111.0,105.0,28.0,18.0,13.0,28.0,29.0,23.0,1650823838123595.0
-83.0,11.0,-42.0,-5.0,-2.0,-11.0,-43.0,-90.0,1650823838144538.0
-83.0,-104.0,-27.0,-29.0,-18.0,-25.0,-52.0,-50.0,1650823838144538.0
-25.0,5.0,10.0,2.0,-7.0,-3.0,8.0,13.0,1650823838145511.0
20.0,48.0,16.0,12.0,6.0,13.0,-2.0,9.0,1650823838145511.0
43.0,1.0,7.0,-3.0,1.0,3.0,27.0,29.0,1650823838158502.0
32.0,26.0,-24.0,-13.0,3.0,8.0,5.0,2.0,1650823838158502.0
6.0,6.0,-10.0,-12.0,-10.0,-6.0,-3.0,-3.0,1650823838165460.0
-45.0,-48.0,-18.0,-2.0,-4.0,-10.0,-8.0,6.0,1650823838165460.0
55.0,70.0,57.0,26.0,-16.0,6.0,30.0,29.0,1650823838181552.0
-14.0,0.0,13.0,-14.0,20.0,-2.0,-17.0,-7.0,1650823838181552.0
-14.0,-54.0,-43.0,-20.0,-22.0,-10.0,5.0,35.0,1650823838183521.0
5.0,-1.0,-9.0,-14.0,-6.0,-2.0,-9.0,1.0,1650823838183521.0
-25.0,-27.0,21.0,13.0,10.0,20.0,55.0,15.0,1650823838202975.0
83.0,125.0,36.0,20.0,1.0,0.0,-23.0,14.0,1650823838202975.0
-21.0,-77.0,-1.0,8.0,12.0,6.0,34.0,40.0,1650823838211458.0
6.0,1.0,-3.0,-6.0,-5.0,-9.0,-24.0,-43.0,1650823838211458.0
-25.0,-9.0,-12.0,-14.0,-13.0,-17.0,-46.0,-39.0,1650823838218453.0
64.0,-3.0,-26.0,4.0,-1.0,8.0,33.0,49.0,1650823838218453.0
-27.0,-19.0,9.0,11.0,15.0,6.0,-3.0,-24.0,1650823838226541.0
-32.0,-46.0,-42.0,-29.0,-20.0,-16.0,-27.0,-19.0,1650823838226541.0
43.0,-5.0,19.0,2.0,8.0,7.0,8.0,18.0,1650823838241997.0
-36.0,-31.0,6.0,6.0,-1.0,3.0,14.0,-8.0,1650823838241997.0
22.0,32.0,-14.0,-14.0,-3.0,0.0,-9.0,-3.0,1650823838243921.0
14.0,-6.0,22.0,5.0,-4.0,6.0,9.0,7.0,1650823838243921.0
-5.0,3.0,-28.0,-5.0,3.0,-8.0,-19.0,-21.0,1650823838263755.0
16.0,-21.0,7.0,3.0,1.0,9.0,16.0,7.0,1650823838263755.0
-59.0,15.0,-9.0,3.0,2.0,-5.0,-8.0,20.0,1650823838265724.0
33.0,49.0,19.0,3.0,-1.0,3.0,20.0,-40.0,1650823838265724.0
-36.0,47.0,-8.0,-20.0,-10.0,-12.0,-22.0,-22.0,1650823838278716.0
-33.0,-2.0,38.0,23.0,10.0,17.0,17.0,13.0,1650823838278716.0
25.0,-27.0,-41.0,-11.0,-4.0,-4.0,20.0,71.0,1650823838285737.0
-28.0,-37.0,-19.0,-6.0,-2.0,-12.0,-27.0,-66.0,1650823838285737.0
-9.0,-12.0,1.0,5.0,0.0,-2.0,-18.0,-7.0,1650823838301691.0
30.0,58.0,5.0,-1.0,-1.0,7.0,-6.0,1.0,1650823838301691.0
-19.0,-46.0,17.0,6.0,4.0,1.0,15.0,10.0,1650823838303645.0
4.0,5.0,-8.0,7.0,7.0,1.0,18.0,47.0,1650823838303645.0
-17.0,-48.0,-6.0,-10.0,-7.0,-3.0,10.0,-23.0,1650823838331609.0
-4.0,-8.0,-24.0,-15.0,-11.0,-7.0,-14.0,10.0,1650823838331609.0
32.0,41.0,9.0,7.0,0.0,1.0,7.0,-23.0,1650823838333551.0
-9.0,-19.0,-1.0,6.0,2.0,-2.0,-15.0,19.0,1650823838333551.0
23.0,17.0,8.0,0.0,9.0,8.0,4.0,12.0,1650823838338527.0
-28.0,-76.0,-30.0,-12.0,-5.0,-5.0,19.0,1.0,1650823838338527.0
0.0,20.0,9.0,0.0,-5.0,1.0,-24.0,-23.0,1650823838345509.0
3.0,16.0,20.0,2.0,0.0,-6.0,3.0,1.0,1650823838345509.0
31.0,30.0,-2.0,3.0,-2.0,-1.0,-3.0,7.0,1650823838361668.0
-53.0,-34.0,0.0,6.0,-1.0,-6.0,-2.0,-28.0,1650823838361668.0
12.0,17.0,-11.0,-5.0,1.0,-2.0,12.0,-9.0,1650823838363635.0
16.0,-7.0,-1.0,-2.0,6.0,20.0,8.0,21.0,1650823838363635.0
-6.0,-17.0,-9.0,-2.0,0.0,-8.0,27.0,70.0,1650823838384148.0
4.0,22.0,-1.0,-7.0,-10.0,-10.0,-93.0,-69.0,1650823838384148.0
6.0,16.0,19.0,10.0,5.0,-4.0,4.0,-20.0,1650823838386169.0
-1.0,-2.0,-3.0,1.0,3.0,1.0,40.0,33.0,1650823838386169.0
-6.0,-7.0,-3.0,1.0,2.0,2.0,-8.0,-15.0,1650823838398138.0
6.0,10.0,9.0,4.0,-7.0,-6.0,16.0,-10.0,1650823838398138.0
-4.0,6.0,8.0,1.0,4.0,8.0,-21.0,-10.0,1650823838405126.0
0.0,4.0,-3.0,-3.0,-2.0,1.0,7.0,0.0,1650823838405126.0
-11.0,-21.0,1.0,1.0,1.0,5.0,3.0,-1.0,1650823838422109.0
0.0,1.0,-13.0,3.0,5.0,-6.0,14.0,10.0,1650823838422109.0
10.0,2.0,-3.0,-14.0,-20.0,-7.0,-16.0,-20.0,1650823838423046.0
-12.0,0.0,2.0,4.0,-1.0,1.0,-2.0,9.0,1650823838423046.0
-6.0,-9.0,18.0,20.0,-3.0,-5.0,-9.0,-9.0,1650823838444491.0
7.0,3.0,-9.0,-22.0,-1.0,3.0,2.0,13.0,1650823838444491.0
2.0,13.0,-8.0,-10.0,-3.0,2.0,12.0,1.0,1650823838445420.0
-11.0,-8.0,-2.0,-4.0,7.0,1.0,-14.0,-8.0,1650823838445420.0
-9.0,-9.0,26.0,3.0,-1.0,-4.0,-7.0,-3.0,1650823838457452.0
15.0,12.0,6.0,7.0,-5.0,-4.0,18.0,15.0,1650823838457452.0
6.0,3.0,8.0,11.0,6.0,7.0,1.0,27.0,1650823838466465.0
-3.0,0.0,15.0,21.0,4.0,-4.0,-17.0,-73.0,1650823838466465.0
-36.0,-12.0,-24.0,-19.0,-1.0,0.0,-8.0,-43.0,1650823838481489.0
8.0,8.0,15.0,10.0,3.0,3.0,6.0,-5.0,1650823838481489.0
-18.0,-14.0,-60.0,-47.0,-14.0,-9.0,-12.0,-40.0,1650823838489412.0
30.0,3.0,2.0,15.0,4.0,2.0,-5.0,17.0,1650823838489412.0
-15.0,-8.0,-20.0,-8.0,-2.0,-2.0,11.0,25.0,1650823838504702.0
-6.0,1.0,-4.0,-14.0,-3.0,1.0,5.0,-1.0,1650823838504702.0
-7.0,-1.0,11.0,4.0,1.0,-1.0,-3.0,4.0,1650823838505701.0
2.0,6.0,-5.0,4.0,2.0,0.0,2.0,18.0,1650823838505701.0
-2.0,-2.0,1.0,-6.0,-4.0,-1.0,0.0,-11.0,1650823838517684.0
-3.0,0.0,-4.0,-1.0,-7.0,-1.0,6.0,13.0,1650823838517684.0
7.0,-1.0,1.0,8.0,10.0,5.0,-7.0,-1.0,1650823838526664.0
-9.0,3.0,7.0,-4.0,-9.0,-10.0,-2.0,14.0,1650823838526664.0
8.0,-7.0,-8.0,8.0,3.0,3.0,4.0,26.0,1650823838541982.0
-4.0,2.0,2.0,-7.0,-1.0,-3.0,-6.0,-42.0,1650823838541982.0
16.0,7.0,12.0,10.0,3.0,-3.0,-1.0,-25.0,1650823838542910.0
-8.0,0.0,10.0,13.0,5.0,6.0,-6.0,-4.0,1650823838542910.0
6.0,-5.0,-48.0,-27.0,5.0,4.0,6.0,30.0,1650823838564643.0
-3.0,-7.0,-16.0,-25.0,-8.0,-3.0,-2.0,-15.0,1650823838564643.0
11.0,7.0,21.0,5.0,0.0,0.0,-1.0,11.0,1650823838565641.0
-4.0,7.0,-1.0,-5.0,3.0,1.0,-2.0,7.0,1650823838565641.0
2.0,6.0,30.0,26.0,-7.0,-7.0,-3.0,-9.0,1650823838577608.0
20.0,-2.0,-16.0,-2.0,-2.0,1.0,1.0,20.0,1650823838577608.0
-11.0,2.0,5.0,3.0,1.0,-3.0,-2.0,0.0,1650823838586585.0
-18.0,2.0,-7.0,-6.0,-1.0,3.0,1.0,8.0,1650823838586585.0
13.0,11.0,28.0,8.0,4.0,5.0,2.0,11.0,1650823838600555.0
4.0,-1.0,1.0,11.0,3.0,0.0,2.0,1.0,1650823838600555.0
0.0,10.0,18.0,12.0,2.0,0.0,1.0,2.0,1650823838609523.0
1.0,-7.0,-15.0,-10.0,-4.0,-1.0,1.0,16.0,1650823838609523.0
5.0,4.0,3.0,8.0,2.0,-2.0,-5.0,-10.0,1650823838624563.0
-10.0,-9.0,6.0,1.0,-5.0,-2.0,3.0,6.0,1650823838624563.0
7.0,28.0,16.0,15.0,7.0,3.0,2.0,2.0,1650823838625566.0
-13.0,-25.0,-17.0,-30.0,-8.0,-5.0,-5.0,-9.0,1650823838625566.0
1.0,-15.0,1.0,-8.0,3.0,-2.0,-5.0,-14.0,1650823838637603.0
-3.0,-2.0,-21.0,-30.0,-23.0,-9.0,-4.0,4.0,1650823838637603.0
1.0,7.0,15.0,20.0,13.0,7.0,12.0,11.0,1650823838646531.0
5.0,4.0,5.0,21.0,13.0,7.0,1.0,-1.0,1650823838646531.0
-3.0,-4.0,8.0,1.0,-4.0,-3.0,-2.0,-10.0,1650823838661472.0
-5.0,-14.0,-14.0,-10.0,3.0,-2.0,-4.0,-5.0,1650823838661472.0
1.0,-8.0,-2.0,1.0,-7.0,-4.0,-1.0,1.0,1650823838663468.0
-2.0,20.0,11.0,-12.0,-12.0,-7.0,-7.0,-3.0,1650823838663468.0
3.0,-6.0,2.0,0.0,-1.0,0.0,2.0,-7.0,1650823838683920.0
-1.0,10.0,10.0,21.0,9.0,7.0,5.0,8.0,1650823838683920.0
-4.0,-9.0,-17.0,-14.0,-1.0,2.0,0.0,-2.0,1650823838685901.0
1.0,1.0,5.0,10.0,4.0,0.0,0.0,-3.0,1650823838685901.0
-3.0,-7.0,-7.0,-8.0,-9.0,-4.0,-2.0,0.0,1650823838697896.0
4.0,23.0,13.0,9.0,2.0,-4.0,0.0,3.0,1650823838697896.0
5.0,17.0,24.0,0.0,2.0,6.0,-1.0,1.0,1650823838706845.0
-3.0,8.0,12.0,-1.0,-3.0,0.0,2.0,3.0,1650823838706845.0
2.0,-4.0,-12.0,12.0,6.0,2.0,0.0,0.0,1650823838721864.0
-1.0,13.0,24.0,8.0,2.0,3.0,4.0,4.0,1650823838721864.0
0.0,-16.0,-22.0,-25.0,-15.0,-13.0,-7.0,-1.0,1650823838722802.0
-2.0,0.0,-1.0,-4.0,-10.0,-4.0,0.0,-2.0,1650823838722802.0
2.0,10.0,-8.0,-11.0,-7.0,5.0,2.0,-1.0,1650823838744036.0
2.0,5.0,17.0,29.0,18.0,4.0,2.0,3.0,1650823838744036.0
-4.0,0.0,9.0,6.0,13.0,3.0,4.0,2.0,1650823838746003.0
1.0,-17.0,-24.0,-13.0,-3.0,-3.0,-3.0,-2.0,1650823838746003.0
3.0,13.0,-17.0,-7.0,-5.0,-3.0,-2.0,-1.0,1650823838758034.0
1.0,1.0,14.0,8.0,-4.0,2.0,1.0,4.0,1650823838758034.0
1.0,-6.0,-18.0,-2.0,-4.0,-1.0,-3.0,-1.0,1650823838766948.0
-7.0,-31.0,-17.0,-10.0,7.0,0.0,-2.0,-5.0,1650823838766948.0
0.0,7.0,12.0,-1.0,-13.0,-4.0,0.0,-2.0,1650823838783079.0
1.0,-1.0,-3.0,7.0,1.0,4.0,2.0,0.0,1650823838783079.0
-4.0,-7.0,-13.0,-3.0,2.0,-3.0,0.0,-3.0,1650823838785086.0
10.0,13.0,19.0,13.0,11.0,12.0,5.0,4.0,1650823838785086.0
-10.0,-20.0,-12.0,-13.0,-5.0,-5.0,-4.0,-3.0,1650823838804569.0
-3.0,0.0,-22.0,-4.0,2.0,-1.0,-4.0,0.0,1650823838804569.0
0.0,3.0,18.0,13.0,-5.0,-2.0,-1.0,0.0,1650823838806074.0
-6.0,-2.0,-12.0,-27.0,-14.0,-6.0,-2.0,-3.0,1650823838806074.0
-2.0,-17.0,-5.0,1.0,9.0,6.0,-1.0,-2.0,1650823838818015.0
2.0,8.0,7.0,0.0,-4.0,-1.0,3.0,3.0,1650823838818015.0
0.0,-4.0,-4.0,2.0,1.0,2.0,-1.0,-2.0,1650823838826991.0
2.0,-2.0,-13.0,4.0,-5.0,-7.0,-4.0,2.0,1650823838826991.0
-1.0,-6.0,-2.0,-3.0,-2.0,-2.0,2.0,-1.0,1650823838841979.0
0.0,-1.0,14.0,9.0,3.0,2.0,-1.0,-2.0,1650823838841979.0
-4.0,-6.0,-8.0,-11.0,4.0,3.0,1.0,-2.0,1650823838842986.0
-1.0,-5.0,-6.0,-4.0,-11.0,-3.0,0.0,1.0,1650823838842986.0
1.0,0.0,10.0,2.0,7.0,3.0,2.0,0.0,1650823838864044.0
1.0,14.0,15.0,7.0,5.0,3.0,4.0,2.0,1650823838864044.0
5.0,8.0,8.0,8.0,19.0,7.0,0.0,3.0,1650823838866012.0
-9.0,-21.0,-6.0,-10.0,-19.0,-11.0,-2.0,-3.0,1650823838866012.0
1.0,10.0,6.0,-2.0,-3.0,-3.0,-3.0,1.0,1650823838886961.0
1.0,-8.0,-15.0,-7.0,-6.0,-5.0,-1.0,0.0,1650823838886961.0
0.0,8.0,28.0,2.0,-2.0,4.0,-1.0,0.0,1650823838888917.0
2.0,7.0,-6.0,2.0,7.0,1.0,2.0,0.0,1650823838888917.0
4.0,9.0,26.0,8.0,0.0,-1.0,1.0,1.0,1650823838901859.0
-3.0,-12.0,9.0,3.0,3.0,4.0,0.0,-2.0,1650823838901859.0
-3.0,-2.0,-25.0,-13.0,-10.0,-5.0,-3.0,-1.0,1650823838902857.0
1.0,5.0,18.0,7.0,-1.0,-3.0,-4.0,0.0,1650823838902857.0
-4.0,-8.0,-3.0,-7.0,-2.0,1.0,-1.0,-3.0,1650823838923827.0
1.0,-12.0,-33.0,-5.0,5.0,0.0,0.0,1.0,1650823838923827.0
1.0,-6.0,-7.0,3.0,-6.0,-5.0,1.0,2.0,1650823838925796.0
-2.0,-4.0,-1.0,1.0,2.0,4.0,-2.0,-5.0,1650823838925796.0
-1.0,3.0,-2.0,4.0,9.0,0.0,1.0,0.0,1650823838946789.0
-1.0,2.0,13.0,2.0,4.0,4.0,0.0,-1.0,1650823838946789.0
-5.0,-16.0,-17.0,-3.0,-6.0,-4.0,-3.0,-3.0,1650823838948757.0
0.0,2.0,0.0,-4.0,0.0,-3.0,0.0,-1.0,1650823838948757.0
-3.0,-13.0,-16.0,-12.0,-8.0,-3.0,-4.0,-1.0,1650823838961749.0
-2.0,-5.0,-4.0,-3.0,9.0,3.0,2.0,0.0,1650823838961749.0
-2.0,-2.0,7.0,5.0,-12.0,-1.0,-1.0,-2.0,1650823838963716.0
2.0,-3.0,1.0,5.0,2.0,-4.0,1.0,4.0,1650823838963716.0
3.0,32.0,23.0,5.0,2.0,2.0,0.0,-1.0,1650823838984660.0
-1.0,-3.0,0.0,-5.0,-3.0,-3.0,-3.0,-4.0,1650823838984660.0
5.0,-3.0,4.0,7.0,2.0,-1.0,2.0,1.0,1650823838985658.0
-6.0,-19.0,-14.0,-3.0,5.0,3.0,-2.0,-2.0,1650823838985658.0
-3.0,-3.0,-5.0,3.0,-7.0,6.0,2.0,0.0,1650823839006743.0
-1.0,-1.0,-5.0,-3.0,-2.0,-6.0,0.0,2.0,1650823839006743.0
3.0,10.0,14.0,7.0,2.0,0.0,1.0,1.0,1650823839008697.0
-1.0,-2.0,-14.0,-6.0,4.0,2.0,-2.0,0.0,1650823839008697.0
0.0,-19.0,-20.0,-9.0,-10.0,-7.0,-4.0,-2.0,1650823839020724.0
-3.0,-4.0,14.0,0.0,3.0,6.0,0.0,-4.0,1650823839020724.0
-1.0,2.0,-5.0,2.0,0.0,2.0,-1.0,1.0,1650823839035453.0
-3.0,-3.0,-16.0,-5.0,9.0,2.0,0.0,-1.0,1650823839035453.0
3.0,2.0,2.0,12.0,1.0,-1.0,-1.0,-1.0,1650823839044629.0
-1.0,-1.0,-8.0,-13.0,-7.0,-5.0,-3.0,-1.0,1650823839044629.0
-2.0,1.0,-6.0,-11.0,-4.0,-7.0,-4.0,-1.0,1650823839045571.0
2.0,5.0,9.0,5.0,5.0,6.0,1.0,-1.0,1650823839045571.0
-2.0,9.0,8.0,6.0,12.0,8.0,1.0,-1.0,1650823839066664.0
2.0,-2.0,0.0,6.0,-6.0,-4.0,-3.0,1.0,1650823839066664.0
-4.0,-8.0,-12.0,-8.0,2.0,3.0,2.0,-2.0,1650823839068685.0
3.0,26.0,3.0,0.0,-11.0,-5.0,1.0,2.0,1650823839068685.0
-5.0,-25.0,-4.0,-4.0,-2.0,-6.0,-3.0,-2.0,1650823839081624.0
0.0,-1.0,-2.0,3.0,1.0,8.0,1.0,0.0,1650823839081624.0
-1.0,1.0,0.0,-4.0,-2.0,-8.0,-4.0,-4.0,1650823839087674.0
1.0,4.0,9.0,-3.0,-5.0,-1.0,-3.0,0.0,1650823839087674.0
-1.0,1.0,-19.0,-4.0,0.0,-1.0,-1.0,0.0,1650823839104655.0
-1.0,11.0,-4.0,-3.0,0.0,-3.0,1.0,0.0,1650823839104655.0
2.0,-4.0,2.0,3.0,-1.0,2.0,0.0,2.0,1650823839105623.0
-1.0,-8.0,-5.0,-2.0,-2.0,-1.0,1.0,-3.0,1650823839105623.0
3.0,13.0,5.0,2.0,-1.0,-3.0,-3.0,3.0,1650823839126814.0
-2.0,9.0,0.0,0.0,-1.0,0.0,0.0,-2.0,1650823839126814.0
0.0,3.0,-4.0,-10.0,0.0,3.0,1.0,-2.0,1650823839127775.0
2.0,5.0,6.0,7.0,-1.0,-3.0,-3.0,0.0,1650823839127775.0
2.0,6.0,2.0,2.0,1.0,1.0,-1.0,1.0,1650823839140850.0
-3.0,-9.0,5.0,-8.0,-5.0,-1.0,1.0,-1.0,1650823839140850.0
-3.0,-5.0,6.0,5.0,-7.0,-8.0,2.0,1.0,1650823839147901.0
1.0,-1.0,-2.0,-2.0,4.0,1.0,1.0,0.0,1650823839147901.0
-1.0,-4.0,-8.0,-6.0,-1.0,0.0,0.0,1.0,1650823839164666.0
-1.0,-4.0,0.0,2.0,7.0,0.0,-3.0,-2.0,1650823839164666.0
-1.0,-4.0,-3.0,4.0,-7.0,-2.0,-1.0,0.0,1650823839166683.0
-2.0,2.0,10.0,-1.0,5.0,5.0,2.0,1.0,1650823839166683.0
-1.0,0.0,-2.0,0.0,-4.0,-4.0,0.0,-1.0,1650823839186721.0
1.0,2.0,1.0,-6.0,-4.0,-8.0,-4.0,-2.0,1650823839186721.0
-1.0,-9.0,-10.0,-1.0,-1.0,1.0,-3.0,0.0,1650823839188718.0
-1.0,-3.0,-12.0,5.0,0.0,-4.0,-1.0,0.0,1650823839188718.0
-1.0,11.0,3.0,-4.0,-1.0,1.0,1.0,-1.0,1650823839200685.0
-1.0,-18.0,-13.0,-4.0,0.0,5.0,0.0,1.0,1650823839200685.0
1.0,11.0,11.0,7.0,2.0,1.0,2.0,1.0,1650823839207733.0
1.0,3.0,-6.0,0.0,-1.0,-2.0,1.0,0.0,1650823839207733.0
-2.0,-11.0,-21.0,-17.0,0.0,0.0,-1.0,-1.0,1650823839224622.0
-1.0,-2.0,-3.0,-3.0,-10.0,-6.0,1.0,2.0,1650823839224622.0
-1.0,4.0,-1.0,0.0,1.0,-1.0,-3.0,-2.0,1650823839225618.0
3.0,-1.0,1.0,-3.0,-5.0,0.0,-3.0,1.0,1650823839225618.0
0.0,-1.0,5.0,6.0,17.0,8.0,3.0,1.0,1650823839246741.0
1.0,13.0,11.0,10.0,1.0,8.0,4.0,2.0,1650823839246741.0
-1.0,2.0,5.0,2.0,-1.0,-5.0,0.0,0.0,1650823839248696.0
4.0,14.0,13.0,2.0,3.0,-3.0,-2.0,0.0,1650823839248696.0
-4.0,-6.0,4.0,-15.0,-26.0,-12.0,-4.0,-4.0,1650823839260707.0
-4.0,-2.0,-3.0,4.0,2.0,4.0,0.0,1.0,1650823839260707.0
-1.0,-5.0,2.0,-1.0,5.0,1.0,0.0,-2.0,1650823839267622.0
1.0,4.0,-4.0,3.0,2.0,2.0,1.0,0.0,1650823839267622.0
-1.0,-15.0,-12.0,0.0,2.0,2.0,1.0,-1.0,1650823839284582.0
1.0,-1.0,-3.0,-6.0,-6.0,-9.0,-4.0,-1.0,1650823839284582.0
-1.0,3.0,2.0,-2.0,-5.0,1.0,0.0,1.0,1650823839285574.0
-3.0,-5.0,0.0,2.0,5.0,2.0,-1.0,-1.0,1650823839285574.0
0.0,2.0,6.0,7.0,-1.0,-3.0,2.0,1.0,1650823839306816.0
2.0,7.0,4.0,2.0,0.0,0.0,0.0,-1.0,1650823839306816.0
-3.0,-8.0,-23.0,-4.0,5.0,5.0,-1.0,0.0,1650823839308743.0
-4.0,-8.0,-6.0,-20.0,-5.0,-1.0,-1.0,-4.0,1650823839308743.0
-5.0,-3.0,-8.0,1.0,0.0,-3.0,-1.0,-2.0,1650823839320783.0
3.0,4.0,0.0,5.0,0.0,-2.0,0.0,1.0,1650823839320783.0
1.0,4.0,9.0,5.0,2.0,3.0,1.0,0.0,1650823839327759.0
-3.0,-19.0,-14.0,-2.0,-2.0,4.0,0.0,-1.0,1650823839327759.0
-1.0,2.0,-1.0,-4.0,-8.0,-6.0,-5.0,0.0,1650823839343684.0
-1.0,-5.0,-5.0,-6.0,8.0,-4.0,-3.0,-1.0,1650823839343684.0
0.0,-3.0,-3.0,0.0,-9.0,2.0,-3.0,-3.0,1650823839345674.0
-3.0,3.0,3.0,4.0,-2.0,-3.0,5.0,0.0,1650823839345674.0
2.0,2.0,8.0,15.0,8.0,-3.0,-1.0,2.0,1650823839366647.0
-2.0,-6.0,-3.0,-5.0,-5.0,-3.0,-2.0,0.0,1650823839366647.0
-1.0,-3.0,-3.0,-2.0,1.0,2.0,1.0,0.0,1650823839368619.0
0.0,7.0,7.0,-1.0,-1.0,0.0,-3.0,-1.0,1650823839368619.0
0.0,-2.0,-8.0,-6.0,-5.0,0.0,0.0,-1.0,1650823839380609.0
2.0,-4.0,2.0,-3.0,5.0,5.0,2.0,1.0,1650823839380609.0
-3.0,-7.0,-3.0,3.0,9.0,6.0,1.0,-1.0,1650823839389557.0
0.0,-9.0,-6.0,-5.0,-5.0,-3.0,-1.0,-1.0,1650823839389557.0
0.0,10.0,8.0,-1.0,-4.0,-4.0,-1.0,1.0,1650823839404516.0
-3.0,-7.0,-10.0,2.0,-3.0,-1.0,-1.0,-2.0,1650823839404516.0
1.0,1.0,8.0,0.0,-2.0,0.0,2.0,0.0,1650823839405515.0
3.0,8.0,9.0,6.0,3.0,0.0,1.0,3.0,1650823839405515.0
0.0,2.0,0.0,-2.0,1.0,1.0,-2.0,-3.0,1650823839426523.0
1.0,-5.0,-11.0,0.0,-1.0,1.0,3.0,2.0,1650823839426523.0
0.0,4.0,8.0,-1.0,-2.0,-4.0,-2.0,0.0,1650823839428480.0
1.0,6.0,4.0,5.0,0.0,-2.0,-2.0,0.0,1650823839428480.0
0.0,-2.0,6.0,-3.0,1.0,5.0,1.0,1.0,1650823839449515.0
-1.0,3.0,7.0,-2.0,6.0,0.0,-3.0,-3.0,1650823839449515.0
0.0,-1.0,-7.0,2.0,-12.0,-5.0,1.0,1.0,1650823839451511.0
-3.0,-3.0,0.0,4.0,4.0,2.0,2.0,-2.0,1650823839451511.0
-3.0,-8.0,-3.0,-5.0,4.0,-1.0,-1.0,-3.0,1650823839464543.0
-1.0,-1.0,-3.0,0.0,-4.0,-6.0,0.0,-2.0,1650823839464543.0
3.0,3.0,3.0,7.0,4.0,5.0,2.0,3.0,1650823839465483.0
-3.0,-1.0,3.0,-6.0,-3.0,-2.0,-1.0,-4.0,1650823839465483.0
-2.0,0.0,1.0,-1.0,2.0,3.0,0.0,-1.0,1650823839486484.0
0.0,1.0,2.0,1.0,-3.0,-2.0,-1.0,0.0,1650823839486484.0
0.0,3.0,6.0,-7.0,-4.0,-6.0,-2.0,-1.0,1650823839488412.0
3.0,3.0,0.0,4.0,2.0,5.0,1.0,2.0,1650823839488412.0
-2.0,-2.0,4.0,-1.0,-1.0,-2.0,-1.0,0.0,1650823839500450.0
-1.0,5.0,0.0,-5.0,-7.0,-6.0,-4.0,1.0,1650823839500450.0
-5.0,-1.0,2.0,1.0,-2.0,1.0,-2.0,-4.0,1650823839509357.0
-3.0,-7.0,-7.0,-1.0,-4.0,-5.0,-2.0,-3.0,1650823839509357.0
-1.0,1.0,6.0,14.0,8.0,3.0,4.0,0.0,1650823839524599.0
-1.0,-3.0,1.0,-6.0,2.0,1.0,1.0,0.0,1650823839524599.0
1.0,-1.0,-1.0,-1.0,10.0,2.0,-4.0,-2.0,1650823839525596.0
0.0,-1.0,-3.0,-4.0,-7.0,2.0,2.0,0.0,1650823839525596.0
-2.0,-5.0,-18.0,-7.0,-1.0,4.0,-2.0,-2.0,1650823839547039.0
2.0,2.0,6.0,-2.0,-27.0,-13.0,-2.0,-1.0,1650823839547039.0
0.0,5.0,3.0,15.0,21.0,10.0,8.0,2.0,1650823839548007.0
-3.0,-18.0,-6.0,0.0,9.0,4.0,-4.0,-3.0,1650823839548007.0
-1.0,-3.0,13.0,-7.0,-6.0,-5.0,-2.0,-2.0,1650823839561038.0
0.0,-2.0,-5.0,-1.0,2.0,4.0,0.0,-2.0,1650823839561038.0
-1.0,-5.0,-13.0,-18.0,-17.0,-13.0,-5.0,-2.0,1650823839568950.0
-4.0,3.0,1.0,4.0,-4.0,-5.0,0.0,1.0,1650823839568950.0
2.0,5.0,1.0,9.0,1.0,4.0,5.0,2.0,1650823839584038.0
-5.0,-12.0,-1.0,-10.0,0.0,0.0,-2.0,-1.0,1650823839584038.0
-1.0,-6.0,-13.0,0.0,-5.0,-2.0,-4.0,-1.0,1650823839586004.0
0.0,-3.0,-6.0,-11.0,-2.0,1.0,0.0,-1.0,1650823839586004.0
1.0,0.0,-2.0,2.0,-4.0,-7.0,-3.0,1.0,1650823839606947.0
1.0,3.0,5.0,11.0,3.0,-1.0,3.0,-2.0,1650823839606947.0
-3.0,-2.0,-4.0,-8.0,2.0,-1.0,0.0,-1.0,1650823839608941.0
1.0,3.0,7.0,6.0,3.0,1.0,-2.0,0.0,1650823839608941.0
2.0,-2.0,-10.0,-8.0,-6.0,1.0,-1.0,0.0,1650823839619979.0
-2.0,-3.0,-12.0,-1.0,-4.0,-1.0,-1.0,-1.0,1650823839619979.0
-1.0,-3.0,2.0,1.0,-1.0,-3.0,-2.0,-2.0,1650823839628936.0
-1.0,4.0,-3.0,-4.0,-8.0,-6.0,-2.0,0.0,1650823839628936.0
4.0,7.0,13.0,10.0,17.0,9.0,2.0,0.0,1650823839643739.0
-3.0,1.0,1.0,0.0,-5.0,-4.0,0.0,0.0,1650823839643739.0
2.0,0.0,5.0,5.0,3.0,4.0,5.0,0.0,1650823839652809.0
-6.0,-35.0,-35.0,-4.0,0.0,-4.0,-6.0,-3.0,1650823839652809.0
1.0,8.0,8.0,3.0,-6.0,-3.0,-4.0,-1.0,1650823839666834.0
1.0,0.0,-5.0,1.0,4.0,4.0,0.0,0.0,1650823839666834.0
-4.0,-5.0,0.0,-3.0,-7.0,-2.0,0.0,-1.0,1650823839667767.0
2.0,11.0,9.0,6.0,1.0,2.0,3.0,2.0,1650823839667767.0
1.0,-3.0,-6.0,-4.0,-5.0,-8.0,-4.0,0.0,1650823839680731.0
0.0,-2.0,-2.0,-2.0,1.0,3.0,-1.0,-3.0,1650823839680731.0
4.0,1.0,-2.0,-1.0,2.0,2.0,2.0,1.0,1650823839689710.0
2.0,11.0,16.0,1.0,0.0,-5.0,0.0,0.0,1650823839689710.0
-4.0,-7.0,-6.0,3.0,1.0,4.0,2.0,-2.0,1650823839704678.0
2.0,11.0,13.0,10.0,9.0,4.0,2.0,4.0,1650823839704678.0
-3.0,-3.0,-8.0,-9.0,-4.0,-4.0,-4.0,-3.0,1650823839705666.0
2.0,5.0,5.0,2.0,-17.0,-6.0,-3.0,-2.0,1650823839705666.0
-2.0,0.0,1.0,-4.0,0.0,1.0,2.0,-2.0,1650823839726774.0
-5.0,-6.0,-10.0,5.0,21.0,11.0,5.0,2.0,1650823839726774.0
0.0,4.0,6.0,-1.0,-10.0,-4.0,0.0,0.0,1650823839728707.0
0.0,2.0,2.0,-2.0,-2.0,-8.0,-5.0,-2.0,1650823839728707.0
0.0,0.0,-1.0,-4.0,-12.0,-8.0,-2.0,0.0,1650823839740740.0
-1.0,0.0,11.0,5.0,4.0,0.0,-3.0,-3.0,1650823839740740.0
-1.0,2.0,-6.0,-3.0,-4.0,3.0,0.0,0.0,1650823839749676.0
-1.0,6.0,3.0,-2.0,1.0,1.0,5.0,5.0,1650823839749676.0
-1.0,-5.0,2.0,7.0,7.0,1.0,-1.0,-20.0,1650823839764608.0
1.0,1.0,3.0,-4.0,-1.0,-1.0,-3.0,1.0,1650823839764608.0
-2.0,-7.0,-18.0,-8.0,-4.0,-3.0,-7.0,-3.0,1650823839765606.0
1.0,1.0,6.0,4.0,4.0,3.0,4.0,1.0,1650823839765606.0
-1.0,0.0,-3.0,-4.0,-4.0,-3.0,0.0,3.0,1650823839786555.0
-3.0,-3.0,-2.0,4.0,5.0,-5.0,-2.0,-1.0,1650823839786555.0
-1.0,-4.0,5.0,0.0,2.0,4.0,0.0,-2.0,1650823839788575.0
-1.0,-2.0,-29.0,-5.0,8.0,9.0,4.0,0.0,1650823839788575.0
-2.0,-7.0,-1.0,-4.0,0.0,-1.0,-2.0,1.0,1650823839800577.0
-1.0,-4.0,0.0,-10.0,-12.0,-2.0,-2.0,-3.0,1650823839800577.0
1.0,6.0,11.0,8.0,-3.0,-1.0,1.0,1.0,1650823839809489.0
0.0,2.0,11.0,8.0,4.0,-8.0,-4.0,-3.0,1650823839809489.0
0.0,3.0,-4.0,-8.0,-6.0,2.0,1.0,6.0,1650823839824518.0
0.0,0.0,-1.0,3.0,8.0,2.0,-1.0,-1.0,1650823839824518.0
-1.0,-4.0,-6.0,-7.0,-7.0,-2.0,-1.0,-1.0,1650823839825449.0
0.0,4.0,6.0,1.0,-1.0,6.0,0.0,-1.0,1650823839825449.0
-3.0,-2.0,11.0,4.0,-4.0,-8.0,-2.0,0.0,1650823839846420.0
-2.0,5.0,2.0,-1.0,-3.0,-1.0,-1.0,-2.0,1650823839846420.0
0.0,0.0,3.0,5.0,12.0,6.0,4.0,1.0,1650823839848435.0
0.0,0.0,1.0,-4.0,-3.0,-3.0,-2.0,-2.0,1650823839848435.0
-1.0,-10.0,-11.0,-1.0,-5.0,1.0,0.0,3.0,1650823839869371.0
1.0,-3.0,-2.0,-3.0,-1.0,0.0,1.0,-1.0,1650823839869371.0
-2.0,2.0,4.0,0.0,-1.0,-7.0,-1.0,-1.0,1650823839870366.0
0.0,-4.0,-4.0,-3.0,2.0,0.0,-2.0,-3.0,1650823839870366.0
0.0,1.0,-3.0,2.0,0.0,0.0,1.0,1.0,1650823839884471.0
0.0,-2.0,-4.0,-5.0,-8.0,-1.0,0.0,0.0,1650823839884471.0
0.0,-3.0,1.0,6.0,2.0,-2.0,-2.0,-1.0,1650823839885404.0
-1.0,-3.0,-5.0,-8.0,0.0,1.0,0.0,0.0,1650823839885404.0
0.0,2.0,-3.0,-1.0,3.0,1.0,0.0,3.0,1650823839906415.0
-1.0,2.0,-5.0,4.0,-9.0,-5.0,-2.0,-2.0,1650823839906415.0
0.0,1.0,2.0,-12.0,11.0,0.0,-2.0,-1.0,1650823839908353.0
-2.0,-2.0,9.0,-3.0,-13.0,-2.0,3.0,-2.0,1650823839908353.0
4.0,6.0,11.0,9.0,9.0,0.0,3.0,3.0,1650823839929493.0
-4.0,-1.0,6.0,6.0,-1.0,5.0,3.0,3.0,1650823839929493.0
-4.0,-5.0,-11.0,-1.0,0.0,-4.0,1.0,9.0,1650823839930426.0
6.0,3.0,11.0,7.0,-2.0,-1.0,0.0,-4.0,1650823839930426.0
14.0,-2.0,-12.0,-12.0,-8.0,0.0,-7.0,2.0,1650823839944481.0
-18.0,-4.0,1.0,2.0,-1.0,-7.0,-3.0,-4.0,1650823839944481.0
-11.0,0.0,11.0,-1.0,-4.0,1.0,24.0,0.0,1650823839945473.0
4.0,3.0,3.0,-7.0,2.0,-2.0,-27.0,-6.0,1650823839945473.0
5.0,2.0,3.0,15.0,1.0,1.0,-1.0,5.0,1650823839966616.0
-12.0,-37.0,-18.0,-13.0,-3.0,-4.0,-7.0,-14.0,1650823839966616.0
25.0,19.0,25.0,16.0,11.0,17.0,43.0,52.0,1650823839968584.0
-3.0,3.0,-24.0,10.0,-11.0,-4.0,-5.0,11.0,1650823839968584.0
-34.0,-18.0,-7.0,-22.0,-9.0,-30.0,-7.0,3.0,1650823839996573.0
36.0,-31.0,-16.0,-3.0,-4.0,-9.0,-75.0,-80.0,1650823839996573.0
14.0,42.0,-1.0,4.0,-1.0,9.0,21.0,11.0,1650823840004515.0
-10.0,10.0,-2.0,3.0,-1.0,-7.0,-21.0,8.0,1650823840004515.0
74.0,8.0,-3.0,8.0,2.0,29.0,45.0,18.0,1650823840004515.0
-44.0,-4.0,-2.0,-24.0,-11.0,-16.0,20.0,33.0,1650823840004515.0
-56.0,-50.0,9.0,23.0,1.0,-18.0,-71.0,-124.0,1650823840010472.0
43.0,24.0,-23.0,-22.0,-5.0,4.0,-11.0,34.0,1650823840010472.0
-11.0,-1.0,4.0,21.0,19.0,16.0,-26.0,34.0,1650823840026999.0
30.0,29.0,-10.0,-27.0,-19.0,-20.0,17.0,21.0,1650823840026999.0
41.0,12.0,27.0,8.0,3.0,9.0,71.0,57.0,1650823840028009.0
9.0,-1.0,-4.0,4.0,11.0,20.0,17.0,33.0,1650823840028009.0
-4.0,9.0,9.0,18.0,10.0,1.0,-1.0,-26.0,1650823840048992.0
-5.0,91.0,95.0,35.0,22.0,25.0,-10.0,24.0,1650823840048992.0
-8.0,-11.0,-8.0,-17.0,-20.0,-22.0,-36.0,-35.0,1650823840050960.0
-31.0,-28.0,-7.0,-16.0,-16.0,-30.0,-3.0,-34.0,1650823840050960.0
20.0,9.0,5.0,16.0,0.0,5.0,34.0,-1.0,1650823840063946.0
17.0,6.0,1.0,4.0,5.0,16.0,11.0,30.0,1650823840063946.0
-9.0,-22.0,-73.0,-13.0,5.0,1.0,-75.0,-6.0,1650823840069937.0
-11.0,29.0,67.0,4.0,2.0,3.0,-6.0,-9.0,1650823840069937.0
-22.0,3.0,-18.0,-41.0,-23.0,-20.0,-16.0,-76.0,1650823840086864.0
-25.0,-11.0,-32.0,-16.0,-4.0,5.0,30.0,5.0,1650823840086864.0
31.0,29.0,8.0,9.0,8.0,4.0,-26.0,-22.0,1650823840087862.0
-15.0,-27.0,-16.0,21.0,-1.0,-4.0,2.0,-15.0,1650823840087862.0
-26.0,-25.0,14.0,17.0,8.0,2.0,-9.0,35.0,1650823840109389.0
47.0,3.0,-35.0,-31.0,-1.0,15.0,40.0,19.0,1650823840109389.0
-19.0,13.0,17.0,-9.0,0.0,1.0,38.0,78.0,1650823840110345.0
-33.0,-57.0,-5.0,16.0,5.0,-10.0,-62.0,-110.0,1650823840110345.0
-3.0,31.0,6.0,-12.0,-13.0,-6.0,0.0,25.0,1650823840123319.0
15.0,73.0,72.0,8.0,0.0,11.0,48.0,38.0,1650823840123319.0
-13.0,-3.0,-11.0,2.0,-2.0,-10.0,-15.0,3.0,1650823840132309.0
10.0,12.0,-44.0,-20.0,-2.0,-5.0,7.0,-10.0,1650823840132309.0
-24.0,-40.0,-57.0,-28.0,0.0,4.0,31.0,3.0,1650823840146747.0
-1.0,6.0,-10.0,2.0,-5.0,-2.0,-45.0,20.0,1650823840146747.0
-20.0,14.0,-2.0,-12.0,7.0,5.0,19.0,5.0,1650823840147717.0
-11.0,-23.0,30.0,4.0,-10.0,-13.0,-32.0,-31.0,1650823840147717.0
21.0,11.0,-5.0,18.0,2.0,-3.0,-9.0,-28.0,1650823840169659.0
-12.0,-75.0,-75.0,-7.0,-1.0,-12.0,-14.0,-23.0,1650823840169659.0
-9.0,2.0,32.0,-14.0,-9.0,8.0,37.0,17.0,1650823840170657.0
21.0,74.0,7.0,-19.0,3.0,6.0,27.0,46.0,1650823840170657.0
9.0,11.0,29.0,26.0,14.0,11.0,-7.0,14.0,1650823840184654.0
2.0,8.0,22.0,28.0,7.0,-1.0,7.0,-6.0,1650823840184654.0
5.0,-9.0,-6.0,8.0,-8.0,-4.0,-16.0,3.0,1650823840191601.0
9.0,-16.0,-39.0,-29.0,-4.0,1.0,20.0,29.0,1650823840191601.0
-13.0,8.0,-1.0,-17.0,-15.0,-8.0,1.0,-16.0,1650823840206427.0
4.0,1.0,17.0,22.0,12.0,6.0,-5.0,33.0,1650823840206427.0
-12.0,-20.0,7.0,9.0,6.0,-7.0,-47.0,-66.0,1650823840208355.0
9.0,28.0,9.0,15.0,6.0,9.0,5.0,-42.0,1650823840208355.0
-52.0,-31.0,-3.0,-2.0,-5.0,-9.0,6.0,-9.0,1650823840229593.0
46.0,3.0,-1.0,-13.0,-11.0,-10.0,6.0,31.0,1650823840229593.0
-18.0,-44.0,-41.0,13.0,7.0,9.0,-10.0,-5.0,1650823840230560.0
2.0,24.0,30.0,7.0,3.0,10.0,34.0,67.0,1650823840230560.0
-2.0,26.0,4.0,-12.0,-11.0,-18.0,-53.0,-69.0,1650823840243528.0
-14.0,25.0,48.0,26.0,6.0,4.0,6.0,-32.0,1650823840243528.0
-3.0,-39.0,-36.0,0.0,9.0,4.0,7.0,8.0,1650823840250537.0
48.0,14.0,36.0,9.0,8.0,12.0,25.0,56.0,1650823840250537.0
-15.0,-37.0,-4.0,-12.0,-2.0,0.0,-7.0,15.0,1650823840274473.0
-5.0,-18.0,-21.0,3.0,-4.0,-9.0,20.0,18.0,1650823840274473.0
19.0,40.0,-12.0,-23.0,-17.0,-12.0,-13.0,-6.0,1650823840275442.0
-24.0,-22.0,12.0,10.0,-2.0,-5.0,-6.0,-10.0,1650823840275442.0
15.0,9.0,29.0,21.0,17.0,10.0,14.0,11.0,1650823840289425.0
-16.0,-1.0,-38.0,-22.0,-9.0,-7.0,-28.0,-33.0,1650823840289425.0
19.0,30.0,34.0,23.0,0.0,3.0,25.0,22.0,1650823840290402.0
-13.0,-17.0,4.0,-2.0,2.0,11.0,10.0,-7.0,1650823840290402.0
21.0,-6.0,8.0,2.0,5.0,-3.0,-49.0,-51.0,1650823840303368.0
-20.0,-14.0,-40.0,-8.0,4.0,2.0,20.0,25.0,1650823840303368.0
-1.0,13.0,-4.0,-14.0,-15.0,-6.0,31.0,-12.0,1650823840310369.0
5.0,-8.0,-26.0,12.0,8.0,1.0,-36.0,-17.0,1650823840310369.0
-12.0,-20.0,-30.0,-23.0,0.0,-1.0,26.0,48.0,1650823840326327.0
19.0,10.0,15.0,-10.0,-5.0,1.0,36.0,15.0,1650823840326327.0
-35.0,-44.0,-11.0,10.0,7.0,1.0,-37.0,16.0,1650823840328322.0
-14.0,-7.0,-36.0,-9.0,-6.0,-5.0,18.0,-14.0,1650823840328322.0
25.0,36.0,40.0,20.0,-11.0,1.0,-4.0,4.0,1650823840349346.0
-2.0,-36.0,-13.0,-22.0,-4.0,0.0,3.0,-25.0,1650823840349346.0
14.0,32.0,31.0,-10.0,0.0,-2.0,-10.0,2.0,1650823840350285.0
6.0,36.0,35.0,17.0,7.0,7.0,21.0,40.0,1650823840350285.0
-19.0,-45.0,2.0,28.0,10.0,1.0,6.0,7.0,1650823840363287.0
-9.0,0.0,5.0,15.0,-2.0,-7.0,-29.0,-34.0,1650823840363287.0
4.0,33.0,-24.0,-47.0,-20.0,-2.0,-1.0,6.0,1650823840372269.0
-8.0,-31.0,14.0,-20.0,-2.0,-3.0,8.0,-20.0,1650823840372269.0
24.0,43.0,-6.0,-16.0,-10.0,-9.0,-3.0,47.0,1650823840387187.0
-44.0,-1.0,39.0,45.0,15.0,17.0,13.0,6.0,1650823840387187.0
16.0,-11.0,1.0,-3.0,1.0,-9.0,7.0,39.0,1650823840388196.0
-8.0,16.0,-31.0,-7.0,4.0,1.0,-30.0,-26.0,1650823840388196.0
3.0,-4.0,8.0,-3.0,-2.0,3.0,-7.0,-8.0,1650823840409183.0
-6.0,-5.0,0.0,3.0,3.0,-6.0,-30.0,-56.0,1650823840409183.0
14.0,-14.0,-5.0,8.0,-4.0,2.0,21.0,-5.0,1650823840411122.0
-3.0,-28.0,-23.0,-19.0,-9.0,3.0,29.0,21.0,1650823840411122.0
-6.0,17.0,-2.0,4.0,3.0,-5.0,-22.0,12.0,1650823840423313.0
-8.0,-1.0,-12.0,-16.0,0.0,-1.0,-7.0,-8.0,1650823840423313.0
12.0,-17.0,-6.0,-15.0,-5.0,-5.0,-6.0,-20.0,1650823840431912.0
10.0,-7.0,3.0,8.0,-9.0,-4.0,14.0,25.0,1650823840431912.0
4.0,36.0,23.0,2.0,4.0,5.0,25.0,-13.0,1650823840446669.0
11.0,0.0,22.0,18.0,22.0,3.0,-28.0,-4.0,1650823840446669.0
7.0,23.0,-5.0,-9.0,-5.0,8.0,21.0,15.0,1650823840448626.0
16.0,7.0,1.0,7.0,8.0,5.0,-6.0,-33.0,1650823840448626.0
-38.0,-33.0,-48.0,-45.0,-6.0,3.0,1.0,4.0,1650823840469560.0
6.0,45.0,23.0,3.0,-12.0,-12.0,20.0,24.0,1650823840469560.0
-17.0,-12.0,15.0,29.0,6.0,-8.0,-34.0,7.0,1650823840470540.0
-2.0,36.0,0.0,-3.0,-5.0,-1.0,-3.0,-58.0,1650823840470540.0
36.0,65.0,16.0,5.0,7.0,-1.0,-50.0,-15.0,1650823840482575.0
-22.0,-40.0,-34.0,7.0,5.0,3.0,-5.0,-34.0,1650823840482575.0
-3.0,25.0,40.0,19.0,2.0,1.0,14.0,-4.0,1650823840491504.0
-16.0,-8.0,-8.0,-17.0,-15.0,-15.0,-17.0,34.0,1650823840491504.0
-6.0,-39.0,-27.0,-9.0,-5.0,5.0,23.0,9.0,1650823840506671.0
15.0,-3.0,-4.0,25.0,10.0,11.0,15.0,18.0,1650823840506671.0
30.0,25.0,45.0,50.0,17.0,8.0,-18.0,-9.0,1650823840508628.0
-26.0,-13.0,-72.0,-78.0,-21.0,-14.0,-8.0,3.0,1650823840508628.0
6.0,12.0,-5.0,-24.0,-12.0,-5.0,32.0,33.0,1650823840529232.0
-13.0,2.0,19.0,-13.0,-16.0,-11.0,-31.0,-64.0,1650823840529232.0
-6.0,-65.0,-2.0,38.0,16.0,6.0,35.0,12.0,1650823840531257.0
8.0,3.0,3.0,2.0,8.0,9.0,-1.0,-27.0,1650823840531257.0
20.0,33.0,31.0,13.0,12.0,7.0,-6.0,6.0,1650823840551742.0
-1.0,9.0,5.0,-10.0,-9.0,-2.0,-6.0,13.0,1650823840551742.0
15.0,-2.0,-11.0,-6.0,3.0,7.0,32.0,19.0,1650823840553675.0
-20.0,-10.0,45.0,49.0,20.0,1.0,41.0,-8.0,1650823840553675.0
-26.0,-48.0,-59.0,-36.0,-21.0,-9.0,-42.0,-11.0,1650823840566640.0
38.0,3.0,-1.0,-9.0,-7.0,-13.0,-12.0,-8.0,1650823840566640.0
-42.0,9.0,16.0,5.0,-1.0,1.0,10.0,-31.0,1650823840568659.0
17.0,17.0,3.0,-4.0,-2.0,-2.0,33.0,17.0,1650823840568659.0
-2.0,-79.0,-67.0,27.0,16.0,14.0,-36.0,2.0,1650823840588791.0
-8.0,22.0,14.0,-69.0,-14.0,-10.0,-23.0,-43.0,1650823840588791.0
-1.0,-3.0,-40.0,-46.0,-16.0,-6.0,-1.0,3.0,1650823840590722.0
4.0,-24.0,23.0,32.0,0.0,-1.0,-6.0,16.0,1650823840590722.0
-2.0,10.0,15.0,17.0,12.0,5.0,19.0,-15.0,1650823840602756.0
-2.0,-60.0,-52.0,-16.0,-13.0,-5.0,2.0,25.0,1650823840602756.0
8.0,18.0,-7.0,-14.0,-6.0,-6.0,-8.0,-4.0,1650823840611467.0
-1.0,31.0,17.0,10.0,3.0,3.0,-30.0,8.0,1650823840611467.0
7.0,-4.0,33.0,13.0,7.0,4.0,16.0,-13.0,1650823840626532.0
-18.0,-32.0,-49.0,-1.0,2.0,0.0,13.0,28.0,1650823840626532.0
16.0,-25.0,-13.0,-9.0,0.0,1.0,5.0,-1.0,1650823840628527.0
24.0,31.0,34.0,42.0,10.0,11.0,5.0,-22.0,1650823840628527.0
-36.0,-17.0,-18.0,-30.0,-15.0,-11.0,46.0,18.0,1650823840649626.0
-38.0,14.0,30.0,-4.0,-5.0,2.0,-3.0,28.0,1650823840649626.0
7.0,-5.0,-2.0,3.0,-1.0,-5.0,-3.0,-2.0,1650823840650588.0
12.0,-5.0,-5.0,10.0,10.0,2.0,-16.0,33.0,1650823840650588.0
6.0,11.0,35.0,35.0,5.0,6.0,12.0,-7.0,1650823840671703.0
2.0,-38.0,-27.0,-38.0,-11.0,3.0,20.0,13.0,1650823840671703.0
-2.0,37.0,-11.0,-26.0,5.0,7.0,-18.0,37.0,1650823840673636.0
-22.0,-34.0,4.0,-17.0,-7.0,-3.0,-2.0,-27.0,1650823840673636.0
12.0,38.0,21.0,11.0,-8.0,-8.0,-1.0,1.0,1650823840686645.0
15.0,18.0,19.0,28.0,3.0,-3.0,-3.0,7.0,1650823840686645.0
-3.0,-1.0,24.0,24.0,7.0,14.0,-8.0,-5.0,1650823840688638.0
7.0,-1.0,-3.0,2.0,0.0,-4.0,-2.0,13.0,1650823840688638.0
-10.0,-32.0,-29.0,-3.0,3.0,-1.0,5.0,-14.0,1650823840709442.0
20.0,-10.0,13.0,8.0,5.0,-4.0,16.0,-5.0,1650823840709442.0
-45.0,-13.0,-16.0,-20.0,-8.0,-7.0,-27.0,-56.0,1650823840710434.0
-2.0,-20.0,-11.0,8.0,-1.0,1.0,12.0,14.0,1650823840710434.0
-18.0,-15.0,-5.0,2.0,2.0,5.0,10.0,11.0,1650823840722472.0
17.0,32.0,8.0,12.0,0.0,-3.0,-26.0,-10.0,1650823840722472.0
-3.0,-32.0,-23.0,6.0,-7.0,-3.0,50.0,26.0,1650823840739472.0
-7.0,-8.0,-22.0,-1.0,1.0,-5.0,-48.0,-32.0,1650823840739472.0
-13.0,-6.0,13.0,-14.0,1.0,-1.0,-1.0,-6.0,1650823840746515.0
3.0,-31.0,-37.0,-5.0,-5.0,0.0,-26.0,-2.0,1650823840746515.0
3.0,19.0,50.0,32.0,-1.0,-5.0,-21.0,-23.0,1650823840748469.0
11.0,-4.0,-47.0,-26.0,-8.0,1.0,6.0,-1.0,1650823840748469.0
36.0,52.0,49.0,15.0,-1.0,-6.0,21.0,61.0,1650823840769497.0
-41.0,-13.0,-10.0,-25.0,-1.0,-7.0,-25.0,-85.0,1650823840769497.0
10.0,9.0,-3.0,8.0,1.0,2.0,-22.0,-8.0,1650823840770437.0
-1.0,-10.0,16.0,17.0,-3.0,-1.0,25.0,29.0,1650823840770437.0
15.0,26.0,9.0,-14.0,-2.0,-2.0,-19.0,-8.0,1650823840791993.0
-21.0,-8.0,-2.0,8.0,5.0,6.0,18.0,49.0,1650823840791993.0
12.0,36.0,14.0,1.0,5.0,4.0,24.0,26.0,1650823840793921.0
-5.0,23.0,30.0,12.0,11.0,3.0,-29.0,-4.0,1650823840793921.0
-3.0,-60.0,-83.0,-39.0,-19.0,-11.0,13.0,53.0,1650823840806953.0
15.0,30.0,38.0,27.0,5.0,8.0,21.0,-9.0,1650823840806953.0
-5.0,7.0,-9.0,-13.0,-4.0,-2.0,-12.0,-23.0,1650823840807893.0
30.0,37.0,26.0,-6.0,-1.0,1.0,14.0,42.0,1650823840807893.0
-6.0,40.0,43.0,37.0,13.0,17.0,-1.0,-12.0,1650823840829851.0
-4.0,4.0,-31.0,-1.0,7.0,-2.0,2.0,4.0,1650823840829851.0
-3.0,-10.0,-15.0,-56.0,-31.0,-20.0,-11.0,-5.0,1650823840830837.0
-7.0,-20.0,39.0,31.0,13.0,6.0,5.0,-8.0,1650823840830837.0
-9.0,-71.0,-81.0,-42.0,-14.0,-9.0,-12.0,-19.0,1650823840858929.0
8.0,15.0,23.0,5.0,9.0,12.0,7.0,-5.0,1650823840858929.0
-4.0,-6.0,1.0,8.0,4.0,-3.0,-16.0,1.0,1650823840860857.0
-7.0,-7.0,-15.0,-29.0,-16.0,-9.0,-4.0,6.0,1650823840860857.0
4.0,13.0,42.0,31.0,11.0,6.0,0.0,-15.0,1650823840866868.0
-33.0,-33.0,-36.0,-15.0,-9.0,0.0,3.0,47.0,1650823840866868.0
-2.0,-1.0,-6.0,-10.0,3.0,6.0,19.0,0.0,1650823840867890.0
-4.0,23.0,1.0,8.0,5.0,2.0,12.0,51.0,1650823840867890.0
14.0,36.0,21.0,2.0,2.0,-4.0,-36.0,-113.0,1650823840888782.0
17.0,-31.0,-53.0,-11.0,-10.0,-7.0,-12.0,25.0,1650823840888782.0
12.0,-3.0,23.0,18.0,6.0,3.0,-5.0,12.0,1650823840895773.0
-9.0,-28.0,-14.0,38.0,22.0,13.0,11.0,7.0,1650823840895773.0
-22.0,-38.0,-42.0,-88.0,-36.0,-25.0,-14.0,-5.0,1650823840911886.0
9.0,0.0,-12.0,-12.0,0.0,-1.0,5.0,3.0,1650823840911886.0
-3.0,-13.0,13.0,12.0,8.0,7.0,-1.0,-14.0,1650823840912816.0
14.0,32.0,30.0,13.0,2.0,2.0,9.0,-11.0,1650823840912816.0
6.0,-23.0,-6.0,46.0,14.0,4.0,8.0,22.0,1650823840925846.0
-24.0,-12.0,-22.0,-25.0,-9.0,-3.0,-10.0,1.0,1650823840925846.0
5.0,-26.0,-3.0,-12.0,-11.0,-11.0,-37.0,-55.0,1650823840933224.0
-4.0,-2.0,5.0,-8.0,-3.0,-2.0,8.0,4.0,1650823840933224.0
-1.0,49.0,49.0,14.0,4.0,7.0,12.0,11.0,1650823840948911.0
15.0,19.0,23.0,33.0,14.0,5.0,4.0,16.0,1650823840948911.0
-4.0,-10.0,-42.0,-11.0,-2.0,0.0,-13.0,-5.0,1650823840956865.0
-12.0,0.0,-17.0,-36.0,-19.0,-8.0,-16.0,1.0,1650823840956865.0
20.0,-26.0,-16.0,14.0,1.0,-7.0,6.0,-8.0,1650823840971824.0
23.0,52.0,39.0,21.0,7.0,4.0,3.0,16.0,1650823840971824.0
0.0,24.0,15.0,12.0,3.0,4.0,17.0,23.0,1650823840972848.0
-9.0,-42.0,-27.0,-19.0,-8.0,-4.0,-7.0,-19.0,1650823840972848.0
-11.0,1.0,-13.0,-8.0,1.0,-1.0,11.0,26.0,1650823840994762.0
34.0,16.0,25.0,48.0,22.0,18.0,16.0,13.0,1650823840994762.0
-12.0,-13.0,0.0,11.0,2.0,-2.0,0.0,-28.0,1650823840995785.0
-1.0,1.0,-68.0,-83.0,-32.0,-18.0,11.0,15.0,1650823840995785.0
2.0,39.0,28.0,11.0,-5.0,2.0,-19.0,-5.0,1650823841016701.0
-6.0,-34.0,6.0,4.0,-3.0,-7.0,-2.0,-22.0,1650823841016701.0
8.0,0.0,10.0,18.0,7.0,5.0,-10.0,23.0,1650823841017700.0
1.0,7.0,8.0,37.0,13.0,0.0,-3.0,-44.0,1650823841017700.0
-35.0,-61.0,-89.0,-82.0,-15.0,-9.0,-11.0,-9.0,1650823841031829.0
-9.0,-11.0,25.0,-5.0,-12.0,-6.0,-11.0,-14.0,1650823841031829.0
9.0,-2.0,0.0,4.0,3.0,2.0,14.0,32.0,1650823841033767.0
-25.0,-1.0,12.0,5.0,10.0,0.0,21.0,-20.0,1650823841033767.0
18.0,-14.0,16.0,17.0,10.0,4.0,-4.0,29.0,1650823841045883.0
6.0,21.0,17.0,-1.0,-6.0,-2.0,4.0,-6.0,1650823841045883.0
-8.0,-32.0,-55.0,-13.0,1.0,8.0,4.0,-11.0,1650823841052861.0
-12.0,35.0,57.0,37.0,11.0,9.0,-8.0,7.0,1650823841052861.0
-1.0,-13.0,2.0,6.0,-6.0,-2.0,-14.0,-20.0,1650823841068819.0
-28.0,-42.0,-16.0,-77.0,-29.0,-19.0,1.0,-8.0,1650823841068819.0
5.0,29.0,0.0,-28.0,-13.0,-5.0,10.0,16.0,1650823841070794.0
7.0,-10.0,-15.0,7.0,5.0,-1.0,-16.0,-16.0,1650823841070794.0
7.0,30.0,31.0,37.0,16.0,8.0,-9.0,9.0,1650823841091797.0
-8.0,7.0,-1.0,11.0,3.0,1.0,3.0,10.0,1650823841091797.0
7.0,36.0,20.0,-11.0,-3.0,-2.0,8.0,4.0,1650823841093726.0
3.0,-22.0,-12.0,1.0,3.0,9.0,-11.0,17.0,1650823841093726.0
-7.0,34.0,33.0,18.0,14.0,9.0,24.0,-31.0,1650823841106753.0
21.0,14.0,-4.0,10.0,1.0,-4.0,-27.0,-9.0,1650823841106753.0
4.0,19.0,-13.0,-3.0,-3.0,-8.0,16.0,1.0,1650823841112738.0
2.0,-21.0,-12.0,6.0,-3.0,-5.0,-29.0,-16.0,1650823841112738.0
-12.0,10.0,17.0,13.0,0.0,4.0,42.0,22.0,1650823841129618.0
-7.0,9.0,-6.0,-22.0,-19.0,-20.0,-63.0,-59.0,1650823841129618.0
14.0,-7.0,19.0,14.0,6.0,0.0,-2.0,28.0,1650823841130605.0
-9.0,-1.0,5.0,14.0,10.0,4.0,15.0,27.0,1650823841130605.0
15.0,12.0,12.0,-5.0,3.0,2.0,-1.0,-4.0,1650823841151576.0
9.0,5.0,4.0,16.0,7.0,7.0,22.0,19.0,1650823841151576.0
-33.0,-37.0,-43.0,-33.0,-12.0,-8.0,-13.0,-22.0,1650823841153563.0
12.0,1.0,-8.0,-14.0,-11.0,-3.0,-3.0,3.0,1650823841153563.0
5.0,19.0,31.0,34.0,11.0,5.0,0.0,7.0,1650823841165511.0
-4.0,7.0,-10.0,1.0,3.0,2.0,22.0,7.0,1650823841165511.0
-9.0,-9.0,-28.0,-35.0,-18.0,-14.0,-24.0,-4.0,1650823841172494.0
-3.0,-16.0,7.0,0.0,4.0,10.0,14.0,0.0,1650823841172494.0
-1.0,-2.0,-11.0,-1.0,5.0,2.0,-12.0,-6.0,1650823841189448.0
3.0,1.0,25.0,20.0,4.0,3.0,27.0,39.0,1650823841189448.0
-3.0,-15.0,5.0,4.0,-7.0,-10.0,-22.0,-46.0,1650823841190445.0
1.0,-20.0,-21.0,-11.0,-3.0,5.0,1.0,-3.0,1650823841190445.0
7.0,19.0,55.0,55.0,18.0,11.0,20.0,33.0,1650823841211416.0
1.0,-21.0,-68.0,-82.0,-19.0,-10.0,6.0,-7.0,1650823841211416.0
2.0,-3.0,10.0,10.0,12.0,10.0,18.0,59.0,1650823841213384.0
13.0,8.0,5.0,-8.0,-19.0,-19.0,-10.0,-43.0,1650823841213384.0
-55.0,-16.0,-6.0,2.0,-5.0,-6.0,-17.0,4.0,1650823841225744.0
-2.0,5.0,20.0,38.0,15.0,8.0,1.0,-14.0,1650823841225744.0
5.0,3.0,-1.0,-7.0,-1.0,-1.0,5.0,9.0,1650823841232758.0
-1.0,0.0,-4.0,-19.0,-7.0,-2.0,0.0,13.0,1650823841232758.0
15.0,5.0,-15.0,-10.0,-5.0,0.0,9.0,0.0,1650823841248835.0
-2.0,-4.0,1.0,11.0,11.0,12.0,2.0,-4.0,1650823841248835.0
-5.0,1.0,7.0,9.0,8.0,2.0,-2.0,-7.0,1650823841250802.0
5.0,0.0,5.0,7.0,5.0,0.0,-3.0,4.0,1650823841250802.0
7.0,-6.0,-23.0,-24.0,-17.0,-14.0,-6.0,-9.0,1650823841271832.0
-3.0,-1.0,6.0,5.0,-9.0,-5.0,-8.0,-5.0,1650823841271832.0
7.0,6.0,14.0,17.0,12.0,11.0,5.0,-4.0,1650823841272848.0
0.0,3.0,-1.0,-5.0,7.0,9.0,8.0,5.0,1650823841272848.0
4.0,-7.0,-16.0,-12.0,-5.0,-8.0,-3.0,-6.0,1650823841294907.0
-1.0,4.0,11.0,11.0,3.0,5.0,2.0,-2.0,1650823841294907.0
5.0,9.0,10.0,11.0,2.0,1.0,-1.0,-1.0,1650823841296913.0
-8.0,-14.0,-14.0,-10.0,-10.0,-11.0,-8.0,0.0,1650823841296913.0
-2.0,-6.0,3.0,-11.0,-7.0,0.0,-7.0,-2.0,1650823841308950.0
5.0,-1.0,7.0,14.0,18.0,12.0,3.0,-2.0,1650823841308950.0
3.0,9.0,13.0,2.0,-11.0,-8.0,1.0,-2.0,1650823841308950.0
-4.0,-7.0,-32.0,-10.0,-3.0,-2.0,-3.0,5.0,1650823841308950.0
6.0,-18.0,-5.0,3.0,-2.0,0.0,-3.0,-3.0,1650823841330614.0
0.0,6.0,10.0,3.0,8.0,2.0,3.0,-3.0,1650823841330614.0
-1.0,-8.0,-4.0,-1.0,2.0,1.0,1.0,-2.0,1650823841331543.0
2.0,5.0,-2.0,-6.0,-10.0,-11.0,-2.0,4.0,1650823841331543.0
2.0,-1.0,-8.0,-14.0,-9.0,-3.0,-1.0,-4.0,1650823841354600.0
-1.0,-2.0,-3.0,5.0,3.0,6.0,0.0,0.0,1650823841354600.0
-1.0,-2.0,-4.0,2.0,2.0,-6.0,1.0,0.0,1650823841354600.0
-1.0,4.0,15.0,8.0,2.0,3.0,0.0,1.0,1650823841354600.0
0.0,1.0,-7.0,-9.0,-1.0,3.0,3.0,-3.0,1650823841368619.0
1.0,1.0,4.0,6.0,-1.0,-5.0,-1.0,1.0,1650823841368619.0
2.0,-3.0,-3.0,1.0,4.0,3.0,-1.0,-2.0,1650823841369576.0
0.0,2.0,6.0,2.0,-9.0,-4.0,0.0,-1.0,1650823841369576.0
2.0,2.0,-2.0,-4.0,0.0,-2.0,-3.0,-1.0,1650823841392488.0
-2.0,-3.0,-5.0,-1.0,-6.0,-2.0,1.0,-1.0,1650823841392488.0
-4.0,-3.0,0.0,2.0,-6.0,-5.0,-3.0,-4.0,1650823841393505.0
1.0,2.0,0.0,1.0,6.0,2.0,-1.0,4.0,1650823841393505.0
1.0,3.0,-3.0,2.0,10.0,11.0,4.0,2.0,1650823841413459.0
0.0,3.0,7.0,3.0,-6.0,-5.0,-1.0,-2.0,1650823841413459.0
-2.0,-2.0,-2.0,-3.0,-2.0,-3.0,-3.0,-2.0,1650823841414429.0
3.0,6.0,1.0,0.0,-1.0,3.0,1.0,1.0,1650823841414429.0
-5.0,-9.0,2.0,-3.0,-6.0,-8.0,-4.0,-4.0,1650823841428633.0
-1.0,-3.0,-7.0,-2.0,-5.0,-5.0,-3.0,-4.0,1650823841428633.0
0.0,0.0,3.0,-3.0,-3.0,3.0,3.0,0.0,1650823841429630.0
-2.0,-1.0,2.0,3.0,12.0,6.0,0.0,1.0,1650823841429630.0
3.0,12.0,8.0,3.0,1.0,0.0,-2.0,-1.0,1650823841450627.0
-3.0,-12.0,-6.0,4.0,6.0,0.0,0.0,-1.0,1650823841450627.0
0.0,2.0,3.0,2.0,-5.0,-4.0,-5.0,-1.0,1650823841451590.0
-4.0,-21.0,-47.0,-15.0,-8.0,-6.0,0.0,-2.0,1650823841451590.0
2.0,3.0,26.0,3.0,-4.0,-4.0,-3.0,2.0,1650823841473990.0
-4.0,0.0,0.0,0.0,0.0,7.0,1.0,-3.0,1650823841473990.0
2.0,3.0,3.0,10.0,10.0,2.0,4.0,3.0,1650823841473990.0
-1.0,7.0,28.0,1.0,5.0,-1.0,-2.0,-1.0,1650823841473990.0
2.0,-6.0,-51.0,-25.0,-16.0,-7.0,-3.0,0.0,1650823841487981.0
-3.0,-6.0,-7.0,0.0,9.0,1.0,-3.0,-2.0,1650823841487981.0
0.0,0.0,0.0,9.0,13.0,16.0,6.0,2.0,1650823841488988.0
-1.0,4.0,19.0,11.0,-11.0,-8.0,-3.0,-1.0,1650823841488988.0
0.0,0.0,-8.0,-6.0,1.0,-4.0,0.0,1.0,1650823841511141.0
0.0,-2.0,9.0,-5.0,-10.0,-8.0,-4.0,-1.0,1650823841511141.0
-4.0,-4.0,-7.0,-2.0,6.0,3.0,2.0,-2.0,1650823841512102.0
2.0,5.0,7.0,8.0,9.0,8.0,2.0,1.0,1650823841512102.0
2.0,-6.0,-5.0,5.0,0.0,4.0,1.0,1.0,1650823841534024.0
1.0,14.0,6.0,-8.0,-7.0,-4.0,0.0,-1.0,1650823841534024.0
-3.0,1.0,5.0,2.0,-1.0,-4.0,-2.0,-3.0,1650823841534024.0
-3.0,-6.0,-4.0,-5.0,-4.0,-2.0,-3.0,-3.0,1650823841534024.0
2.0,4.0,3.0,1.0,-3.0,-3.0,-1.0,-1.0,1650823841548052.0
0.0,-5.0,8.0,5.0,2.0,3.0,0.0,2.0,1650823841548052.0
0.0,-6.0,-12.0,-8.0,-9.0,-5.0,-3.0,-3.0,1650823841549022.0
2.0,6.0,2.0,1.0,3.0,2.0,2.0,1.0,1650823841549022.0
0.0,-1.0,11.0,14.0,7.0,6.0,0.0,0.0,1650823841570991.0
-4.0,6.0,-20.0,-29.0,-9.0,-6.0,-3.0,-4.0,1650823841570991.0
-3.0,0.0,3.0,0.0,-7.0,-4.0,-1.0,-3.0,1650823841571962.0
0.0,2.0,-1.0,0.0,1.0,0.0,-1.0,-1.0,1650823841571962.0
1.0,1.0,0.0,3.0,3.0,2.0,0.0,-1.0,1650823841593902.0
0.0,1.0,2.0,10.0,5.0,4.0,1.0,-1.0,1650823841593902.0
3.0,1.0,-3.0,-5.0,-3.0,-3.0,-3.0,-1.0,1650823841593902.0
-3.0,0.0,7.0,2.0,-2.0,-2.0,1.0,-2.0,1650823841593902.0
0.0,-2.0,-9.0,-2.0,4.0,2.0,0.0,1.0,1650823841608878.0
-4.0,2.0,3.0,5.0,0.0,-1.0,-1.0,-4.0,1650823841608878.0
3.0,-4.0,5.0,-1.0,0.0,3.0,1.0,1.0,1650823841608878.0
-2.0,1.0,5.0,-2.0,-9.0,-7.0,-2.0,-1.0,1650823841608878.0
-1.0,10.0,4.0,3.0,0.0,1.0,2.0,0.0,1650823841630824.0
7.0,4.0,13.0,4.0,0.0,-2.0,0.0,0.0,1650823841630824.0
-6.0,-2.0,-6.0,0.0,2.0,-2.0,-3.0,-1.0,1650823841631810.0
-1.0,-1.0,-12.0,-4.0,6.0,7.0,5.0,1.0,1650823841631810.0
-2.0,2.0,3.0,4.0,1.0,-3.0,-4.0,-2.0,1650823841661742.0
0.0,-7.0,-9.0,-8.0,-6.0,-3.0,0.0,0.0,1650823841661742.0
-1.0,-1.0,-8.0,-6.0,-6.0,-3.0,-3.0,-2.0,1650823841662732.0
-2.0,-3.0,2.0,-8.0,-1.0,-2.0,-6.0,-4.0,1650823841662732.0
-1.0,-1.0,2.0,7.0,-8.0,-4.0,3.0,0.0,1650823841668702.0
-1.0,1.0,-7.0,-1.0,11.0,4.0,2.0,3.0,1650823841668702.0
0.0,-10.0,-12.0,-1.0,-8.0,-3.0,-1.0,-1.0,1650823841669700.0
-4.0,0.0,-12.0,-13.0,0.0,-5.0,-4.0,-2.0,1650823841669700.0
5.0,-3.0,-1.0,-1.0,-6.0,-2.0,-3.0,1.0,1650823841690663.0
-2.0,4.0,20.0,10.0,3.0,-2.0,1.0,-3.0,1650823841690663.0
6.0,4.0,2.0,5.0,12.0,12.0,5.0,2.0,1650823841691640.0
-3.0,0.0,0.0,2.0,-3.0,-6.0,0.0,7.0,1650823841691640.0
6.0,8.0,10.0,1.0,2.0,-1.0,-4.0,-15.0,1650823841713881.0
-17.0,-12.0,-21.0,-5.0,-6.0,-3.0,-2.0,0.0,1650823841713881.0
0.0,-2.0,-1.0,-7.0,-2.0,-4.0,-3.0,-2.0,1650823841713881.0
1.0,-1.0,2.0,0.0,-5.0,-3.0,-1.0,2.0,1650823841713881.0
-3.0,-6.0,-3.0,-10.0,-5.0,-4.0,-2.0,1.0,1650823841728842.0
9.0,3.0,7.0,17.0,3.0,0.0,6.0,3.0,1650823841728842.0
1.0,4.0,3.0,4.0,6.0,7.0,3.0,3.0,1650823841728842.0
-4.0,-9.0,10.0,0.0,2.0,1.0,-4.0,-4.0,1650823841728842.0
-3.0,3.0,-3.0,-8.0,-1.0,-3.0,-1.0,1.0,1650823841750857.0
0.0,-21.0,-15.0,9.0,12.0,6.0,-2.0,-2.0,1650823841750857.0
-3.0,-2.0,-29.0,-28.0,-8.0,-7.0,-1.0,-2.0,1650823841751857.0
5.0,3.0,-3.0,8.0,-7.0,-2.0,0.0,0.0,1650823841751857.0
-1.0,1.0,11.0,0.0,5.0,6.0,6.0,32.0,1650823841781581.0
25.0,2.0,-2.0,3.0,-5.0,-5.0,-9.0,-49.0,1650823841781581.0
-20.0,17.0,27.0,11.0,1.0,-1.0,-3.0,-4.0,1650823841782519.0
0.0,2.0,-4.0,-8.0,1.0,2.0,0.0,-2.0,1650823841782519.0
0.0,-1.0,-11.0,-5.0,0.0,-1.0,-1.0,-5.0,1650823841788490.0
6.0,7.0,-4.0,3.0,-2.0,1.0,1.0,13.0,1650823841788490.0
4.0,-10.0,1.0,2.0,2.0,1.0,1.0,-1.0,1650823841789489.0
2.0,1.0,-4.0,-4.0,-1.0,-1.0,-3.0,-10.0,1650823841789489.0
-10.0,0.0,1.0,5.0,4.0,2.0,3.0,1.0,1650823841811453.0
-4.0,6.0,7.0,-5.0,-10.0,-5.0,-3.0,8.0,1650823841811453.0
4.0,-6.0,0.0,8.0,-1.0,-4.0,-1.0,-3.0,1650823841811453.0
-2.0,-2.0,-18.0,-14.0,4.0,5.0,5.0,9.0,1650823841811453.0
0.0,-11.0,-8.0,-12.0,5.0,1.0,-5.0,-7.0,1650823841833898.0
-5.0,-3.0,1.0,-7.0,-15.0,-5.0,1.0,5.0,1650823841833898.0
2.0,2.0,-1.0,3.0,-4.0,-2.0,-3.0,0.0,1650823841834069.0
3.0,1.0,11.0,8.0,1.0,-1.0,1.0,5.0,1650823841834069.0
0.0,13.0,-5.0,-2.0,-1.0,1.0,-1.0,-7.0,1650823841848102.0
-8.0,-14.0,-3.0,-2.0,12.0,3.0,1.0,1.0,1650823841848102.0
-1.0,4.0,16.0,6.0,-9.0,-3.0,-3.0,0.0,1650823841849031.0
3.0,-3.0,-11.0,1.0,1.0,2.0,1.0,2.0,1650823841849031.0
-3.0,-11.0,-7.0,-7.0,-6.0,-4.0,-3.0,-8.0,1650823841870928.0
-6.0,-7.0,-6.0,-5.0,-5.0,-4.0,-1.0,32.0,1650823841870928.0
13.0,6.0,5.0,3.0,2.0,3.0,-2.0,-20.0,1650823841871928.0
-5.0,1.0,7.0,5.0,9.0,5.0,0.0,-4.0,1650823841871928.0
2.0,-4.0,3.0,6.0,4.0,4.0,1.0,-2.0,1650823841901914.0
-3.0,-3.0,-13.0,-6.0,-4.0,-4.0,1.0,1.0,1650823841901914.0
-1.0,-4.0,-2.0,-7.0,-12.0,-9.0,-4.0,6.0,1650823841902845.0
1.0,2.0,-5.0,-1.0,0.0,0.0,-2.0,-2.0,1650823841902845.0
-2.0,-1.0,1.0,2.0,10.0,9.0,6.0,0.0,1650823841908829.0
5.0,7.0,16.0,10.0,3.0,2.0,0.0,-6.0,1650823841908829.0
-6.0,-1.0,4.0,-2.0,-1.0,1.0,0.0,3.0,1650823841908829.0
-3.0,-4.0,2.0,-3.0,-10.0,-7.0,-4.0,-7.0,1650823841908829.0
-2.0,0.0,-3.0,-2.0,-7.0,-8.0,-3.0,3.0,1650823841939847.0
2.0,6.0,1.0,-3.0,2.0,3.0,-1.0,-3.0,1650823841939847.0
-1.0,2.0,-1.0,4.0,10.0,2.0,2.0,3.0,1650823841939847.0
-1.0,-16.0,-8.0,1.0,-1.0,0.0,2.0,4.0,1650823841939847.0
1.0,3.0,-1.0,-3.0,-5.0,-2.0,-4.0,-1.0,1650823841953877.0
-3.0,-4.0,-5.0,-4.0,-1.0,-1.0,-1.0,-4.0,1650823841953877.0
-5.0,-1.0,3.0,2.0,-8.0,-2.0,-1.0,0.0,1650823841953877.0
10.0,10.0,-16.0,-7.0,-1.0,1.0,0.0,1.0,1650823841953877.0
-10.0,-5.0,0.0,-2.0,-3.0,-3.0,-2.0,8.0,1650823841968825.0
-4.0,-7.0,4.0,-2.0,5.0,1.0,-2.0,-7.0,1650823841968825.0
-1.0,0.0,-1.0,-4.0,-13.0,-5.0,-2.0,0.0,1650823841968825.0
-6.0,-2.0,-3.0,10.0,12.0,7.0,2.0,-6.0,1650823841968825.0
9.0,1.0,-5.0,2.0,1.0,1.0,-1.0,13.0,1650823841990768.0
-3.0,6.0,9.0,-3.0,-1.0,1.0,1.0,3.0,1650823841990768.0
-2.0,-5.0,-3.0,2.0,5.0,-1.0,1.0,1.0,1650823841991766.0
3.0,5.0,6.0,-2.0,-5.0,-4.0,-2.0,2.0,1650823841991766.0
1.0,-4.0,2.0,3.0,1.0,7.0,-1.0,-8.0,1650823842013180.0
-2.0,1.0,5.0,4.0,-4.0,-5.0,-2.0,-3.0,1650823842013180.0
2.0,-2.0,-8.0,-5.0,-4.0,-3.0,0.0,1.0,1650823842014116.0
-5.0,0.0,4.0,-1.0,2.0,4.0,3.0,-2.0,1650823842014116.0
0.0,0.0,-1.0,-1.0,-3.0,-1.0,1.0,-2.0,1650823842028136.0
-1.0,-1.0,-3.0,-1.0,-3.0,-7.0,-2.0,-1.0,1650823842028136.0
2.0,-1.0,0.0,4.0,4.0,-1.0,-3.0,-2.0,1650823842029076.0
-2.0,1.0,9.0,0.0,0.0,-2.0,-2.0,1.0,1650823842029076.0
0.0,-5.0,-21.0,-11.0,-10.0,3.0,0.0,-4.0,1650823842051103.0
3.0,7.0,1.0,-5.0,-2.0,3.0,2.0,1.0,1650823842051103.0
-4.0,0.0,2.0,2.0,9.0,4.0,3.0,-1.0,1650823842052100.0
0.0,0.0,3.0,2.0,6.0,-3.0,-3.0,-1.0,1650823842052100.0
-2.0,2.0,8.0,-4.0,-11.0,-7.0,0.0,-5.0,1650823842073570.0
1.0,-4.0,-10.0,-4.0,-5.0,-5.0,-3.0,1.0,1650823842073570.0
-8.0,-12.0,-5.0,-3.0,3.0,4.0,0.0,-1.0,1650823842074585.0
2.0,7.0,7.0,3.0,2.0,2.0,0.0,1.0,1650823842074585.0
-8.0,2.0,-2.0,-1.0,-1.0,-7.0,-4.0,-5.0,1650823842096536.0
-1.0,0.0,-1.0,3.0,4.0,1.0,0.0,1.0,1650823842096536.0
3.0,1.0,-2.0,-1.0,5.0,10.0,0.0,2.0,1650823842097505.0
-2.0,-4.0,-1.0,-2.0,-6.0,-4.0,0.0,-1.0,1650823842097505.0
0.0,-2.0,2.0,1.0,2.0,0.0,0.0,-1.0,1650823842111468.0
0.0,2.0,5.0,3.0,2.0,0.0,-1.0,-9.0,1650823842111468.0
1.0,-5.0,-19.0,-7.0,-5.0,-5.0,-2.0,-1.0,1650823842111468.0
-3.0,2.0,5.0,-7.0,-13.0,-6.0,-3.0,-4.0,1650823842111468.0
0.0,0.0,-3.0,2.0,0.0,0.0,0.0,-3.0,1650823842133958.0
3.0,3.0,-8.0,4.0,7.0,5.0,3.0,7.0,1650823842133958.0
-4.0,8.0,30.0,1.0,7.0,-3.0,-2.0,-4.0,1650823842133958.0
-5.0,-4.0,-1.0,4.0,-12.0,-4.0,-2.0,-4.0,1650823842133958.0
-3.0,-7.0,-7.0,-8.0,2.0,-5.0,-3.0,-1.0,1650823842148919.0
0.0,2.0,0.0,1.0,1.0,6.0,3.0,2.0,1650823842148919.0
3.0,3.0,-6.0,1.0,6.0,5.0,2.0,2.0,1650823842148919.0
4.0,-2.0,-5.0,-4.0,3.0,-5.0,-2.0,3.0,1650823842148919.0
0.0,1.0,13.0,-4.0,-14.0,-5.0,1.0,-3.0,1650823842170889.0
-2.0,0.0,2.0,0.0,-3.0,-4.0,2.0,0.0,1650823842170889.0
0.0,-2.0,-7.0,-6.0,-5.0,-2.0,-1.0,-3.0,1650823842171859.0
0.0,-2.0,0.0,4.0,8.0,3.0,0.0,1.0,1650823842171859.0
3.0,0.0,4.0,5.0,4.0,3.0,-1.0,0.0,1650823842193879.0
-1.0,3.0,4.0,-2.0,-2.0,1.0,-4.0,-4.0,1650823842193879.0
-2.0,-5.0,-12.0,-10.0,-7.0,-5.0,-1.0,2.0,1650823842193879.0
-2.0,2.0,-1.0,-2.0,-1.0,5.0,1.0,-1.0,1650823842193879.0
0.0,4.0,7.0,8.0,7.0,3.0,2.0,1.0,1650823842217819.0
1.0,3.0,2.0,2.0,3.0,-1.0,1.0,3.0,1650823842217819.0
1.0,2.0,4.0,3.0,1.0,0.0,1.0,-1.0,1650823842218816.0
-3.0,-13.0,-20.0,-8.0,-7.0,-5.0,-3.0,-1.0,1650823842218816.0
3.0,-2.0,5.0,-7.0,1.0,-3.0,-6.0,-5.0,1650823842230783.0
-14.0,-3.0,-7.0,-1.0,-13.0,0.0,1.0,-2.0,1650823842230783.0
1.0,-3.0,-1.0,9.0,4.0,1.0,3.0,2.0,1650823842231781.0
1.0,0.0,10.0,-8.0,-1.0,1.0,-1.0,-2.0,1650823842231781.0
1.0,-4.0,-5.0,5.0,12.0,7.0,1.0,1.0,1650823842253835.0
4.0,2.0,-7.0,-2.0,-4.0,-3.0,1.0,12.0,1650823842253835.0
-1.0,1.0,7.0,0.0,-10.0,-9.0,-4.0,-3.0,1650823842253835.0
-2.0,1.0,-3.0,3.0,7.0,5.0,2.0,-2.0,1650823842253835.0
0.0,2.0,-4.0,3.0,-3.0,-1.0,1.0,0.0,1650823842268766.0
2.0,-1.0,3.0,-2.0,1.0,-2.0,0.0,0.0,1650823842268766.0
1.0,2.0,0.0,-5.0,3.0,6.0,2.0,-3.0,1650823842268766.0
3.0,1.0,-1.0,-3.0,1.0,-6.0,1.0,12.0,1650823842268766.0
-2.0,1.0,-2.0,0.0,-3.0,1.0,0.0,-1.0,1650823842290721.0
0.0,0.0,4.0,1.0,-5.0,-1.0,-2.0,-3.0,1650823842290721.0
-2.0,1.0,-4.0,1.0,1.0,-2.0,-5.0,-1.0,1650823842291705.0
0.0,3.0,9.0,3.0,-2.0,0.0,0.0,0.0,1650823842291705.0
-4.0,-3.0,4.0,1.0,-1.0,-1.0,2.0,0.0,1650823842313749.0
1.0,-2.0,-4.0,-1.0,2.0,4.0,-1.0,-3.0,1650823842313749.0
1.0,2.0,3.0,1.0,7.0,0.0,0.0,5.0,1650823842313749.0
1.0,5.0,1.0,0.0,-5.0,-2.0,-3.0,-1.0,1650823842313749.0
0.0,2.0,2.0,0.0,-8.0,-1.0,0.0,0.0,1650823842337688.0
-1.0,-3.0,0.0,-2.0,15.0,3.0,-2.0,-6.0,1650823842337688.0
-1.0,0.0,-5.0,-3.0,-8.0,6.0,2.0,0.0,1650823842338656.0
0.0,0.0,-1.0,4.0,0.0,-5.0,0.0,-1.0,1650823842338656.0
1.0,0.0,0.0,1.0,-1.0,-6.0,-1.0,-1.0,1650823842350652.0
-2.0,-4.0,-8.0,-12.0,-9.0,-4.0,-3.0,3.0,1650823842350652.0
-3.0,-3.0,-7.0,-8.0,-4.0,1.0,-4.0,-17.0,1650823842351628.0
0.0,3.0,7.0,5.0,3.0,-1.0,-2.0,-3.0,1650823842351628.0
1.0,3.0,3.0,9.0,17.0,6.0,2.0,2.0,1650823842373564.0
-1.0,-1.0,5.0,7.0,2.0,2.0,0.0,-1.0,1650823842373564.0
0.0,-1.0,0.0,3.0,-6.0,3.0,3.0,4.0,1650823842374563.0
-1.0,-2.0,-5.0,-6.0,-5.0,-2.0,0.0,-2.0,1650823842374563.0
0.0,0.0,-10.0,-21.0,-10.0,-9.0,-2.0,9.0,1650823842387525.0
-1.0,1.0,2.0,2.0,0.0,-1.0,-3.0,-3.0,1650823842387525.0
0.0,1.0,5.0,2.0,0.0,-1.0,1.0,0.0,1650823842396525.0
0.0,-1.0,-5.0,-3.0,2.0,6.0,1.0,-2.0,1650823842396525.0
-2.0,-3.0,-9.0,3.0,6.0,4.0,2.0,5.0,1650823842411508.0
-1.0,-10.0,-9.0,-4.0,-8.0,-5.0,-3.0,-3.0,1650823842411508.0
3.0,6.0,3.0,0.0,-2.0,-4.0,-1.0,5.0,1650823842411508.0
0.0,1.0,-2.0,2.0,0.0,-1.0,0.0,0.0,1650823842411508.0
-1.0,-2.0,1.0,-1.0,-6.0,-6.0,-4.0,-5.0,1650823842433511.0
0.0,0.0,-3.0,-2.0,3.0,6.0,1.0,-2.0,1650823842433511.0
0.0,-3.0,-3.0,1.0,14.0,-3.0,-2.0,-2.0,1650823842434511.0
-1.0,-4.0,-2.0,-4.0,-15.0,-8.0,-2.0,1.0,1650823842434511.0
-2.0,2.0,2.0,1.0,2.0,5.0,3.0,-4.0,1650823842447658.0
1.0,2.0,1.0,1.0,6.0,3.0,1.0,1.0,1650823842447658.0
0.0,-3.0,-4.0,-4.0,1.0,1.0,0.0,4.0,1650823842455599.0
-1.0,-1.0,-1.0,-3.0,-1.0,-4.0,-3.0,-1.0,1650823842455599.0
0.0,1.0,2.0,7.0,-10.0,-2.0,-6.0,-3.0,1650823842470600.0
1.0,1.0,8.0,4.0,-1.0,1.0,4.0,1.0,1650823842470600.0
-3.0,-5.0,-5.0,-11.0,-3.0,-1.0,-2.0,1.0,1650823842471529.0
-1.0,-2.0,-2.0,1.0,0.0,-6.0,4.0,9.0,1650823842471529.0
0.0,-2.0,0.0,1.0,-4.0,-6.0,-5.0,-11.0,1650823842494600.0
0.0,6.0,2.0,2.0,4.0,2.0,1.0,-2.0,1650823842494600.0
-1.0,2.0,4.0,11.0,-2.0,3.0,0.0,2.0,1650823842495483.0
-1.0,-3.0,2.0,-9.0,1.0,1.0,-3.0,-4.0,1650823842495483.0
2.0,0.0,-2.0,-1.0,3.0,-4.0,2.0,6.0,1650823842507466.0
0.0,-1.0,-3.0,3.0,5.0,5.0,2.0,3.0,1650823842507466.0
2.0,3.0,3.0,-2.0,-5.0,-4.0,-2.0,0.0,1650823842516488.0
-1.0,-2.0,-7.0,0.0,-3.0,1.0,-2.0,-2.0,1650823842516488.0
1.0,-8.0,-8.0,-6.0,-2.0,0.0,-1.0,-3.0,1650823842531647.0
-2.0,-2.0,-2.0,-5.0,-8.0,-7.0,-4.0,-5.0,1650823842531647.0
-1.0,2.0,8.0,10.0,11.0,3.0,2.0,-1.0,1650823842532634.0
0.0,3.0,7.0,0.0,-11.0,-1.0,-3.0,-5.0,1650823842532634.0
2.0,-2.0,-6.0,-6.0,0.0,-1.0,5.0,30.0,1650823842553645.0
-3.0,0.0,-1.0,0.0,-1.0,-1.0,-9.0,-42.0,1650823842553645.0
0.0,-3.0,-6.0,1.0,4.0,6.0,3.0,-3.0,1650823842554652.0
1.0,4.0,5.0,9.0,8.0,0.0,1.0,5.0,1650823842554652.0
-1.0,-1.0,-7.0,-10.0,-8.0,2.0,-1.0,-3.0,1650823842567672.0
2.0,2.0,19.0,10.0,-1.0,-4.0,-1.0,11.0,1650823842567672.0
-4.0,-10.0,-34.0,-21.0,-14.0,-13.0,-2.0,-2.0,1650823842583596.0
1.0,0.0,2.0,4.0,6.0,6.0,0.0,3.0,1650823842583596.0
0.0,4.0,5.0,4.0,8.0,2.0,3.0,-5.0,1650823842590547.0
-1.0,1.0,-2.0,-1.0,2.0,0.0,-2.0,12.0,1650823842590547.0
0.0,2.0,7.0,-1.0,-11.0,-6.0,-3.0,-2.0,1650823842591545.0
1.0,1.0,-5.0,2.0,2.0,2.0,1.0,4.0,1650823842591545.0
-2.0,0.0,-2.0,0.0,0.0,2.0,1.0,-7.0,1650823842622887.0
1.0,-4.0,-9.0,-14.0,-5.0,-5.0,1.0,2.0,1650823842622887.0
1.0,-2.0,4.0,5.0,1.0,-2.0,3.0,4.0,1650823842623880.0
-3.0,0.0,-1.0,-6.0,-4.0,-3.0,-3.0,-6.0,1650823842623880.0
-1.0,1.0,5.0,5.0,1.0,-1.0,-7.0,-5.0,1650823842636845.0
1.0,1.0,0.0,2.0,0.0,2.0,2.0,2.0,1650823842636845.0
-2.0,1.0,5.0,5.0,9.0,14.0,3.0,-2.0,1650823842637851.0
-1.0,-4.0,-11.0,-6.0,-2.0,-6.0,4.0,3.0,1650823842637851.0
0.0,-2.0,0.0,-6.0,-2.0,0.0,1.0,5.0,1650823842650807.0
-2.0,-2.0,-16.0,-3.0,-5.0,-6.0,-3.0,1.0,1650823842650807.0
0.0,-1.0,6.0,1.0,13.0,3.0,-5.0,-3.0,1650823842651804.0
0.0,-1.0,0.0,-3.0,-8.0,4.0,0.0,-3.0,1650823842651804.0
-2.0,1.0,12.0,11.0,2.0,-3.0,2.0,-4.0,1650823842673751.0
1.0,-1.0,-3.0,-2.0,-3.0,-1.0,2.0,8.0,1650823842673751.0
-2.0,-1.0,-3.0,-12.0,-4.0,-3.0,-3.0,0.0,1650823842673751.0
0.0,-1.0,1.0,6.0,4.0,1.0,-4.0,-5.0,1650823842673751.0
2.0,0.0,-6.0,2.0,7.0,3.0,1.0,-2.0,1650823842696776.0
1.0,7.0,7.0,6.0,-3.0,0.0,1.0,-1.0,1650823842696776.0
-1.0,1.0,25.0,9.0,6.0,-2.0,-4.0,-5.0,1650823842697765.0
-3.0,-3.0,-3.0,8.0,-12.0,-5.0,2.0,1.0,1650823842697765.0
-2.0,-8.0,-27.0,-26.0,3.0,2.0,0.0,3.0,1650823842710779.0
-1.0,0.0,-1.0,7.0,3.0,6.0,0.0,-13.0,1650823842710779.0
1.0,2.0,-4.0,-7.0,-7.0,-5.0,0.0,8.0,1650823842711708.0
0.0,1.0,7.0,4.0,2.0,3.0,-1.0,-4.0,1650823842711708.0
0.0,4.0,14.0,19.0,-1.0,2.0,-3.0,1.0,1650823842733649.0
-1.0,-5.0,-15.0,-22.0,-12.0,-14.0,0.0,3.0,1650823842733649.0
-2.0,-3.0,-1.0,5.0,6.0,-4.0,0.0,-3.0,1650823842734646.0
1.0,0.0,6.0,1.0,11.0,1.0,-2.0,-7.0,1650823842734646.0
-1.0,-3.0,0.0,3.0,-11.0,1.0,0.0,12.0,1650823842772572.0
0.0,3.0,4.0,0.0,11.0,13.0,2.0,3.0,1650823842772572.0
2.0,5.0,2.0,13.0,-11.0,-2.0,3.0,2.0,1650823842773560.0
-1.0,1.0,14.0,7.0,9.0,1.0,3.0,1.0,1650823842773560.0
-1.0,-6.0,0.0,-10.0,-5.0,-10.0,-4.0,-3.0,1650823842775538.0
-4.0,-6.0,5.0,2.0,-11.0,-8.0,-5.0,0.0,1650823842775538.0
2.0,-3.0,-23.0,-26.0,-4.0,3.0,-1.0,28.0,1650823842778529.0
-3.0,0.0,-13.0,-13.0,5.0,5.0,15.0,0.0,1650823842778529.0
-5.0,-2.0,9.0,0.0,-7.0,-7.0,-5.0,-16.0,1650823842793528.0
-2.0,0.0,12.0,11.0,0.0,3.0,1.0,-1.0,1650823842793528.0
2.0,4.0,2.0,12.0,9.0,4.0,4.0,2.0,1650823842800639.0
4.0,5.0,8.0,16.0,-1.0,0.0,-3.0,4.0,1650823842800639.0
-1.0,1.0,-27.0,-25.0,0.0,1.0,-1.0,-6.0,1650823842816660.0
-2.0,-6.0,4.0,0.0,0.0,-2.0,5.0,10.0,1650823842816660.0
-4.0,0.0,4.0,-9.0,-11.0,-5.0,-3.0,-6.0,1650823842817594.0
3.0,-1.0,0.0,17.0,16.0,12.0,-1.0,8.0,1650823842817594.0
1.0,5.0,3.0,4.0,8.0,-3.0,-1.0,-5.0,1650823842831623.0
-7.0,-12.0,-1.0,-8.0,-14.0,-6.0,-10.0,-11.0,1650823842831623.0
2.0,1.0,0.0,10.0,-3.0,1.0,4.0,6.0,1650823842838605.0
-4.0,-1.0,-26.0,-24.0,-6.0,-4.0,-7.0,-22.0,1650823842838605.0
-3.0,-9.0,-18.0,-18.0,-3.0,0.0,0.0,0.0,1650823842853611.0
1.0,1.0,6.0,-3.0,0.0,-1.0,-2.0,-3.0,1650823842853611.0
-1.0,-12.0,-19.0,4.0,-4.0,-1.0,6.0,16.0,1650823842854580.0
5.0,8.0,22.0,6.0,19.0,10.0,-5.0,26.0,1650823842854580.0
-1.0,4.0,7.0,11.0,-8.0,1.0,-1.0,-48.0,1650823842877588.0
-1.0,-2.0,-23.0,-14.0,3.0,-1.0,0.0,-14.0,1650823842877588.0
-2.0,-2.0,14.0,3.0,-4.0,-6.0,-3.0,-8.0,1650823842878519.0
-1.0,-2.0,1.0,-3.0,-5.0,-5.0,-6.0,1.0,1650823842878519.0
-5.0,-3.0,4.0,2.0,4.0,6.0,5.0,9.0,1650823842890510.0
5.0,6.0,10.0,22.0,5.0,4.0,2.0,8.0,1650823842890510.0
-1.0,1.0,-2.0,-15.0,1.0,1.0,-3.0,6.0,1650823842891485.0
-2.0,2.0,-2.0,-10.0,-11.0,-6.0,-2.0,-13.0,1650823842891485.0
24.0,7.0,29.0,17.0,1.0,-1.0,4.0,23.0,1650823842921433.0
-25.0,-9.0,-38.0,-13.0,-3.0,-3.0,-6.0,-41.0,1650823842921433.0
4.0,20.0,21.0,10.0,6.0,1.0,-4.0,-11.0,1650823842922401.0
-13.0,-35.0,-34.0,-10.0,-8.0,-7.0,-1.0,-6.0,1650823842922401.0
6.0,7.0,16.0,19.0,4.0,1.0,-4.0,-12.0,1650823842936363.0
8.0,6.0,39.0,18.0,4.0,2.0,5.0,22.0,1650823842936363.0
-5.0,-11.0,-59.0,-56.0,-15.0,-9.0,-5.0,-12.0,1650823842937361.0
1.0,15.0,13.0,3.0,0.0,5.0,7.0,-11.0,1650823842937361.0
-2.0,10.0,-6.0,9.0,5.0,0.0,-6.0,4.0,1650823842951323.0
10.0,-2.0,15.0,26.0,17.0,10.0,13.0,17.0,1650823842951323.0
-15.0,-10.0,-49.0,-31.0,-9.0,-6.0,-17.0,-16.0,1650823842951323.0
8.0,8.0,54.0,2.0,-11.0,-3.0,13.0,30.0,1650823842951323.0
-9.0,19.0,-2.0,7.0,4.0,3.0,-5.0,-5.0,1650823842973869.0
4.0,-5.0,-26.0,-12.0,-3.0,-9.0,4.0,20.0,1650823842973869.0
6.0,5.0,14.0,-4.0,-6.0,-8.0,-9.0,-7.0,1650823842974535.0
0.0,0.0,-8.0,5.0,2.0,2.0,11.0,9.0,1650823842974535.0
8.0,-1.0,6.0,1.0,-5.0,0.0,11.0,13.0,1650823842996546.0
4.0,65.0,21.0,13.0,7.0,5.0,-15.0,-3.0,1650823842996546.0
0.0,19.0,50.0,51.0,17.0,8.0,3.0,-59.0,1650823842997477.0
21.0,51.0,-12.0,-21.0,-3.0,-1.0,5.0,15.0,1650823842997477.0
-42.0,-15.0,-21.0,-34.0,-28.0,-20.0,-16.0,-28.0,1650823843011506.0
2.0,-2.0,-31.0,-38.0,-6.0,-6.0,-4.0,-4.0,1650823843011506.0
-7.0,11.0,46.0,36.0,10.0,6.0,-8.0,-13.0,1650823843012437.0
29.0,20.0,13.0,7.0,23.0,19.0,18.0,21.0,1650823843012437.0
6.0,-29.0,-74.0,-18.0,16.0,12.0,11.0,5.0,1650823843033408.0
-22.0,-57.0,-59.0,-59.0,-6.0,-1.0,-7.0,-4.0,1650823843033408.0
2.0,13.0,67.0,38.0,0.0,0.0,-2.0,0.0,1650823843034378.0
-16.0,-64.0,-20.0,-17.0,-34.0,-28.0,-24.0,-10.0,1650823843034378.0
-7.0,-8.0,13.0,0.0,-5.0,-5.0,-2.0,3.0,1650823843056624.0
1.0,-3.0,0.0,16.0,3.0,3.0,-9.0,-49.0,1650823843056624.0
35.0,85.0,28.0,-1.0,9.0,12.0,30.0,68.0,1650823843057622.0
-31.0,-64.0,-75.0,-18.0,-6.0,-6.0,-9.0,-28.0,1650823843057622.0
-1.0,5.0,35.0,42.0,5.0,0.0,-8.0,18.0,1650823843070617.0
1.0,10.0,-69.0,-72.0,-19.0,-8.0,2.0,10.0,1650823843070617.0
-1.0,-9.0,22.0,18.0,7.0,7.0,20.0,34.0,1650823843071598.0
3.0,18.0,13.0,8.0,0.0,-7.0,-9.0,-45.0,1650823843071598.0
16.0,44.0,48.0,8.0,-5.0,-4.0,-16.0,-11.0,1650823843093987.0
13.0,-1.0,33.0,56.0,3.0,6.0,13.0,4.0,1650823843093987.0
-15.0,-53.0,-94.0,-55.0,8.0,6.0,-27.0,-85.0,1650823843093987.0
10.0,4.0,39.0,35.0,16.0,16.0,29.0,70.0,1650823843093987.0
-6.0,-9.0,39.0,-6.0,11.0,-2.0,3.0,-17.0,1650823843117171.0
23.0,14.0,59.0,50.0,0.0,8.0,14.0,44.0,1650823843117171.0
-10.0,-28.0,27.0,-30.0,-12.0,-6.0,6.0,-8.0,1650823843117171.0
3.0,55.0,32.0,17.0,17.0,8.0,-14.0,-21.0,1650823843117171.0
-12.0,-38.0,-45.0,-24.0,-16.0,-11.0,-10.0,-27.0,1650823843131145.0
-7.0,-7.0,27.0,21.0,-7.0,-8.0,-15.0,-37.0,1650823843131145.0
5.0,11.0,-19.0,18.0,-3.0,-3.0,-7.0,-2.0,1650823843132104.0
-4.0,-26.0,-17.0,-22.0,-4.0,5.0,5.0,3.0,1650823843132104.0
32.0,82.0,63.0,30.0,7.0,5.0,19.0,63.0,1650823843153938.0
-11.0,14.0,-46.0,-12.0,0.0,-7.0,-13.0,-17.0,1650823843153938.0
-22.0,-21.0,7.0,-33.0,-20.0,-9.0,-1.0,-10.0,1650823843153938.0
-5.0,-4.0,6.0,10.0,-3.0,-11.0,-47.0,-49.0,1650823843153938.0
17.0,-6.0,-12.0,4.0,9.0,16.0,42.0,35.0,1650823843176272.0
-10.0,12.0,31.0,22.0,16.0,5.0,-1.0,3.0,1650823843176272.0
-6.0,15.0,40.0,49.0,7.0,0.0,-7.0,1.0,1650823843177242.0
-8.0,-13.0,-77.0,-60.0,-1.0,-1.0,11.0,11.0,1650823843177242.0
0.0,-17.0,16.0,4.0,3.0,5.0,-3.0,-5.0,1650823843191205.0
-2.0,-11.0,12.0,2.0,-2.0,-7.0,-2.0,15.0,1650823843191205.0
17.0,-2.0,-13.0,-15.0,-4.0,4.0,1.0,9.0,1650823843191205.0
2.0,39.0,61.0,28.0,1.0,-1.0,10.0,37.0,1650823843191205.0
13.0,13.0,34.0,18.0,24.0,11.0,-4.0,-11.0,1650823843213983.0
-36.0,-25.0,-36.0,-23.0,-5.0,2.0,33.0,48.0,1650823843213983.0
0.0,-17.0,5.0,7.0,-11.0,-13.0,-14.0,-21.0,1650823843213983.0
6.0,-6.0,1.0,-3.0,-16.0,1.0,5.0,-13.0,1650823843213983.0
8.0,7.0,-36.0,-27.0,-9.0,-11.0,-33.0,-23.0,1650823843235992.0
1.0,23.0,86.0,54.0,15.0,2.0,-18.0,-21.0,1650823843235992.0
-23.0,-49.0,-106.0,-72.0,-15.0,-8.0,-7.0,-5.0,1650823843243913.0
-7.0,-12.0,-3.0,3.0,-1.0,2.0,13.0,8.0,1650823843243913.0
-13.0,-23.0,-6.0,-9.0,-14.0,-7.0,7.0,10.0,1650823843250886.0
-4.0,-21.0,-33.0,-20.0,-13.0,-8.0,-22.0,-24.0,1650823843250886.0
20.0,45.0,21.0,50.0,28.0,20.0,23.0,30.0,1650823843258871.0
2.0,-31.0,-11.0,-46.0,12.0,6.0,1.0,19.0,1650823843258871.0
-12.0,1.0,-39.0,-25.0,-17.0,-13.0,0.0,5.0,1650823843273824.0
-6.0,-23.0,26.0,-6.0,-15.0,-3.0,-10.0,-24.0,1650823843273824.0
-19.0,-36.0,-19.0,-17.0,-13.0,-17.0,-18.0,-58.0,1650823843273824.0
9.0,52.0,36.0,40.0,13.0,0.0,1.0,-10.0,1650823843273824.0
5.0,-16.0,24.0,46.0,20.0,9.0,0.0,11.0,1650823843296867.0
-7.0,25.0,-11.0,-43.0,-23.0,-12.0,-5.0,-20.0,1650823843296867.0
28.0,36.0,44.0,16.0,2.0,0.0,16.0,66.0,1650823843297797.0
-12.0,-21.0,-3.0,10.0,-26.0,-10.0,18.0,20.0,1650823843297797.0
-20.0,-32.0,-47.0,-25.0,-15.0,-10.0,-19.0,-22.0,1650823843310831.0
20.0,17.0,24.0,9.0,13.0,11.0,-4.0,7.0,1650823843310831.0
-6.0,-17.0,-34.0,3.0,7.0,5.0,-9.0,20.0,1650823843325874.0
9.0,29.0,39.0,20.0,11.0,1.0,3.0,7.0,1650823843325874.0
-11.0,7.0,-6.0,-10.0,-14.0,-6.0,23.0,-16.0,1650823843334849.0
-1.0,-7.0,16.0,33.0,6.0,6.0,5.0,21.0,1650823843334849.0
-3.0,-37.0,-25.0,-49.0,-11.0,-12.0,1.0,48.0,1650823843335847.0
-14.0,-30.0,-67.0,-33.0,-17.0,-6.0,-6.0,-21.0,1650823843335847.0
-8.0,-7.0,8.0,-6.0,4.0,3.0,-14.0,-41.0,1650823843356853.0
0.0,-48.0,-88.0,-32.0,-15.0,-9.0,7.0,55.0,1650823843356853.0
-4.0,69.0,119.0,49.0,5.0,-4.0,8.0,11.0,1650823843357788.0
3.0,7.0,9.0,0.0,8.0,9.0,-8.0,-12.0,1650823843357788.0
-19.0,-40.0,-15.0,-32.0,-30.0,-18.0,-19.0,-25.0,1650823843370793.0
23.0,42.0,13.0,13.0,18.0,7.0,20.0,53.0,1650823843370793.0
12.0,38.0,51.0,27.0,2.0,3.0,2.0,-34.0,1650823843378799.0
3.0,-30.0,-73.0,2.0,-1.0,1.0,-11.0,-18.0,1650823843378799.0
-10.0,43.0,79.0,12.0,8.0,-1.0,15.0,31.0,1650823843393759.0
9.0,6.0,8.0,2.0,4.0,2.0,5.0,-16.0,1650823843393759.0
6.0,-17.0,-31.0,-5.0,2.0,4.0,-19.0,9.0,1650823843394691.0
13.0,15.0,32.0,20.0,11.0,1.0,-4.0,-7.0,1650823843394691.0
9.0,-12.0,-25.0,5.0,12.0,15.0,-6.0,-14.0,1650823843416658.0
5.0,-15.0,0.0,-5.0,-6.0,-16.0,4.0,21.0,1650823843416658.0
2.0,12.0,-11.0,-10.0,-1.0,-1.0,25.0,14.0,1650823843417628.0
-15.0,-58.0,-14.0,-14.0,-7.0,-7.0,-9.0,-16.0,1650823843417628.0
19.0,78.0,43.0,53.0,2.0,9.0,9.0,12.0,1650823843430620.0
-15.0,-57.0,-60.0,-79.0,13.0,6.0,-3.0,-19.0,1650823843430620.0
-10.0,-24.0,-59.0,-27.0,2.0,-5.0,-14.0,-20.0,1650823843438600.0
-6.0,33.0,90.0,-4.0,-25.0,-14.0,-6.0,-10.0,1650823843438600.0
-7.0,-72.0,-55.0,-2.0,11.0,1.0,-2.0,21.0,1650823843453559.0
10.0,30.0,29.0,30.0,7.0,0.0,-3.0,-22.0,1650823843453559.0
-9.0,-24.0,-37.0,-24.0,-14.0,-5.0,3.0,5.0,1650823843454529.0
-10.0,-11.0,-29.0,-4.0,6.0,7.0,9.0,-5.0,1650823843454529.0
17.0,19.0,23.0,14.0,7.0,8.0,7.0,49.0,1650823843476471.0
18.0,24.0,28.0,24.0,9.0,7.0,5.0,6.0,1650823843476471.0
-18.0,-49.0,-59.0,-41.0,-12.0,-3.0,6.0,-19.0,1650823843476471.0
18.0,14.0,-7.0,1.0,-5.0,-2.0,-28.0,65.0,1650823843476471.0
0.0,10.0,7.0,-18.0,-11.0,-21.0,-21.0,-6.0,1650823843490433.0
-4.0,-28.0,-9.0,5.0,-2.0,-2.0,2.0,-26.0,1650823843490433.0
2.0,13.0,18.0,28.0,7.0,7.0,7.0,14.0,1650823843498412.0
6.0,33.0,5.0,9.0,23.0,15.0,9.0,11.0,1650823843498412.0
-10.0,-37.0,55.0,28.0,-2.0,-7.0,4.0,-49.0,1650823843513470.0
-18.0,-72.0,-101.0,-101.0,-47.0,-28.0,-38.0,-23.0,1650823843513470.0
12.0,54.0,103.0,39.0,-3.0,-5.0,7.0,20.0,1650823843514401.0
-13.0,-17.0,22.0,-4.0,0.0,2.0,-3.0,-27.0,1650823843514401.0
10.0,31.0,49.0,46.0,7.0,3.0,5.0,44.0,1650823843536349.0
-19.0,-31.0,-35.0,-27.0,10.0,1.0,-6.0,-71.0,1650823843536349.0
7.0,36.0,-2.0,7.0,-2.0,4.0,2.0,12.0,1650823843536349.0
-19.0,-33.0,-52.0,-39.0,0.0,-5.0,-6.0,-42.0,1650823843536349.0
5.0,3.0,-30.0,-6.0,3.0,2.0,1.0,20.0,1650823843550372.0
6.0,50.0,53.0,38.0,7.0,6.0,19.0,55.0,1650823843550372.0
-15.0,-35.0,-15.0,18.0,-4.0,-5.0,-5.0,-8.0,1650823843558335.0
3.0,6.0,-7.0,3.0,-2.0,-12.0,-24.0,-2.0,1650823843558335.0
-18.0,-18.0,-45.0,-39.0,-15.0,-1.0,7.0,14.0,1650823843573243.0
20.0,25.0,57.0,48.0,14.0,6.0,-30.0,-39.0,1650823843573243.0
-33.0,-15.0,-60.0,-35.0,3.0,-1.0,-11.0,-44.0,1650823843574245.0
-1.0,49.0,114.0,83.0,9.0,3.0,8.0,6.0,1650823843574245.0
-16.0,-84.0,-100.0,-103.0,-26.0,-11.0,0.0,-17.0,1650823843596210.0
10.0,24.0,55.0,31.0,-14.0,4.0,16.0,44.0,1650823843596210.0
10.0,13.0,95.0,65.0,26.0,5.0,-1.0,8.0,1650823843603191.0
-13.0,-37.0,-97.0,-97.0,-31.0,-17.0,1.0,-21.0,1650823843603191.0
10.0,22.0,48.0,35.0,17.0,11.0,2.0,0.0,1650823843619152.0
21.0,56.0,49.0,39.0,22.0,16.0,17.0,20.0,1650823843619152.0
1.0,-22.0,7.0,3.0,-8.0,-6.0,-8.0,-13.0,1650823843620139.0
7.0,19.0,-38.0,-15.0,-11.0,-5.0,12.0,-5.0,1650823843620139.0
-16.0,-40.0,-29.0,-14.0,-5.0,-9.0,-16.0,23.0,1650823843634148.0
4.0,11.0,-7.0,-14.0,-13.0,-3.0,27.0,-19.0,1650823843634148.0
8.0,33.0,42.0,36.0,23.0,15.0,7.0,2.0,1650823843635106.0
-4.0,1.0,4.0,12.0,9.0,6.0,10.0,-11.0,1650823843635106.0
18.0,26.0,-6.0,-12.0,-1.0,-2.0,-34.0,-11.0,1650823843656800.0
-5.0,-7.0,33.0,27.0,5.0,2.0,18.0,30.0,1650823843656800.0
4.0,-12.0,-72.0,-55.0,-7.0,-2.0,13.0,-5.0,1650823843657731.0
-13.0,-42.0,10.0,15.0,-7.0,-5.0,-12.0,-22.0,1650823843657731.0
-6.0,15.0,33.0,30.0,-13.0,-9.0,0.0,1.0,1650823843678896.0
-13.0,-33.0,-69.0,-36.0,26.0,13.0,-15.0,-7.0,1650823843678896.0
4.0,-27.0,-22.0,-7.0,-2.0,5.0,2.0,9.0,1650823843679826.0
7.0,21.0,50.0,20.0,4.0,5.0,2.0,21.0,1650823843679826.0
5.0,22.0,12.0,14.0,9.0,10.0,16.0,-9.0,1650823843693904.0
4.0,16.0,20.0,-7.0,-17.0,-16.0,-21.0,-18.0,1650823843693904.0
-11.0,-5.0,-21.0,-22.0,-11.0,-7.0,-5.0,24.0,1650823843693904.0
4.0,3.0,24.0,15.0,0.0,-3.0,-3.0,-7.0,1650823843693904.0
10.0,14.0,42.0,22.0,7.0,4.0,8.0,22.0,1650823843715742.0
-23.0,-20.0,-39.0,2.0,-6.0,-2.0,0.0,7.0,1650823843715742.0
14.0,16.0,23.0,-6.0,1.0,4.0,19.0,-22.0,1650823843723932.0
3.0,-2.0,-11.0,9.0,4.0,3.0,2.0,50.0,1650823843723932.0
5.0,1.0,-30.0,-22.0,1.0,3.0,13.0,-39.0,1650823843739684.0
-2.0,17.0,25.0,5.0,-5.0,-6.0,-35.0,6.0,1650823843739684.0
19.0,-18.0,-40.0,-24.0,-10.0,-7.0,-6.0,0.0,1650823843739684.0
-40.0,-15.0,23.0,31.0,12.0,3.0,2.0,25.0,1650823843739684.0
-1.0,2.0,-1.0,-23.0,-7.0,-2.0,9.0,7.0,1650823843753895.0
-15.0,-32.0,29.0,12.0,-7.0,-5.0,-12.0,-49.0,1650823843753895.0
4.0,9.0,-3.0,-1.0,15.0,7.0,-1.0,35.0,1650823843754074.0
6.0,17.0,32.0,26.0,3.0,2.0,0.0,-32.0,1650823843754074.0
-23.0,-50.0,-123.0,-87.0,-16.0,-12.0,-9.0,0.0,1650823843776281.0
-1.0,10.0,38.0,-7.0,-10.0,-4.0,11.0,9.0,1650823843776281.0
-2.0,-5.0,18.0,19.0,-6.0,-5.0,-11.0,-20.0,1650823843777270.0
2.0,19.0,5.0,-5.0,7.0,3.0,-16.0,-19.0,1650823843777270.0
14.0,40.0,71.0,42.0,9.0,4.0,5.0,-6.0,1650823843799632.0
5.0,-2.0,-28.0,-19.0,0.0,-1.0,33.0,34.0,1650823843799632.0
-11.0,-16.0,-10.0,8.0,1.0,0.0,-20.0,-8.0,1650823843799632.0
15.0,3.0,-16.0,-18.0,-8.0,-6.0,18.0,22.0,1650823843799632.0
-7.0,-3.0,-8.0,2.0,-1.0,1.0,-22.0,-3.0,1650823843813664.0
1.0,14.0,25.0,30.0,6.0,-3.0,-5.0,-76.0,1650823843813664.0
-23.0,-23.0,-51.0,-45.0,-17.0,-9.0,4.0,24.0,1650823843814601.0
11.0,-8.0,27.0,17.0,-4.0,-4.0,-5.0,4.0,1650823843814601.0
15.0,-49.0,-68.0,-23.0,2.0,1.0,12.0,-12.0,1650823843835600.0
-11.0,4.0,-7.0,-10.0,9.0,12.0,20.0,48.0,1650823843835600.0
-13.0,-10.0,-29.0,-21.0,-3.0,-5.0,-17.0,-43.0,1650823843851500.0
-2.0,-19.0,-34.0,-23.0,-7.0,-2.0,7.0,7.0,1650823843851500.0
3.0,33.0,86.0,29.0,1.0,0.0,5.0,5.0,1650823843859478.0
-7.0,-11.0,-52.0,-14.0,4.0,1.0,-19.0,-53.0,1650823843859478.0
5.0,0.0,29.0,-10.0,-17.0,-12.0,-18.0,-18.0,1650823843859478.0
8.0,4.0,11.0,14.0,-1.0,-3.0,8.0,23.0,1650823843859478.0
-3.0,-5.0,21.0,18.0,7.0,3.0,-6.0,-12.0,1650823843881559.0
-2.0,-17.0,-35.0,-12.0,-10.0,-11.0,-16.0,62.0,1650823843881559.0
3.0,-2.0,1.0,31.0,5.0,10.0,9.0,-46.0,1650823843882491.0
0.0,-16.0,-25.0,-26.0,-3.0,-7.0,-18.0,-24.0,1650823843882491.0
6.0,37.0,21.0,11.0,1.0,1.0,9.0,62.0,1650823843896497.0
1.0,6.0,1.0,-8.0,-2.0,0.0,12.0,-12.0,1650823843896497.0
-2.0,-21.0,-4.0,7.0,4.0,4.0,-3.0,9.0,1650823843896497.0
27.0,39.0,37.0,24.0,-1.0,-4.0,-3.0,-8.0,1650823843896497.0
-22.0,-29.0,-52.0,-26.0,3.0,7.0,-6.0,-36.0,1650823843919458.0
-13.0,7.0,-33.0,-37.0,-22.0,-13.0,8.0,34.0,1650823843919458.0
37.0,25.0,78.0,51.0,23.0,15.0,12.0,43.0,1650823843920399.0
-25.0,-21.0,-83.0,-63.0,-1.0,0.0,2.0,23.0,1650823843920399.0
-8.0,22.0,68.0,4.0,-10.0,-6.0,9.0,-6.0,1650823843933872.0
13.0,16.0,21.0,21.0,1.0,-8.0,-21.0,-10.0,1650823843933872.0
3.0,-29.0,-19.0,-5.0,-6.0,-8.0,7.0,44.0,1650823843934433.0
0.0,30.0,55.0,29.0,4.0,5.0,-7.0,-11.0,1650823843934433.0
-3.0,-18.0,-80.0,-11.0,-2.0,-4.0,-6.0,-23.0,1650823843955823.0
0.0,-13.0,11.0,-3.0,3.0,10.0,6.0,11.0,1650823843955823.0
-9.0,23.0,14.0,6.0,-5.0,-4.0,-4.0,-60.0,1650823843956821.0
30.0,2.0,-25.0,5.0,5.0,3.0,13.0,41.0,1650823843956821.0
-9.0,8.0,20.0,6.0,3.0,-3.0,23.0,-16.0,1650823843978762.0
2.0,-32.0,17.0,14.0,7.0,7.0,-32.0,-48.0,1650823843978762.0
11.0,9.0,14.0,18.0,5.0,-2.0,-5.0,-28.0,1650823843979760.0
-20.0,-27.0,-20.0,-5.0,-16.0,-5.0,-7.0,-49.0,1650823843979760.0
6.0,7.0,-26.0,-28.0,11.0,3.0,-1.0,2.0,1650823844001768.0
-11.0,-27.0,5.0,-23.0,-15.0,-6.0,0.0,-19.0,1650823844001768.0
16.0,30.0,-25.0,17.0,-4.0,-2.0,17.0,60.0,1650823844002699.0
-19.0,-14.0,20.0,-27.0,-8.0,-8.0,-3.0,-12.0,1650823844002699.0
27.0,39.0,21.0,52.0,33.0,22.0,4.0,15.0,1650823844015728.0
-20.0,-10.0,32.0,-53.0,-19.0,-13.0,-6.0,-8.0,1650823844015728.0
-33.0,41.0,52.0,-11.0,-10.0,-5.0,-2.0,26.0,1650823844016675.0
7.0,16.0,16.0,7.0,-10.0,-4.0,1.0,1.0,1650823844016675.0
13.0,5.0,23.0,41.0,22.0,5.0,-10.0,-1.0,1650823844039638.0
2.0,20.0,-13.0,14.0,11.0,14.0,20.0,-11.0,1650823844039638.0
3.0,-28.0,-34.0,-32.0,-14.0,-7.0,-38.0,-2.0,1650823844039638.0
1.0,5.0,-1.0,15.0,4.0,-3.0,2.0,3.0,1650823844039638.0
-11.0,-9.0,-5.0,-6.0,-8.0,0.0,13.0,11.0,1650823844053563.0
11.0,-7.0,-24.0,6.0,3.0,-1.0,-15.0,3.0,1650823844053563.0
4.0,-7.0,11.0,-6.0,-7.0,-1.0,19.0,64.0,1650823844054569.0
-24.0,0.0,-5.0,13.0,1.0,-3.0,-7.0,-56.0,1650823844054569.0
-2.0,-1.0,20.0,23.0,10.0,6.0,-11.0,-29.0,1650823844075611.0
-1.0,4.0,-69.0,-21.0,1.0,6.0,5.0,-17.0,1650823844075611.0
6.0,-41.0,82.0,18.0,11.0,9.0,10.0,-15.0,1650823844076582.0
-2.0,-32.0,-68.0,-82.0,-23.0,-10.0,-9.0,31.0,1650823844076582.0
-4.0,3.0,25.0,-3.0,-21.0,-14.0,-8.0,-9.0,1650823844098874.0
12.0,42.0,53.0,58.0,7.0,2.0,9.0,15.0,1650823844098874.0
3.0,25.0,-3.0,16.0,19.0,10.0,7.0,-6.0,1650823844099804.0
-15.0,-25.0,-14.0,-7.0,4.0,-4.0,-16.0,-28.0,1650823844099804.0
-3.0,-26.0,18.0,5.0,-3.0,1.0,8.0,13.0,1650823844113876.0
-8.0,-20.0,-56.0,-15.0,-6.0,-4.0,18.0,57.0,1650823844113876.0
-9.0,11.0,-5.0,-10.0,-7.0,-3.0,-6.0,-59.0,1650823844113876.0
7.0,1.0,20.0,17.0,3.0,1.0,-14.0,19.0,1650823844113876.0
-13.0,4.0,-28.0,-19.0,-12.0,-3.0,5.0,-31.0,1650823844135932.0
5.0,9.0,46.0,28.0,14.0,-4.0,-6.0,11.0,1650823844135932.0
-7.0,-15.0,-55.0,-27.0,-9.0,-6.0,10.0,-5.0,1650823844136902.0
5.0,8.0,9.0,21.0,9.0,8.0,2.0,-4.0,1650823844136902.0
14.0,61.0,81.0,51.0,13.0,16.0,8.0,16.0,1650823844159852.0
-8.0,-27.0,-45.0,-69.0,-18.0,-3.0,5.0,-11.0,1650823844159852.0
-25.0,-23.0,-31.0,-4.0,-4.0,-19.0,-22.0,-24.0,1650823844160840.0
15.0,17.0,26.0,20.0,7.0,7.0,14.0,12.0,1650823844160840.0
9.0,2.0,-4.0,-9.0,-7.0,-7.0,-11.0,13.0,1650823844173803.0
12.0,25.0,51.0,32.0,7.0,2.0,9.0,7.0,1650823844173803.0
3.0,12.0,-9.0,-7.0,-1.0,6.0,6.0,32.0,1650823844173803.0
-1.0,3.0,5.0,1.0,1.0,1.0,3.0,21.0,1650823844173803.0
-11.0,-26.0,-47.0,-12.0,-13.0,-18.0,-21.0,3.0,1650823844195748.0
8.0,-2.0,-16.0,-5.0,4.0,7.0,18.0,7.0,1650823844195748.0
-4.0,-11.0,2.0,-8.0,-6.0,-2.0,-4.0,2.0,1650823844196742.0
3.0,9.0,8.0,11.0,11.0,15.0,-1.0,48.0,1650823844196742.0
-7.0,-16.0,-15.0,-18.0,-6.0,-7.0,-21.0,-58.0,1650823844218755.0
5.0,3.0,29.0,19.0,2.0,-2.0,6.0,10.0,1650823844218755.0
22.0,13.0,2.0,10.0,-1.0,-3.0,-7.0,-11.0,1650823844219725.0
-22.0,-4.0,-24.0,-14.0,-6.0,-4.0,7.0,9.0,1650823844219725.0
1.0,9.0,-7.0,-17.0,1.0,-3.0,-2.0,12.0,1650823844232690.0
-14.0,-63.0,-16.0,-10.0,-16.0,-9.0,-15.0,-7.0,1650823844232690.0
-4.0,17.0,23.0,7.0,14.0,9.0,11.0,-11.0,1650823844240697.0
14.0,14.0,11.0,1.0,8.0,7.0,-2.0,-18.0,1650823844240697.0
0.0,-19.0,-9.0,-2.0,-4.0,-2.0,3.0,13.0,1650823844255787.0
-3.0,16.0,-10.0,-2.0,-3.0,-6.0,0.0,-5.0,1650823844255787.0
2.0,-9.0,-5.0,2.0,-8.0,-1.0,2.0,10.0,1650823844256721.0
1.0,-6.0,9.0,1.0,-2.0,-4.0,1.0,-19.0,1650823844256721.0
3.0,-3.0,-20.0,-11.0,-4.0,1.0,15.0,14.0,1650823844279412.0
5.0,12.0,13.0,14.0,3.0,0.0,-5.0,13.0,1650823844279412.0
-11.0,-10.0,-11.0,-8.0,-3.0,-3.0,-4.0,-2.0,1650823844280407.0
1.0,4.0,5.0,4.0,7.0,3.0,20.0,0.0,1650823844280407.0
-1.0,-7.0,3.0,-2.0,-5.0,-1.0,-27.0,12.0,1650823844292988.0
7.0,9.0,7.0,2.0,-6.0,-6.0,-18.0,28.0,1650823844292988.0
12.0,12.0,1.0,5.0,9.0,10.0,5.0,-12.0,1650823844300928.0
3.0,5.0,16.0,7.0,10.0,10.0,-1.0,-18.0,1650823844300928.0
-7.0,-14.0,-16.0,-11.0,-1.0,-7.0,13.0,17.0,1650823844315927.0
0.0,12.0,19.0,10.0,0.0,3.0,6.0,4.0,1650823844315927.0
5.0,30.0,18.0,7.0,0.0,1.0,-4.0,11.0,1650823844316858.0
-4.0,-48.0,-33.0,-5.0,-10.0,-6.0,2.0,-1.0,1650823844316858.0
6.0,15.0,8.0,-3.0,6.0,7.0,1.0,1.0,1650823844346953.0
0.0,7.0,6.0,10.0,5.0,4.0,0.0,-10.0,1650823844346953.0
-2.0,2.0,0.0,-16.0,-5.0,-2.0,6.0,-3.0,1650823844347887.0
2.0,1.0,-4.0,1.0,-3.0,-4.0,-3.0,-10.0,1650823844347887.0
-2.0,-5.0,-5.0,4.0,-1.0,0.0,2.0,4.0,1650823844352902.0
-5.0,-3.0,7.0,-10.0,-5.0,-6.0,-8.0,-20.0,1650823844352902.0
-1.0,-6.0,2.0,6.0,-1.0,2.0,2.0,4.0,1650823844360854.0
3.0,9.0,8.0,3.0,1.0,-4.0,0.0,8.0,1650823844360854.0
-5.0,-12.0,-16.0,-12.0,-1.0,2.0,-8.0,-7.0,1650823844375839.0
5.0,14.0,7.0,7.0,-4.0,-5.0,4.0,-8.0,1650823844375839.0
-6.0,-14.0,-5.0,0.0,3.0,1.0,5.0,4.0,1650823844376810.0
-1.0,4.0,3.0,1.0,-1.0,-6.0,-6.0,-3.0,1650823844376810.0
5.0,11.0,11.0,11.0,11.0,10.0,6.0,-7.0,1650823844398818.0
4.0,-3.0,-7.0,-7.0,4.0,4.0,1.0,-6.0,1650823844398818.0
-6.0,-7.0,-8.0,-9.0,-8.0,-5.0,-4.0,-2.0,1650823844399770.0
-9.0,0.0,-6.0,-1.0,-9.0,-6.0,-4.0,-4.0,1650823844399770.0
-3.0,-5.0,24.0,-2.0,-6.0,-2.0,3.0,-1.0,1650823844412729.0
6.0,-1.0,-9.0,7.0,8.0,4.0,3.0,3.0,1650823844412729.0
11.0,19.0,-12.0,7.0,1.0,-2.0,-5.0,-1.0,1650823844420692.0
4.0,-7.0,10.0,-12.0,-6.0,-5.0,-1.0,-2.0,1650823844420692.0
-4.0,13.0,-1.0,-1.0,-3.0,-4.0,-3.0,-6.0,1650823844436680.0
-2.0,0.0,8.0,1.0,3.0,4.0,-1.0,-3.0,1650823844436680.0
-9.0,-3.0,4.0,9.0,3.0,2.0,4.0,1.0,1650823844437647.0
9.0,0.0,-12.0,1.0,4.0,5.0,1.0,-1.0,1650823844437647.0
0.0,-5.0,6.0,-8.0,-6.0,-4.0,-1.0,0.0,1650823844466735.0
1.0,13.0,12.0,16.0,-1.0,-6.0,0.0,-2.0,1650823844466735.0
1.0,-17.0,-13.0,-18.0,-9.0,-6.0,-5.0,-5.0,1650823844467664.0
8.0,10.0,3.0,-1.0,2.0,9.0,4.0,5.0,1650823844467664.0
4.0,-2.0,-2.0,6.0,9.0,8.0,7.0,6.0,1650823844480697.0
1.0,11.0,0.0,6.0,7.0,2.0,0.0,1.0,1650823844480697.0
-36.0,-17.0,2.0,1.0,-7.0,-8.0,-7.0,-8.0,1650823844488675.0
-14.0,-13.0,-16.0,-19.0,-15.0,-10.0,-6.0,-12.0,1650823844488675.0
31.0,0.0,0.0,-1.0,-3.0,-2.0,3.0,7.0,1650823844495589.0
-5.0,6.0,0.0,0.0,4.0,3.0,-2.0,-3.0,1650823844495589.0
-33.0,-2.0,2.0,4.0,4.0,4.0,0.0,-5.0,1650823844496591.0
3.0,6.0,7.0,5.0,4.0,-2.0,-3.0,1.0,1650823844496591.0
2.0,-6.0,-12.0,-1.0,-5.0,-4.0,-4.0,-1.0,1650823844518727.0
11.0,-3.0,-7.0,-4.0,-1.0,2.0,0.0,2.0,1650823844518727.0
16.0,5.0,7.0,2.0,-3.0,-4.0,5.0,6.0,1650823844519677.0
5.0,18.0,16.0,11.0,8.0,4.0,2.0,3.0,1650823844519677.0
7.0,3.0,-6.0,-11.0,-9.0,-1.0,1.0,1.0,1650823844532650.0
-17.0,6.0,-1.0,1.0,9.0,-1.0,-3.0,-4.0,1650823844532650.0
-5.0,-18.0,-18.0,-12.0,-10.0,-5.0,-4.0,-4.0,1650823844540599.0
4.0,-13.0,3.0,1.0,-4.0,-5.0,2.0,1.0,1650823844540599.0
-11.0,-4.0,4.0,-4.0,-2.0,-3.0,-2.0,-3.0,1650823844556237.0
-2.0,-2.0,8.0,0.0,5.0,4.0,-2.0,-3.0,1650823844556237.0
14.0,9.0,2.0,3.0,1.0,2.0,0.0,3.0,1650823844557235.0
9.0,2.0,-4.0,10.0,11.0,12.0,8.0,8.0,1650823844557235.0
-15.0,-3.0,-4.0,-11.0,-4.0,-11.0,-4.0,-3.0,1650823844586429.0
3.0,2.0,-1.0,-2.0,-7.0,-1.0,-3.0,-2.0,1650823844586429.0
-1.0,-13.0,0.0,9.0,1.0,-1.0,0.0,1.0,1650823844587399.0
-2.0,4.0,-4.0,-15.0,-8.0,-7.0,-8.0,-6.0,1650823844587399.0
3.0,5.0,-4.0,7.0,1.0,0.0,0.0,4.0,1650823844601388.0
26.0,-1.0,-1.0,-1.0,4.0,6.0,9.0,8.0,1650823844601388.0
1.0,-3.0,0.0,-4.0,-2.0,-4.0,-6.0,-6.0,1650823844602364.0
-16.0,10.0,-12.0,5.0,8.0,4.0,2.0,-6.0,1650823844602364.0
-14.0,-8.0,3.0,8.0,7.0,1.0,-2.0,-5.0,1650823844616403.0
-18.0,-33.0,-6.0,-5.0,-7.0,-10.0,-6.0,-5.0,1650823844616403.0
22.0,5.0,5.0,1.0,1.0,6.0,0.0,4.0,1650823844616403.0
-10.0,3.0,2.0,-1.0,-15.0,-12.0,2.0,1.0,1650823844616403.0
3.0,-3.0,-1.0,-1.0,1.0,-2.0,0.0,0.0,1650823844639365.0
6.0,12.0,-1.0,5.0,0.0,6.0,5.0,3.0,1650823844639365.0
4.0,6.0,11.0,0.0,9.0,0.0,0.0,3.0,1650823844640360.0
-2.0,-12.0,-1.0,0.0,-4.0,-3.0,-4.0,-1.0,1650823844640360.0
2.0,2.0,2.0,0.0,-9.0,-6.0,-4.0,-3.0,1650823844661283.0
6.0,7.0,-1.0,3.0,4.0,2.0,0.0,-3.0,1650823844661283.0
-15.0,-14.0,-5.0,-7.0,0.0,2.0,-2.0,-2.0,1650823844662294.0
1.0,0.0,-3.0,-4.0,-2.0,-1.0,0.0,0.0,1650823844662294.0
-3.0,-7.0,-5.0,1.0,-2.0,-5.0,-2.0,-2.0,1650823844676308.0
7.0,6.0,7.0,7.0,4.0,7.0,7.0,7.0,1650823844676308.0
2.0,11.0,-2.0,2.0,6.0,8.0,5.0,6.0,1650823844676308.0
-2.0,-9.0,-6.0,2.0,-5.0,-7.0,-3.0,-6.0,1650823844676308.0
-10.0,-4.0,-3.0,1.0,5.0,0.0,-7.0,-9.0,1650823844699250.0
-5.0,-2.0,1.0,1.0,-12.0,-11.0,-7.0,-4.0,1650823844699250.0
9.0,3.0,-6.0,-14.0,-8.0,-3.0,0.0,-1.0,1650823844700180.0
-2.0,3.0,6.0,0.0,16.0,11.0,6.0,8.0,1650823844700180.0
-2.0,-1.0,2.0,5.0,-8.0,-5.0,6.0,2.0,1650823844722195.0
-12.0,-5.0,-5.0,-6.0,9.0,1.0,-3.0,-3.0,1650823844722195.0
3.0,-3.0,4.0,6.0,-3.0,-2.0,0.0,1.0,1650823844722195.0
0.0,1.0,11.0,4.0,-7.0,-2.0,-6.0,-3.0,1650823844722195.0
3.0,-1.0,-5.0,-3.0,3.0,4.0,-1.0,-1.0,1650823844736245.0
-1.0,-1.0,0.0,-3.0,-14.0,-5.0,-6.0,-2.0,1650823844736245.0
0.0,6.0,2.0,5.0,1.0,1.0,2.0,1.0,1650823844737179.0
4.0,-18.0,-29.0,-10.0,-4.0,-7.0,-7.0,-6.0,1650823844737179.0
-1.0,4.0,3.0,1.0,0.0,3.0,2.0,3.0,1650823844758922.0
-6.0,-12.0,-3.0,-4.0,6.0,1.0,-2.0,-2.0,1650823844758922.0
7.0,8.0,6.0,2.0,4.0,2.0,2.0,-1.0,1650823844759892.0
19.0,17.0,10.0,2.0,0.0,5.0,0.0,-7.0,1650823844759892.0
-10.0,-25.0,-15.0,2.0,7.0,-2.0,1.0,3.0,1650823844781900.0
-10.0,-8.0,-3.0,-11.0,-15.0,-11.0,-9.0,-12.0,1650823844781900.0
-3.0,-7.0,-1.0,9.0,1.0,2.0,-3.0,-7.0,1650823844782831.0
6.0,9.0,4.0,-10.0,5.0,2.0,7.0,8.0,1650823844782831.0
1.0,8.0,0.0,-2.0,-5.0,2.0,3.0,2.0,1650823844795850.0
-4.0,3.0,-1.0,-7.0,5.0,1.0,1.0,1.0,1650823844795850.0
3.0,2.0,0.0,3.0,-3.0,-2.0,-1.0,2.0,1650823844796847.0
-4.0,4.0,7.0,8.0,11.0,4.0,-1.0,3.0,1650823844796847.0
-3.0,-1.0,-1.0,-7.0,-9.0,-4.0,-2.0,-2.0,1650823844819698.0
-1.0,-1.0,-2.0,2.0,0.0,-5.0,2.0,1.0,1650823844819698.0
-1.0,1.0,-3.0,-4.0,-7.0,-6.0,-1.0,-1.0,1650823844819698.0
-4.0,-6.0,-3.0,-4.0,0.0,5.0,-2.0,-1.0,1650823844819698.0
0.0,1.0,-2.0,-2.0,2.0,-5.0,-4.0,-1.0,1650823844841629.0
3.0,-6.0,-14.0,0.0,-5.0,-2.0,1.0,1.0,1650823844841629.0
-3.0,2.0,7.0,-1.0,3.0,0.0,0.0,3.0,1650823844842618.0
-1.0,4.0,1.0,2.0,1.0,-3.0,-3.0,-4.0,1650823844842618.0
2.0,-3.0,-2.0,3.0,3.0,3.0,-2.0,0.0,1650823844871664.0
2.0,2.0,2.0,-4.0,-8.0,-7.0,-3.0,-1.0,1650823844871664.0
-4.0,4.0,-1.0,1.0,14.0,6.0,5.0,5.0,1650823844872633.0
-6.0,-3.0,5.0,-2.0,-13.0,-1.0,0.0,1.0,1650823844872633.0
13.0,5.0,1.0,6.0,2.0,-2.0,-2.0,1.0,1650823844879615.0
-11.0,4.0,1.0,1.0,0.0,2.0,-1.0,1.0,1650823844879615.0
21.0,-8.0,-7.0,-7.0,-3.0,-7.0,-8.0,-7.0,1650823844879615.0
-5.0,-3.0,-3.0,-3.0,5.0,2.0,3.0,2.0,1650823844879615.0
-4.0,-1.0,-1.0,-1.0,3.0,4.0,0.0,-1.0,1650823844901785.0
-1.0,0.0,3.0,-1.0,-7.0,-4.0,-3.0,-1.0,1650823844901785.0
-2.0,6.0,-1.0,-1.0,5.0,3.0,0.0,2.0,1650823844902743.0
-2.0,-5.0,-1.0,2.0,-13.0,-2.0,2.0,1.0,1650823844902743.0
-2.0,2.0,1.0,-1.0,5.0,2.0,0.0,-6.0,1650823844915741.0
-1.0,1.0,1.0,3.0,0.0,1.0,2.0,4.0,1650823844915741.0
-7.0,-6.0,-5.0,-1.0,-5.0,-1.0,-1.0,-3.0,1650823844916669.0
2.0,-1.0,-1.0,-1.0,0.0,-5.0,-4.0,-1.0,1650823844916669.0
-7.0,0.0,0.0,-3.0,-2.0,0.0,0.0,-9.0,1650823844939657.0
6.0,2.0,11.0,4.0,-6.0,-1.0,-1.0,1.0,1650823844939657.0
-7.0,-13.0,-21.0,-7.0,-2.0,-5.0,0.0,-1.0,1650823844939657.0
10.0,3.0,-2.0,0.0,3.0,0.0,-2.0,-2.0,1650823844939657.0
-2.0,-1.0,-1.0,-2.0,-3.0,3.0,0.0,3.0,1650823844961601.0
-3.0,-9.0,2.0,-1.0,6.0,2.0,0.0,-4.0,1650823844961601.0
-2.0,5.0,3.0,0.0,-5.0,3.0,-1.0,-2.0,1650823844962612.0
-6.0,6.0,10.0,7.0,0.0,-6.0,-1.0,3.0,1650823844962612.0
8.0,-9.0,-14.0,-2.0,1.0,0.0,4.0,4.0,1650823844975591.0
-11.0,-8.0,-7.0,2.0,6.0,1.0,-2.0,-4.0,1650823844975591.0
-11.0,-7.0,-4.0,-3.0,-3.0,-3.0,-3.0,-4.0,1650823844976560.0
-3.0,0.0,1.0,0.0,-3.0,-1.0,-1.0,-2.0,1650823844976560.0
1.0,8.0,8.0,1.0,-2.0,-9.0,-1.0,3.0,1650823844999566.0
-14.0,-1.0,0.0,1.0,1.0,3.0,6.0,2.0,1650823844999566.0
41.0,8.0,-2.0,5.0,4.0,1.0,1.0,7.0,1650823844999566.0
-5.0,-5.0,4.0,6.0,5.0,2.0,-2.0,-3.0,1650823844999566.0
-2.0,2.0,0.0,-8.0,-25.0,-7.0,0.0,4.0,1650823845022652.0
-1.0,2.0,-3.0,-6.0,5.0,-3.0,0.0,-4.0,1650823845022652.0
-13.0,5.0,1.0,-4.0,0.0,2.0,2.0,1.0,1650823845022652.0
0.0,-3.0,-2.0,-2.0,3.0,2.0,-3.0,-1.0,1650823845022652.0
-2.0,-1.0,8.0,6.0,2.0,1.0,-1.0,3.0,1650823845035681.0
10.0,3.0,3.0,-1.0,-3.0,0.0,1.0,6.0,1650823845035681.0
-11.0,0.0,3.0,1.0,-3.0,3.0,2.0,-2.0,1650823845043961.0
2.0,-1.0,-3.0,6.0,6.0,0.0,0.0,-2.0,1650823845043961.0
-8.0,-5.0,-5.0,-2.0,0.0,-1.0,1.0,-1.0,1650823845058950.0
5.0,-2.0,-3.0,-6.0,-7.0,-5.0,-4.0,-1.0,1650823845058950.0
3.0,0.0,1.0,1.0,0.0,1.0,-2.0,-2.0,1650823845059921.0
10.0,9.0,6.0,-5.0,-4.0,1.0,6.0,11.0,1650823845059921.0
-21.0,-3.0,9.0,11.0,2.0,2.0,-4.0,-16.0,1650823845081928.0
-10.0,-7.0,-8.0,-8.0,10.0,-1.0,-6.0,-13.0,1650823845081928.0
6.0,-5.0,4.0,6.0,-1.0,-3.0,-2.0,5.0,1650823845082890.0
-19.0,4.0,2.0,-8.0,-10.0,-6.0,-2.0,-1.0,1650823845082890.0
11.0,10.0,-4.0,-10.0,15.0,6.0,2.0,3.0,1650823845095851.0
10.0,0.0,1.0,16.0,-13.0,2.0,0.0,2.0,1650823845095851.0
-11.0,1.0,4.0,-1.0,0.0,-5.0,3.0,1.0,1650823845096835.0
3.0,-3.0,-8.0,-23.0,-11.0,-7.0,-3.0,-4.0,1650823845096835.0
4.0,-2.0,-4.0,2.0,8.0,4.0,1.0,-1.0,1650823845118831.0
-5.0,1.0,0.0,3.0,5.0,2.0,1.0,1.0,1650823845118831.0
1.0,3.0,-3.0,1.0,-3.0,-2.0,0.0,1.0,1650823845119761.0
2.0,-7.0,-5.0,1.0,-3.0,-3.0,0.0,0.0,1650823845119761.0
-6.0,-1.0,-2.0,-4.0,-6.0,-1.0,-1.0,3.0,1650823845148839.0
7.0,-1.0,-1.0,-2.0,-3.0,-1.0,-1.0,9.0,1650823845148839.0
0.0,1.0,4.0,-1.0,-4.0,1.0,2.0,2.0,1650823845149768.0
-4.0,-4.0,-3.0,7.0,6.0,-2.0,-1.0,-4.0,1650823845149768.0
-2.0,-1.0,-2.0,2.0,0.0,5.0,1.0,5.0,1650823845154755.0
11.0,4.0,1.0,-3.0,3.0,6.0,2.0,1.0,1650823845154755.0
0.0,-2.0,-4.0,-6.0,0.0,-11.0,-7.0,-8.0,1650823845163799.0
10.0,2.0,2.0,1.0,-10.0,-3.0,0.0,11.0,1650823845163799.0
7.0,-11.0,-19.0,-4.0,10.0,1.0,-1.0,1.0,1650823845178712.0
2.0,8.0,6.0,4.0,-7.0,-3.0,3.0,1.0,1650823845178712.0
-5.0,-1.0,6.0,4.0,7.0,8.0,4.0,-2.0,1650823845179689.0
17.0,-3.0,-7.0,0.0,8.0,6.0,1.0,-13.0,1650823845179689.0
-23.0,12.0,-6.0,-5.0,-8.0,-1.0,-3.0,-8.0,1650823845201657.0
-32.0,-42.0,-8.0,-8.0,0.0,-7.0,-12.0,-15.0,1650823845201657.0
-1.0,-1.0,-4.0,1.0,-15.0,-6.0,-1.0,0.0,1650823845202647.0
-2.0,3.0,-1.0,-6.0,-6.0,-7.0,1.0,-2.0,1650823845202647.0
8.0,2.0,5.0,6.0,1.0,1.0,1.0,2.0,1650823845215660.0
6.0,7.0,0.0,3.0,16.0,10.0,2.0,0.0,1650823845215660.0
-10.0,-2.0,0.0,-5.0,-6.0,-7.0,-5.0,-3.0,1650823845224567.0
-9.0,-13.0,-13.0,3.0,2.0,4.0,1.0,0.0,1650823845224567.0
6.0,5.0,10.0,-6.0,-2.0,-2.0,-1.0,0.0,1650823845238769.0
4.0,7.0,5.0,4.0,0.0,0.0,6.0,5.0,1650823845238769.0
5.0,5.0,4.0,3.0,2.0,-8.0,-5.0,-4.0,1650823845239786.0
-4.0,0.0,-1.0,0.0,-4.0,0.0,-1.0,1.0,1650823845239786.0
21.0,-4.0,-2.0,-6.0,-6.0,-4.0,-3.0,1.0,1650823845268757.0
-17.0,3.0,0.0,0.0,0.0,7.0,6.0,8.0,1650823845268757.0
20.0,-7.0,-1.0,3.0,1.0,3.0,0.0,5.0,1650823845269731.0
3.0,6.0,5.0,-1.0,6.0,-1.0,-3.0,-5.0,1650823845269731.0
2.0,-3.0,-5.0,1.0,-12.0,-6.0,-1.0,-1.0,1650823845275723.0
-11.0,2.0,4.0,-2.0,-3.0,-4.0,-1.0,7.0,1650823845275723.0
-15.0,9.0,-2.0,-5.0,3.0,9.0,2.0,-2.0,1650823845284711.0
-8.0,-8.0,1.0,7.0,0.0,1.0,0.0,3.0,1650823845284711.0
0.0,0.0,9.0,-2.0,-4.0,-2.0,-1.0,3.0,1650823845299715.0
16.0,10.0,4.0,5.0,-5.0,-4.0,-1.0,-4.0,1650823845299715.0
-2.0,-7.0,8.0,-5.0,7.0,12.0,1.0,-1.0,1650823845301669.0
-3.0,-1.0,-3.0,5.0,11.0,2.0,-1.0,0.0,1650823845301669.0
-4.0,1.0,-1.0,-2.0,0.0,1.0,0.0,-4.0,1650823845321781.0
3.0,-8.0,-12.0,-14.0,-12.0,-11.0,-5.0,-4.0,1650823845321781.0
-16.0,-4.0,-11.0,-8.0,-6.0,-5.0,-6.0,-3.0,1650823845322740.0
-14.0,-3.0,-2.0,2.0,3.0,6.0,7.0,6.0,1650823845322740.0
1.0,-1.0,8.0,6.0,1.0,-2.0,1.0,2.0,1650823845335729.0
-6.0,-1.0,-1.0,0.0,-3.0,2.0,3.0,13.0,1650823845335729.0
-2.0,0.0,-2.0,5.0,5.0,-1.0,1.0,-8.0,1650823845344641.0
11.0,1.0,-2.0,1.0,-1.0,-1.0,0.0,2.0,1650823845344641.0
-9.0,4.0,0.0,-1.0,-2.0,-2.0,2.0,-2.0,1650823845359648.0
3.0,1.0,-13.0,-6.0,0.0,-1.0,-2.0,-4.0,1650823845359648.0
3.0,-4.0,-3.0,-4.0,-7.0,-5.0,-5.0,1.0,1650823845360642.0
-7.0,-1.0,-1.0,0.0,-6.0,-1.0,4.0,7.0,1650823845360642.0
-2.0,-5.0,-1.0,7.0,19.0,7.0,-1.0,-19.0,1650823845389678.0
10.0,4.0,7.0,-1.0,-4.0,0.0,-1.0,4.0,1650823845389678.0
1.0,0.0,2.0,3.0,-2.0,-1.0,1.0,2.0,1650823845390675.0
-1.0,-2.0,1.0,1.0,-1.0,-4.0,-3.0,-3.0,1650823845390675.0
1.0,-7.0,-5.0,-5.0,-1.0,-2.0,-1.0,6.0,1650823845395661.0
0.0,2.0,3.0,0.0,6.0,2.0,-3.0,-9.0,1650823845395661.0
1.0,-4.0,-10.0,1.0,-7.0,-5.0,-4.0,-2.0,1650823845404637.0
-2.0,-6.0,9.0,-6.0,-3.0,-3.0,-2.0,-2.0,1650823845404637.0
2.0,6.0,0.0,0.0,-1.0,5.0,5.0,2.0,1650823845426612.0
4.0,3.0,5.0,5.0,5.0,4.0,2.0,-3.0,1650823845426612.0
24.0,-1.0,-2.0,7.0,0.0,-6.0,1.0,5.0,1650823845428581.0
-21.0,-9.0,-7.0,-8.0,-1.0,1.0,-4.0,-3.0,1650823845428581.0
-32.0,-6.0,1.0,-2.0,-9.0,-7.0,-4.0,0.0,1650823845441572.0
1.0,2.0,4.0,3.0,0.0,1.0,2.0,-3.0,1650823845441572.0
8.0,5.0,0.0,-3.0,7.0,2.0,3.0,7.0,1650823845443558.0
8.0,8.0,9.0,9.0,3.0,-1.0,-4.0,-18.0,1650823845443558.0
10.0,-4.0,-9.0,-8.0,-8.0,-5.0,0.0,3.0,1650823845455506.0
-4.0,-1.0,-2.0,2.0,0.0,-4.0,-4.0,-4.0,1650823845455506.0
-16.0,-10.0,-1.0,0.0,1.0,6.0,1.0,-3.0,1650823845464483.0
6.0,5.0,6.0,4.0,1.0,1.0,-1.0,3.0,1650823845464483.0
-2.0,-11.0,-13.0,-9.0,-14.0,-8.0,0.0,8.0,1650823845479464.0
4.0,1.0,-4.0,-4.0,-7.0,-8.0,-6.0,-15.0,1650823845479464.0
1.0,0.0,-2.0,-1.0,-4.0,-7.0,1.0,-5.0,1650823845480440.0
3.0,5.0,3.0,1.0,7.0,5.0,-1.0,37.0,1650823845480440.0
-1.0,2.0,9.0,3.0,10.0,7.0,-4.0,-47.0,1650823845501620.0
-1.0,-7.0,-3.0,0.0,14.0,3.0,-1.0,5.0,1650823845501620.0
-4.0,2.0,2.0,-4.0,-17.0,6.0,7.0,-1.0,1650823845503570.0
-2.0,-6.0,-6.0,2.0,-5.0,-7.0,-4.0,-7.0,1650823845503570.0
14.0,2.0,-4.0,-3.0,14.0,0.0,-1.0,11.0,1650823845524626.0
5.0,-4.0,-6.0,-3.0,-12.0,1.0,3.0,9.0,1650823845524626.0
-16.0,-17.0,-5.0,-11.0,3.0,-5.0,-9.0,-25.0,1650823845525601.0
6.0,9.0,9.0,-1.0,-3.0,-2.0,2.0,-2.0,1650823845525601.0
5.0,11.0,14.0,17.0,-7.0,-2.0,1.0,18.0,1650823845547558.0
-4.0,4.0,-11.0,-12.0,15.0,7.0,2.0,-7.0,1650823845547558.0
-2.0,-20.0,2.0,3.0,10.0,8.0,2.0,14.0,1650823845548535.0
-3.0,-5.0,-8.0,-6.0,-10.0,-7.0,-3.0,-4.0,1650823845548535.0
-1.0,3.0,3.0,0.0,-1.0,2.0,-2.0,-1.0,1650823845561526.0
0.0,6.0,6.0,6.0,-3.0,-1.0,2.0,3.0,1650823845561526.0
-2.0,11.0,-1.0,-4.0,-9.0,-7.0,-2.0,-1.0,1650823845563495.0
6.0,-2.0,-3.0,-1.0,9.0,7.0,-2.0,-9.0,1650823845563495.0
-3.0,-6.0,1.0,11.0,11.0,3.0,4.0,4.0,1650823845584550.0
1.0,-4.0,-7.0,-9.0,0.0,2.0,0.0,0.0,1650823845584550.0
2.0,5.0,1.0,1.0,-8.0,-3.0,-1.0,1.0,1650823845585515.0
-3.0,-2.0,-5.0,-2.0,2.0,-1.0,4.0,13.0,1650823845585515.0
2.0,0.0,-1.0,-5.0,-7.0,0.0,-2.0,2.0,1650823845598546.0
2.0,1.0,4.0,7.0,7.0,-3.0,3.0,3.0,1650823845598546.0
-1.0,2.0,-4.0,0.0,9.0,9.0,0.0,-1.0,1650823845605491.0
2.0,0.0,5.0,0.0,-2.0,-5.0,2.0,0.0,1650823845605491.0
-3.0,-4.0,-6.0,-4.0,-2.0,-6.0,-6.0,-1.0,1650823845621450.0
5.0,7.0,8.0,8.0,-3.0,3.0,0.0,0.0,1650823845621450.0
7.0,15.0,-6.0,-6.0,2.0,1.0,6.0,11.0,1650823845623417.0
-19.0,-30.0,-10.0,-4.0,-4.0,0.0,-7.0,-11.0,1650823845623417.0
-3.0,-4.0,-5.0,-7.0,-7.0,-3.0,-5.0,-5.0,1650823845644575.0
0.0,-4.0,-3.0,-7.0,-2.0,-5.0,-5.0,-7.0,1650823845644575.0
20.0,10.0,0.0,10.0,2.0,-3.0,2.0,5.0,1650823845645543.0
-24.0,2.0,-1.0,3.0,-3.0,4.0,1.0,-5.0,1650823845645543.0
4.0,-2.0,-2.0,-1.0,6.0,1.0,5.0,1.0,1650823845658537.0
2.0,2.0,-1.0,7.0,6.0,9.0,4.0,3.0,1650823845658537.0
-1.0,1.0,-1.0,-5.0,6.0,0.0,-6.0,-5.0,1650823845665557.0
7.0,-1.0,-6.0,-4.0,-9.0,-9.0,-4.0,-8.0,1650823845665557.0
-5.0,-6.0,-1.0,-4.0,-9.0,1.0,2.0,1.0,1650823845681514.0
-3.0,-2.0,4.0,-1.0,3.0,0.0,2.0,-1.0,1650823845681514.0
-3.0,-1.0,4.0,7.0,5.0,1.0,1.0,32.0,1650823845683442.0
4.0,4.0,-3.0,-7.0,-12.0,-4.0,-9.0,-35.0,1650823845683442.0
-2.0,5.0,2.0,2.0,-1.0,-3.0,4.0,13.0,1650823845704447.0
2.0,-7.0,-1.0,-4.0,9.0,-3.0,-3.0,-3.0,1650823845704447.0
-4.0,-4.0,-1.0,6.0,-4.0,7.0,5.0,2.0,1650823845705382.0
8.0,9.0,9.0,11.0,9.0,-5.0,3.0,11.0,1650823845705382.0
0.0,-7.0,-12.0,-12.0,1.0,-3.0,-5.0,-1.0,1650823845718416.0
-19.0,-2.0,2.0,3.0,-20.0,-1.0,-1.0,-1.0,1650823845718416.0
11.0,-3.0,5.0,-2.0,2.0,-4.0,-5.0,-7.0,1650823845725329.0
6.0,1.0,-5.0,-5.0,-8.0,-8.0,-5.0,2.0,1650823845725329.0
-7.0,-3.0,-6.0,-8.0,3.0,7.0,-3.0,-11.0,1650823845741439.0
1.0,-2.0,2.0,6.0,0.0,-6.0,3.0,12.0,1650823845741439.0
10.0,15.0,6.0,-5.0,0.0,-1.0,2.0,-7.0,1650823845743366.0
-29.0,-9.0,4.0,2.0,3.0,6.0,-3.0,5.0,1650823845743366.0
2.0,-14.0,0.0,-3.0,-6.0,-3.0,-3.0,-13.0,1650823845764310.0
-1.0,-2.0,-5.0,-7.0,-15.0,-15.0,-6.0,1.0,1650823845764310.0
-4.0,-4.0,-4.0,2.0,-6.0,1.0,2.0,-6.0,1650823845765334.0
17.0,11.0,1.0,10.0,33.0,15.0,10.0,24.0,1650823845765334.0
-5.0,4.0,2.0,0.0,-9.0,4.0,-8.0,-45.0,1650823845778724.0
0.0,-2.0,1.0,-1.0,-5.0,-1.0,2.0,2.0,1650823845778724.0
-7.0,2.0,1.0,0.0,2.0,-5.0,-5.0,-8.0,1650823845786628.0
6.0,-6.0,-14.0,-11.0,-12.0,-3.0,-2.0,-4.0,1650823845786628.0
-5.0,0.0,-1.0,7.0,4.0,2.0,2.0,13.0,1650823845802613.0
7.0,2.0,5.0,0.0,8.0,5.0,2.0,2.0,1650823845802613.0
-4.0,-3.0,-4.0,-6.0,-11.0,-7.0,-5.0,-8.0,1650823845804582.0
12.0,4.0,7.0,3.0,-1.0,0.0,7.0,12.0,1650823845804582.0
6.0,0.0,3.0,6.0,7.0,4.0,-1.0,-4.0,1650823845824528.0
3.0,2.0,-6.0,-6.0,-1.0,-4.0,-3.0,0.0,1650823845824528.0
-11.0,-5.0,-4.0,0.0,4.0,3.0,-3.0,6.0,1650823845826543.0
8.0,-2.0,0.0,-1.0,-8.0,2.0,0.0,-9.0,1650823845826543.0
3.0,3.0,-3.0,-2.0,-2.0,-6.0,9.0,71.0,1650823845838553.0
-1.0,0.0,1.0,-4.0,-7.0,-5.0,-12.0,-46.0,1650823845838553.0
6.0,-2.0,0.0,1.0,-1.0,1.0,2.0,-7.0,1650823845845538.0
1.0,0.0,3.0,0.0,12.0,4.0,-13.0,-16.0,1650823845845538.0
9.0,-3.0,-5.0,3.0,-8.0,-4.0,5.0,25.0,1650823845861586.0
-5.0,0.0,12.0,0.0,4.0,9.0,4.0,10.0,1650823845861586.0
-8.0,1.0,4.0,-1.0,-2.0,-3.0,2.0,-5.0,1650823845863515.0
5.0,-6.0,-20.0,3.0,3.0,-1.0,4.0,21.0,1650823845863515.0
6.0,14.0,16.0,8.0,6.0,5.0,1.0,23.0,1650823845884538.0
-2.0,-4.0,-8.0,0.0,-10.0,-6.0,-10.0,-53.0,1650823845884538.0
-4.0,3.0,3.0,-19.0,-5.0,-3.0,-1.0,14.0,1650823845885545.0
5.0,-3.0,24.0,10.0,2.0,7.0,4.0,-61.0,1650823845885545.0
-6.0,0.0,-24.0,-12.0,8.0,-8.0,1.0,41.0,1650823845898640.0
-1.0,12.0,13.0,22.0,-9.0,3.0,2.0,-12.0,1650823845898640.0
6.0,0.0,16.0,9.0,13.0,7.0,8.0,25.0,1650823845905621.0
10.0,10.0,13.0,6.0,-12.0,-6.0,-10.0,18.0,1650823845905621.0
-31.0,-4.0,6.0,15.0,14.0,8.0,4.0,11.0,1650823845921579.0
11.0,8.0,4.0,-16.0,0.0,6.0,7.0,-43.0,1650823845921579.0
-32.0,-9.0,-42.0,-3.0,-3.0,-11.0,-3.0,-41.0,1650823845923507.0
-24.0,-30.0,-51.0,-75.0,-32.0,-26.0,-36.0,-32.0,1650823845923507.0
10.0,-5.0,24.0,27.0,21.0,6.0,2.0,-43.0,1650823845944549.0
1.0,-3.0,19.0,17.0,-14.0,-2.0,-5.0,75.0,1650823845944549.0
6.0,-7.0,-56.0,-29.0,-11.0,-5.0,-8.0,-9.0,1650823845945546.0
4.0,29.0,58.0,36.0,18.0,20.0,27.0,13.0,1650823845945546.0
-5.0,-37.0,-38.0,-10.0,-8.0,-10.0,14.0,10.0,1650823845958540.0
0.0,11.0,5.0,12.0,7.0,-1.0,-8.0,26.0,1650823845958540.0
3.0,0.0,-7.0,13.0,18.0,15.0,3.0,-21.0,1650823845965561.0
-5.0,14.0,44.0,16.0,-5.0,-4.0,6.0,26.0,1650823845965561.0
35.0,-6.0,-23.0,-10.0,-3.0,0.0,2.0,-15.0,1650823845981596.0
-6.0,1.0,11.0,-21.0,4.0,5.0,15.0,34.0,1650823845981596.0
-14.0,-31.0,27.0,32.0,-6.0,-8.0,-34.0,-29.0,1650823845983618.0
-16.0,-19.0,-49.0,-83.0,-20.0,-14.0,7.0,-36.0,1650823845983618.0
1.0,1.0,36.0,36.0,-4.0,9.0,-6.0,-8.0,1650823846005684.0
-18.0,-30.0,37.0,57.0,27.0,-2.0,16.0,48.0,1650823846005684.0
-26.0,-19.0,-58.0,-75.0,-37.0,-19.0,-5.0,52.0,1650823846010698.0
18.0,10.0,-16.0,12.0,1.0,4.0,34.0,86.0,1650823846010698.0
-4.0,23.0,34.0,17.0,1.0,-2.0,-71.0,-24.0,1650823846017653.0
-20.0,-10.0,0.0,-4.0,-9.0,-17.0,-1.0,-25.0,1650823846017653.0
-11.0,-6.0,-57.0,-46.0,-27.0,-23.0,34.0,-19.0,1650823846026628.0
-2.0,-26.0,-30.0,30.0,19.0,12.0,-63.0,-4.0,1650823846026628.0
5.0,-38.0,13.0,-34.0,-16.0,-12.0,8.0,-20.0,1650823846041588.0
1.0,53.0,8.0,-4.0,4.0,9.0,10.0,49.0,1650823846041588.0
10.0,19.0,34.0,-15.0,12.0,19.0,3.0,23.0,1650823846043604.0
