EMG_s0,EMG_s1,EMG_s2,EMG_s3,EMG_s4,EMG_s5,EMG_s6,EMG_s7,timestamp
5.0,-6.0,0.0,-26.0,-5.0,-4.0,-2.0,-1.0,1650849838935478.0
1.0,2.0,0.0,-1.0,1.0,-7.0,-1.0,0.0,1650849838935478.0
-4.0,4.0,-2.0,22.0,0.0,2.0,-2.0,2.0,1650849838936491.0
-1.0,-5.0,-3.0,-17.0,-6.0,-19.0,-3.0,-2.0,1650849838936491.0
-1.0,-1.0,-2.0,-2.0,2.0,13.0,1.0,-2.0,1650849838937475.0
-3.0,3.0,-1.0,14.0,-1.0,3.0,-1.0,2.0,1650849838937475.0
-1.0,-6.0,-2.0,-6.0,-5.0,-5.0,0.0,-1.0,1650849838938472.0
2.0,0.0,2.0,-9.0,3.0,0.0,3.0,2.0,1650849838938472.0
-2.0,3.0,-2.0,14.0,-4.0,-5.0,0.0,2.0,1650849838958419.0
-2.0,-1.0,0.0,6.0,13.0,5.0,2.0,2.0,1650849838958419.0
3.0,0.0,3.0,-15.0,3.0,18.0,3.0,-2.0,1650849838959417.0
-1.0,1.0,3.0,5.0,-5.0,-15.0,-5.0,-2.0,1650849838959417.0
-2.0,4.0,-2.0,13.0,5.0,4.0,-2.0,0.0,1650849838963406.0
3.0,-5.0,-1.0,-18.0,-10.0,-4.0,1.0,-3.0,1650849838963406.0
1.0,0.0,2.0,-5.0,-5.0,-2.0,1.0,-1.0,1650849838979426.0
1.0,3.0,2.0,19.0,15.0,22.0,5.0,1.0,1650849838979426.0
-1.0,-1.0,2.0,-5.0,5.0,-3.0,-2.0,1.0,1650849838987343.0
3.0,-2.0,-1.0,-9.0,-7.0,-10.0,-4.0,-3.0,1650849838987343.0
-2.0,1.0,-1.0,4.0,5.0,-4.0,-2.0,-1.0,1650849839002302.0
-1.0,-1.0,-2.0,-1.0,-8.0,-3.0,-2.0,-2.0,1650849839002302.0
0.0,-3.0,1.0,-7.0,-5.0,-7.0,1.0,0.0,1650849839010280.0
1.0,1.0,-1.0,1.0,-3.0,-13.0,-5.0,-3.0,1650849839010280.0
1.0,3.0,1.0,4.0,5.0,30.0,7.0,3.0,1650849839023312.0
-1.0,-2.0,-2.0,-7.0,3.0,0.0,1.0,-2.0,1650849839023312.0
-3.0,0.0,-2.0,10.0,1.0,0.0,-2.0,-1.0,1650849839065303.0
3.0,-5.0,-1.0,-26.0,-5.0,2.0,0.0,-2.0,1650849839065303.0
0.0,3.0,1.0,5.0,-7.0,-24.0,-3.0,0.0,1650849839066310.0
-2.0,3.0,-2.0,14.0,9.0,32.0,1.0,2.0,1650849839066310.0
2.0,-5.0,0.0,-9.0,0.0,7.0,5.0,1.0,1650849839077338.0
-1.0,0.0,0.0,3.0,-2.0,-7.0,-2.0,-1.0,1650849839077338.0
0.0,-1.0,0.0,-6.0,-4.0,1.0,-2.0,-1.0,1650849839078272.0
0.0,0.0,-2.0,0.0,-9.0,-20.0,-3.0,-1.0,1650849839078272.0
0.0,-2.0,-1.0,1.0,8.0,3.0,-2.0,-1.0,1650849839079295.0
-1.0,-1.0,-2.0,4.0,-2.0,4.0,1.0,0.0,1650849839079295.0
-2.0,-1.0,-3.0,-4.0,-3.0,0.0,-1.0,-1.0,1650849839085283.0
0.0,-1.0,0.0,0.0,1.0,-3.0,-2.0,-1.0,1650849839085283.0
0.0,1.0,0.0,0.0,-4.0,-1.0,-1.0,0.0,1650849839091236.0
-2.0,-1.0,0.0,1.0,-6.0,-8.0,-2.0,0.0,1650849839091236.0
0.0,0.0,-1.0,3.0,3.0,0.0,-2.0,-2.0,1650849839114292.0
0.0,-1.0,1.0,-2.0,10.0,18.0,7.0,0.0,1650849839114292.0
-2.0,0.0,-1.0,-5.0,-6.0,-13.0,-2.0,-1.0,1650849839115289.0
-3.0,-1.0,0.0,1.0,-8.0,-23.0,-6.0,-4.0,1650849839115289.0
1.0,0.0,-1.0,2.0,9.0,38.0,3.0,1.0,1650849839136485.0
1.0,-1.0,0.0,-4.0,-8.0,-8.0,2.0,2.0,1650849839136485.0
2.0,1.0,2.0,0.0,0.0,-4.0,-2.0,0.0,1650849839137415.0
-2.0,1.0,-1.0,5.0,6.0,-1.0,0.0,-1.0,1650849839137415.0
-2.0,-2.0,-2.0,-2.0,-10.0,-14.0,-3.0,-2.0,1650849839151378.0
0.0,-2.0,-1.0,-6.0,-10.0,-5.0,-4.0,-1.0,1650849839151378.0
-1.0,1.0,-1.0,1.0,11.0,7.0,2.0,0.0,1650849839152394.0
-2.0,0.0,-2.0,1.0,-13.0,-5.0,-2.0,1.0,1650849839152394.0
0.0,0.0,0.0,0.0,7.0,-2.0,-1.0,1.0,1650849839174431.0
0.0,-1.0,-1.0,-1.0,21.0,10.0,0.0,1.0,1650849839174431.0
-2.0,0.0,-1.0,-3.0,-10.0,-1.0,3.0,-1.0,1650849839175430.0
-1.0,0.0,1.0,4.0,1.0,-3.0,-1.0,-1.0,1650849839175430.0
0.0,-4.0,-1.0,-2.0,0.0,11.0,-1.0,-1.0,1650849839197371.0
-1.0,-1.0,0.0,-3.0,-9.0,-19.0,-4.0,-2.0,1650849839197371.0
-1.0,-1.0,0.0,-2.0,-10.0,-7.0,-3.0,-1.0,1650849839197371.0
2.0,-1.0,-1.0,2.0,13.0,33.0,3.0,1.0,1650849839197371.0
-1.0,0.0,0.0,-1.0,-5.0,-13.0,0.0,-3.0,1650849839212330.0
-4.0,1.0,-1.0,-3.0,-2.0,-4.0,-3.0,-1.0,1650849839212330.0
1.0,-1.0,-1.0,2.0,1.0,3.0,1.0,0.0,1650849839212330.0
-1.0,0.0,-1.0,-3.0,-8.0,-14.0,-2.0,-1.0,1650849839212330.0
-2.0,-1.0,0.0,1.0,5.0,9.0,-1.0,0.0,1650849839234383.0
0.0,-2.0,1.0,-1.0,8.0,12.0,1.0,-2.0,1650849839234383.0
1.0,0.0,-1.0,-2.0,-9.0,-11.0,-1.0,-1.0,1650849839235359.0
1.0,1.0,2.0,3.0,0.0,9.0,2.0,2.0,1650849839235359.0
-1.0,0.0,1.0,2.0,10.0,0.0,2.0,1.0,1650849839257307.0
1.0,2.0,-2.0,-1.0,5.0,-3.0,1.0,0.0,1650849839257307.0
-2.0,-2.0,-1.0,-1.0,-4.0,2.0,-3.0,-1.0,1650849839257307.0
-1.0,-1.0,-2.0,-2.0,-3.0,-8.0,-2.0,-3.0,1650849839257307.0
0.0,-1.0,-1.0,-4.0,-9.0,-10.0,-2.0,-2.0,1650849839272262.0
-1.0,-2.0,0.0,-1.0,-11.0,-1.0,-3.0,-2.0,1650849839272262.0
0.0,0.0,-1.0,1.0,9.0,3.0,-3.0,2.0,1650849839272262.0
1.0,1.0,0.0,2.0,6.0,5.0,0.0,0.0,1650849839272262.0
-1.0,0.0,0.0,0.0,2.0,13.0,6.0,1.0,1650849839294271.0
-2.0,-1.0,-1.0,-1.0,-6.0,-16.0,-3.0,0.0,1650849839294271.0
-1.0,-3.0,-3.0,-3.0,-8.0,-4.0,-3.0,-1.0,1650849839295201.0
1.0,1.0,2.0,7.0,10.0,4.0,2.0,2.0,1650849839295201.0
-2.0,-1.0,-1.0,-1.0,1.0,2.0,-1.0,-1.0,1650849839317229.0
-2.0,-1.0,0.0,-1.0,-6.0,2.0,0.0,-2.0,1650849839317229.0
-2.0,1.0,1.0,-2.0,-5.0,-11.0,-2.0,-1.0,1650849839317229.0
-2.0,-1.0,0.0,-5.0,-10.0,-3.0,-1.0,-1.0,1650849839317229.0
1.0,0.0,0.0,3.0,17.0,5.0,1.0,0.0,1650849839332213.0
0.0,-2.0,-1.0,-2.0,-8.0,-1.0,0.0,-1.0,1650849839332213.0
-2.0,1.0,0.0,1.0,5.0,-3.0,-2.0,1.0,1650849839332213.0
-2.0,-3.0,-2.0,-4.0,1.0,0.0,-2.0,-2.0,1650849839332213.0
-1.0,0.0,0.0,-2.0,-10.0,8.0,-1.0,1.0,1650849839354872.0
-1.0,1.0,1.0,-1.0,7.0,4.0,3.0,1.0,1650849839354872.0
1.0,-1.0,1.0,2.0,4.0,2.0,-1.0,0.0,1650849839355869.0
-1.0,-1.0,-4.0,-1.0,-8.0,-15.0,-1.0,0.0,1650849839355869.0
0.0,-1.0,-4.0,-4.0,3.0,-4.0,-3.0,-1.0,1650849839376814.0
2.0,0.0,-2.0,1.0,-7.0,-3.0,0.0,-2.0,1650849839376814.0
0.0,2.0,1.0,5.0,3.0,9.0,3.0,0.0,1650849839377811.0
-2.0,-2.0,1.0,-3.0,1.0,-6.0,-2.0,-2.0,1650849839377811.0
-1.0,1.0,0.0,-1.0,-3.0,2.0,0.0,-1.0,1650849839391805.0
0.0,1.0,2.0,1.0,-2.0,-2.0,-1.0,0.0,1650849839391805.0
1.0,0.0,0.0,0.0,9.0,8.0,2.0,-1.0,1650849839392783.0
1.0,0.0,0.0,0.0,7.0,4.0,1.0,1.0,1650849839392783.0
-2.0,-1.0,0.0,-2.0,-15.0,-10.0,-3.0,0.0,1650849839413832.0
0.0,-2.0,-2.0,3.0,4.0,3.0,-1.0,0.0,1650849839413832.0
-1.0,-3.0,-1.0,-1.0,-6.0,-8.0,-2.0,-3.0,1650849839414833.0
-1.0,0.0,-1.0,-2.0,-4.0,0.0,0.0,-1.0,1650849839414833.0
-1.0,0.0,-2.0,-1.0,-4.0,-19.0,-3.0,-3.0,1650849839436804.0
-1.0,-1.0,2.0,-1.0,7.0,19.0,-1.0,-2.0,1650849839436804.0
1.0,0.0,1.0,-1.0,1.0,17.0,8.0,3.0,1650849839437771.0
0.0,-1.0,-3.0,-2.0,-1.0,3.0,0.0,-1.0,1650849839437771.0
0.0,-1.0,-1.0,-1.0,-8.0,-20.0,-4.0,-2.0,1650849839451761.0
-1.0,-2.0,0.0,-1.0,0.0,0.0,-1.0,-3.0,1650849839451761.0
0.0,1.0,1.0,2.0,6.0,3.0,-1.0,0.0,1650849839452731.0
0.0,0.0,0.0,1.0,-4.0,5.0,-1.0,0.0,1650849839452731.0
0.0,-2.0,0.0,1.0,5.0,-8.0,-1.0,0.0,1650849839482853.0
-1.0,-1.0,-3.0,-5.0,-10.0,-11.0,-2.0,-2.0,1650849839482853.0
0.0,1.0,2.0,9.0,11.0,8.0,1.0,0.0,1650849839482853.0
1.0,0.0,0.0,-2.0,-4.0,0.0,1.0,0.0,1650849839482853.0
0.0,-1.0,0.0,2.0,5.0,8.0,3.0,1.0,1650849839497409.0
1.0,2.0,-2.0,-1.0,2.0,-5.0,-2.0,0.0,1650849839497409.0
-2.0,-3.0,-1.0,-4.0,-11.0,-18.0,-3.0,-2.0,1650849839497409.0
-1.0,-1.0,-1.0,-2.0,-1.0,0.0,-5.0,-2.0,1650849839497409.0
1.0,0.0,-2.0,0.0,-1.0,2.0,2.0,0.0,1650849839512369.0
-1.0,-2.0,1.0,1.0,5.0,20.0,8.0,3.0,1650849839512369.0
1.0,0.0,-3.0,-2.0,0.0,5.0,0.0,1.0,1650849839519378.0
-2.0,-1.0,0.0,1.0,-1.0,-10.0,-3.0,-2.0,1650849839519378.0
0.0,-2.0,-1.0,-1.0,1.0,1.0,-2.0,0.0,1650849839534338.0
-1.0,0.0,-1.0,-2.0,-14.0,-13.0,-4.0,0.0,1650849839534338.0
0.0,-1.0,-1.0,0.0,-5.0,-12.0,-4.0,-2.0,1650849839535314.0
-2.0,-1.0,0.0,2.0,10.0,5.0,1.0,-1.0,1650849839535314.0
0.0,1.0,0.0,1.0,10.0,22.0,4.0,1.0,1650849839556360.0
-1.0,-2.0,-3.0,-4.0,-14.0,-14.0,-3.0,-2.0,1650849839556360.0
-1.0,-1.0,0.0,0.0,10.0,3.0,-3.0,-1.0,1650849839557342.0
-1.0,0.0,-1.0,0.0,-9.0,-1.0,-1.0,1.0,1650849839557342.0
-1.0,0.0,0.0,-1.0,5.0,0.0,0.0,0.0,1650849839571318.0
-2.0,1.0,-2.0,1.0,-1.0,-2.0,0.0,0.0,1650849839571318.0
-2.0,-1.0,-2.0,-4.0,-13.0,-6.0,-3.0,-3.0,1650849839579336.0
0.0,0.0,0.0,-1.0,-3.0,-18.0,0.0,-1.0,1650849839579336.0
0.0,1.0,0.0,-1.0,7.0,26.0,1.0,0.0,1650849839594777.0
-2.0,-2.0,1.0,0.0,2.0,0.0,1.0,-1.0,1650849839594777.0
0.0,-1.0,-2.0,0.0,3.0,-3.0,2.0,1.0,1650849839595515.0
3.0,1.0,1.0,0.0,2.0,14.0,3.0,0.0,1650849839595515.0
-1.0,-2.0,0.0,-5.0,-20.0,-20.0,-5.0,-2.0,1650849839616643.0
-1.0,0.0,0.0,2.0,6.0,-7.0,-4.0,-2.0,1650849839616643.0
-1.0,1.0,-1.0,-2.0,-4.0,1.0,-1.0,-1.0,1650849839617654.0
-1.0,-1.0,-1.0,1.0,0.0,2.0,0.0,1.0,1650849839617654.0
-1.0,-2.0,0.0,0.0,-4.0,-13.0,-4.0,-1.0,1650849839632572.0
0.0,0.0,0.0,0.0,6.0,14.0,2.0,2.0,1650849839632572.0
-3.0,0.0,-2.0,-3.0,-5.0,-7.0,0.0,-2.0,1650849839639581.0
-1.0,1.0,-1.0,0.0,0.0,3.0,0.0,-1.0,1650849839639581.0
1.0,0.0,0.0,1.0,-1.0,8.0,2.0,0.0,1650849839654648.0
0.0,0.0,1.0,1.0,-6.0,-9.0,-1.0,-2.0,1650849839654648.0
0.0,-2.0,-1.0,-2.0,3.0,5.0,0.0,-1.0,1650849839654648.0
-3.0,-1.0,0.0,-2.0,-3.0,-11.0,-2.0,0.0,1650849839654648.0
-2.0,-4.0,-1.0,-1.0,-6.0,-5.0,-4.0,-3.0,1650849839676561.0
1.0,1.0,1.0,-3.0,2.0,1.0,1.0,0.0,1650849839676561.0
-1.0,-1.0,-2.0,0.0,-3.0,13.0,1.0,-1.0,1650849839677572.0
0.0,0.0,-1.0,7.0,11.0,13.0,2.0,0.0,1650849839677572.0
1.0,0.0,2.0,2.0,1.0,-2.0,3.0,1.0,1650849839690663.0
0.0,-1.0,-4.0,0.0,0.0,-5.0,-3.0,-2.0,1650849839690663.0
-1.0,-1.0,-2.0,-5.0,-10.0,-8.0,-5.0,0.0,1650849839699619.0
-1.0,0.0,-2.0,-3.0,0.0,-10.0,-3.0,-1.0,1650849839699619.0
1.0,1.0,-2.0,-2.0,-6.0,-4.0,-2.0,1.0,1650849839714677.0
0.0,-1.0,-1.0,-1.0,-3.0,8.0,0.0,0.0,1650849839714677.0
-1.0,1.0,2.0,5.0,15.0,6.0,3.0,2.0,1650849839714677.0
-1.0,-1.0,-1.0,-3.0,0.0,8.0,-1.0,-2.0,1650849839714677.0
0.0,-1.0,-1.0,-1.0,-1.0,-7.0,-2.0,-2.0,1650849839736620.0
-1.0,0.0,-1.0,-1.0,-6.0,-4.0,-4.0,-1.0,1650849839736620.0
1.0,0.0,-1.0,-2.0,-2.0,-2.0,-1.0,0.0,1650849839737631.0
-1.0,0.0,-2.0,-2.0,-7.0,-8.0,-1.0,-2.0,1650849839737631.0
-3.0,0.0,-1.0,-3.0,-3.0,9.0,-2.0,-1.0,1650849839751613.0
1.0,-1.0,0.0,5.0,17.0,3.0,2.0,2.0,1650849839751613.0
1.0,0.0,-2.0,-1.0,1.0,15.0,1.0,0.0,1650849839759560.0
-2.0,-1.0,-4.0,-3.0,-6.0,-13.0,-4.0,-3.0,1650849839759560.0
-3.0,1.0,-1.0,-1.0,-3.0,10.0,7.0,2.0,1650849839774519.0
-2.0,0.0,-1.0,-1.0,4.0,-3.0,-3.0,-1.0,1650849839774519.0
-1.0,1.0,0.0,0.0,5.0,0.0,0.0,-1.0,1650849839775516.0
1.0,-2.0,-1.0,-4.0,-13.0,-3.0,-1.0,0.0,1650849839775516.0
-1.0,0.0,1.0,2.0,6.0,-10.0,-3.0,-2.0,1650849839796871.0
0.0,1.0,2.0,0.0,4.0,14.0,3.0,1.0,1650849839796871.0
-1.0,-3.0,-3.0,-2.0,-8.0,-8.0,-1.0,0.0,1650849839797801.0
-1.0,-2.0,1.0,4.0,2.0,4.0,-1.0,0.0,1650849839797801.0
0.0,1.0,1.0,0.0,-2.0,-6.0,-3.0,-2.0,1650849839810769.0
0.0,2.0,2.0,10.0,3.0,3.0,-2.0,-1.0,1650849839810769.0
-3.0,-5.0,-5.0,-23.0,-14.0,-10.0,-1.0,-2.0,1650849839819741.0
-2.0,-5.0,-20.0,-5.0,0.0,-6.0,-2.0,-1.0,1650849839819741.0
0.0,-1.0,5.0,1.0,-2.0,-7.0,-2.0,-1.0,1650849839834701.0
1.0,1.0,3.0,8.0,10.0,22.0,4.0,-1.0,1650849839834701.0
20.0,8.0,19.0,11.0,4.0,-8.0,-4.0,-7.0,1650849839834701.0
-57.0,-8.0,-8.0,-4.0,1.0,23.0,12.0,12.0,1650849839834701.0
8.0,2.0,-12.0,-8.0,1.0,-13.0,-4.0,6.0,1650849839856671.0
2.0,-6.0,-5.0,-1.0,-20.0,-18.0,-5.0,-4.0,1650849839856671.0
-9.0,-3.0,-5.0,-4.0,4.0,-6.0,-3.0,0.0,1650849839857640.0
21.0,6.0,6.0,2.0,4.0,5.0,-2.0,-7.0,1650849839857640.0
-2.0,-3.0,2.0,7.0,6.0,3.0,1.0,-3.0,1650849839871602.0
-7.0,1.0,14.0,-3.0,-2.0,-6.0,1.0,5.0,1650849839871602.0
24.0,4.0,-19.0,-2.0,-4.0,1.0,0.0,1.0,1650849839879596.0
-46.0,-15.0,14.0,-7.0,3.0,7.0,0.0,-3.0,1650849839879596.0
13.0,4.0,4.0,3.0,-2.0,2.0,-1.0,-1.0,1650849839894542.0
-22.0,-2.0,-22.0,-4.0,1.0,-10.0,-4.0,-11.0,1650849839894542.0
-20.0,-5.0,2.0,5.0,-6.0,3.0,2.0,11.0,1650849839895539.0
23.0,18.0,30.0,20.0,21.0,17.0,3.0,2.0,1650849839895539.0
2.0,-10.0,-34.0,-24.0,-17.0,-10.0,-6.0,-18.0,1650849839916572.0
27.0,-7.0,-18.0,3.0,3.0,-10.0,-3.0,7.0,1650849839916572.0
-72.0,-4.0,40.0,4.0,-1.0,-1.0,0.0,-2.0,1650849839917570.0
39.0,1.0,-7.0,-2.0,-12.0,17.0,5.0,14.0,1650849839917570.0
-12.0,13.0,-23.0,-4.0,9.0,2.0,-2.0,-3.0,1650849839939531.0
2.0,-19.0,10.0,-11.0,0.0,-9.0,-1.0,-5.0,1650849839939531.0
8.0,27.0,14.0,24.0,13.0,3.0,-1.0,-13.0,1650849839940523.0
43.0,-3.0,7.0,2.0,5.0,-2.0,1.0,14.0,1650849839940523.0
-15.0,7.0,9.0,-6.0,-9.0,0.0,-1.0,2.0,1650849839954594.0
4.0,20.0,7.0,-5.0,-10.0,-2.0,-2.0,-3.0,1650849839954594.0
38.0,-42.0,-28.0,-24.0,-3.0,0.0,-4.0,-1.0,1650849839954594.0
-79.0,-19.0,-24.0,-6.0,2.0,-6.0,-6.0,-15.0,1650849839954594.0
8.0,6.0,38.0,8.0,-3.0,-7.0,-4.0,0.0,1650849839976663.0
13.0,25.0,14.0,10.0,-3.0,-6.0,-2.0,0.0,1650849839976663.0
3.0,12.0,34.0,24.0,6.0,14.0,2.0,0.0,1650849839977668.0
11.0,5.0,-5.0,-4.0,-5.0,-17.0,-2.0,-1.0,1650849839977668.0
-3.0,-18.0,-38.0,-6.0,5.0,6.0,1.0,-2.0,1650849839999738.0
-16.0,-18.0,-34.0,-23.0,-3.0,7.0,0.0,5.0,1650849839999738.0
6.0,8.0,-1.0,-1.0,-10.0,-19.0,-3.0,0.0,1650849840000682.0
9.0,-5.0,-2.0,-10.0,4.0,7.0,-2.0,-7.0,1650849840000682.0
-6.0,5.0,13.0,14.0,3.0,11.0,3.0,6.0,1650849840014665.0
8.0,0.0,11.0,-3.0,4.0,5.0,3.0,-1.0,1650849840014665.0
2.0,-5.0,-22.0,5.0,4.0,-6.0,-2.0,0.0,1650849840014665.0
3.0,5.0,13.0,0.0,-10.0,-17.0,-7.0,-6.0,1650849840014665.0
0.0,-9.0,26.0,5.0,-6.0,-6.0,-1.0,1.0,1650849840036592.0
5.0,10.0,16.0,19.0,4.0,0.0,0.0,-2.0,1650849840036592.0
-48.0,-10.0,-38.0,-21.0,-7.0,6.0,0.0,-2.0,1650849840045548.0
12.0,10.0,40.0,13.0,-1.0,-4.0,-2.0,0.0,1650849840045548.0
-12.0,4.0,-7.0,-4.0,3.0,-5.0,0.0,-2.0,1650849840067489.0
-2.0,-13.0,-22.0,-6.0,-3.0,9.0,1.0,-2.0,1650849840067489.0
13.0,6.0,1.0,0.0,4.0,5.0,3.0,4.0,1650849840069484.0
7.0,7.0,1.0,3.0,0.0,-1.0,1.0,-3.0,1650849840069484.0
-5.0,-11.0,-16.0,-4.0,-4.0,-1.0,1.0,2.0,1650849840082513.0
-6.0,2.0,9.0,-5.0,-3.0,-7.0,0.0,-1.0,1650849840082513.0
1.0,-5.0,-7.0,1.0,0.0,1.0,-1.0,3.0,1650849840084444.0
21.0,-1.0,-28.0,-14.0,-5.0,-5.0,-1.0,0.0,1650849840084444.0
-41.0,-3.0,29.0,15.0,0.0,2.0,-2.0,-5.0,1650849840096636.0
-8.0,-8.0,-25.0,-16.0,-6.0,0.0,1.0,2.0,1650849840096636.0
50.0,15.0,27.0,17.0,10.0,2.0,-1.0,0.0,1650849840105589.0
-42.0,-10.0,-3.0,-6.0,-3.0,10.0,-2.0,-6.0,1650849840105589.0
15.0,-1.0,-12.0,2.0,2.0,-2.0,2.0,1.0,1650849840119660.0
-6.0,2.0,11.0,-4.0,-2.0,-3.0,0.0,-3.0,1650849840119660.0
-15.0,-10.0,-16.0,-11.0,-10.0,-5.0,-2.0,-4.0,1650849840121628.0
4.0,4.0,-9.0,3.0,2.0,-8.0,-2.0,2.0,1650849840121628.0
9.0,1.0,-4.0,-6.0,2.0,3.0,1.0,0.0,1650849840142601.0
-5.0,-1.0,12.0,3.0,-1.0,-11.0,0.0,-1.0,1650849840142601.0
4.0,-2.0,-4.0,-6.0,-16.0,-3.0,5.0,2.0,1650849840144567.0
3.0,2.0,-10.0,-4.0,9.0,24.0,2.0,-1.0,1650849840144567.0
-5.0,1.0,8.0,2.0,10.0,7.0,4.0,3.0,1650849840156562.0
9.0,0.0,0.0,7.0,7.0,-6.0,-4.0,1.0,1650849840156562.0
-8.0,0.0,-1.0,-7.0,-4.0,-8.0,-1.0,-1.0,1650849840165547.0
8.0,-1.0,-6.0,-3.0,-10.0,-13.0,-3.0,-1.0,1650849840165547.0
14.0,0.0,-1.0,-2.0,-9.0,3.0,2.0,1.0,1650849840180509.0
-5.0,1.0,7.0,5.0,7.0,2.0,-2.0,-3.0,1650849840180509.0
-3.0,0.0,-6.0,-4.0,1.0,-2.0,-2.0,0.0,1650849840181510.0
1.0,-2.0,-5.0,-7.0,1.0,0.0,0.0,-2.0,1650849840181510.0
9.0,4.0,-11.0,-6.0,-9.0,-15.0,-2.0,0.0,1650849840202477.0
-7.0,-5.0,-2.0,1.0,-3.0,5.0,-1.0,0.0,1650849840202477.0
-1.0,0.0,2.0,3.0,11.0,24.0,4.0,1.0,1650849840204445.0
6.0,-3.0,9.0,10.0,-5.0,-10.0,-2.0,0.0,1650849840204445.0
2.0,1.0,5.0,0.0,7.0,6.0,0.0,1.0,1650849840216490.0
-1.0,6.0,-16.0,-10.0,-10.0,-10.0,-1.0,-2.0,1650849840216490.0
3.0,-8.0,-1.0,-1.0,-2.0,-6.0,-2.0,-1.0,1650849840225416.0
-1.0,6.0,15.0,17.0,0.0,2.0,-2.0,-1.0,1650849840225416.0
0.0,-6.0,19.0,3.0,-7.0,-5.0,-1.0,-1.0,1650849840239499.0
1.0,1.0,-6.0,-1.0,10.0,-2.0,0.0,2.0,1650849840239499.0
7.0,-2.0,0.0,-3.0,-1.0,7.0,-1.0,-3.0,1650849840241464.0
-4.0,-1.0,-16.0,-7.0,2.0,1.0,2.0,-1.0,1650849840241464.0
28.0,-2.0,2.0,-2.0,-6.0,-12.0,-4.0,-1.0,1650849840263043.0
-1.0,1.0,15.0,10.0,-2.0,14.0,1.0,-2.0,1650849840263043.0
-1.0,-3.0,-7.0,-2.0,-3.0,-12.0,-1.0,0.0,1650849840264042.0
1.0,-2.0,-1.0,-8.0,-3.0,-16.0,-4.0,0.0,1650849840264042.0
6.0,1.0,-5.0,-3.0,2.0,24.0,4.0,1.0,1650849840276037.0
-2.0,-2.0,3.0,2.0,9.0,0.0,0.0,0.0,1650849840276037.0
-5.0,1.0,4.0,8.0,-1.0,-4.0,-3.0,-4.0,1650849840284986.0
3.0,-1.0,-3.0,-6.0,-8.0,-14.0,-1.0,-2.0,1650849840284986.0
-8.0,-4.0,-5.0,2.0,7.0,4.0,-4.0,-1.0,1650849840299016.0
1.0,1.0,8.0,3.0,-4.0,6.0,4.0,1.0,1650849840299016.0
-6.0,-2.0,-4.0,-6.0,-3.0,-1.0,-1.0,-1.0,1650849840307924.0
0.0,-6.0,-4.0,1.0,7.0,2.0,0.0,-1.0,1650849840307924.0
-3.0,7.0,2.0,-4.0,1.0,-6.0,0.0,-1.0,1650849840322604.0
-2.0,-5.0,-1.0,-6.0,-9.0,-5.0,-1.0,-2.0,1650849840322604.0
3.0,3.0,7.0,9.0,-2.0,-10.0,-3.0,0.0,1650849840324558.0
-1.0,-1.0,1.0,0.0,5.0,19.0,3.0,0.0,1650849840324558.0
-3.0,-1.0,-10.0,-11.0,3.0,-1.0,2.0,1.0,1650849840336614.0
1.0,0.0,3.0,4.0,-4.0,1.0,0.0,-2.0,1650849840336614.0
-3.0,-4.0,-6.0,-6.0,-2.0,-4.0,-1.0,0.0,1650849840345597.0
0.0,3.0,5.0,5.0,-4.0,-3.0,-2.0,0.0,1650849840345597.0
-7.0,-3.0,-10.0,2.0,3.0,2.0,-1.0,-1.0,1650849840359583.0
2.0,-3.0,0.0,-1.0,3.0,0.0,0.0,0.0,1650849840359583.0
0.0,3.0,-5.0,-10.0,-6.0,-5.0,1.0,1.0,1650849840361551.0
-1.0,0.0,4.0,8.0,4.0,9.0,4.0,0.0,1650849840361551.0
-1.0,-3.0,1.0,2.0,4.0,2.0,-1.0,-1.0,1650849840382564.0
0.0,-5.0,-4.0,1.0,-5.0,-14.0,-5.0,-3.0,1650849840382564.0
-2.0,0.0,7.0,4.0,4.0,1.0,-4.0,0.0,1650849840384512.0
1.0,0.0,-10.0,-11.0,-8.0,-5.0,6.0,1.0,1650849840384512.0
-2.0,0.0,0.0,-4.0,-11.0,7.0,0.0,-1.0,1650849840396524.0
-2.0,2.0,-2.0,4.0,10.0,-3.0,2.0,2.0,1650849840396524.0
-1.0,0.0,1.0,-1.0,5.0,12.0,0.0,0.0,1650849840405460.0
-1.0,-1.0,-12.0,-2.0,1.0,-9.0,-4.0,-1.0,1650849840405460.0
-2.0,-1.0,1.0,2.0,6.0,17.0,3.0,1.0,1650849840419503.0
-1.0,1.0,0.0,-1.0,-4.0,-7.0,-2.0,0.0,1650849840419503.0
-1.0,-4.0,-1.0,-6.0,-1.0,3.0,0.0,-1.0,1650849840421497.0
0.0,-2.0,6.0,4.0,-15.0,-12.0,-4.0,-2.0,1650849840421497.0
-1.0,5.0,5.0,7.0,16.0,-3.0,-2.0,0.0,1650849840442470.0
1.0,0.0,-6.0,-3.0,-9.0,6.0,0.0,1.0,1650849840442470.0
-1.0,1.0,-3.0,1.0,7.0,1.0,1.0,0.0,1650849840444437.0
-1.0,-2.0,-4.0,-1.0,3.0,6.0,1.0,-1.0,1650849840444437.0
-3.0,-5.0,-5.0,0.0,-1.0,-7.0,-3.0,-1.0,1650849840465481.0
-1.0,0.0,15.0,3.0,-2.0,5.0,0.0,0.0,1650849840465481.0
0.0,-1.0,-8.0,2.0,0.0,-1.0,-2.0,-1.0,1650849840466482.0
-1.0,-5.0,-18.0,-22.0,-3.0,-1.0,-2.0,2.0,1650849840466482.0
-1.0,6.0,13.0,4.0,-10.0,-7.0,-2.0,-2.0,1650849840480446.0
-2.0,-1.0,-12.0,-7.0,2.0,0.0,2.0,0.0,1650849840480446.0
-2.0,1.0,22.0,30.0,-1.0,-15.0,-3.0,-1.0,1650849840481441.0
2.0,4.0,-16.0,-13.0,5.0,31.0,2.0,-1.0,1650849840481441.0
0.0,-7.0,0.0,-1.0,1.0,-12.0,0.0,0.0,1650849840502384.0
-1.0,-5.0,-1.0,-7.0,-2.0,-7.0,-5.0,-3.0,1650849840502384.0
-2.0,1.0,-11.0,-10.0,4.0,26.0,7.0,0.0,1650849840504379.0
-1.0,-1.0,10.0,4.0,0.0,-12.0,-3.0,-1.0,1650849840504379.0
0.0,-1.0,-11.0,-7.0,-11.0,0.0,0.0,0.0,1650849840525437.0
1.0,2.0,4.0,3.0,-2.0,-8.0,0.0,-1.0,1650849840525437.0
-1.0,-1.0,1.0,-5.0,-3.0,-14.0,-5.0,-1.0,1650849840526408.0
-2.0,1.0,8.0,7.0,2.0,2.0,0.0,-1.0,1650849840526408.0
0.0,0.0,1.0,1.0,4.0,4.0,0.0,-3.0,1650849840540371.0
0.0,-1.0,-5.0,-3.0,-2.0,2.0,0.0,0.0,1650849840540371.0
-1.0,-3.0,-6.0,-6.0,-7.0,-3.0,-3.0,-3.0,1650849840541369.0
-1.0,6.0,16.0,7.0,4.0,1.0,2.0,0.0,1650849840541369.0
0.0,-1.0,2.0,0.0,-5.0,-8.0,-1.0,-1.0,1650849840562327.0
-1.0,-2.0,-10.0,-1.0,-1.0,-6.0,-1.0,-3.0,1650849840562327.0
0.0,-2.0,1.0,0.0,0.0,19.0,1.0,-1.0,1650849840564334.0
1.0,-2.0,-5.0,-9.0,-7.0,-12.0,-2.0,0.0,1650849840564334.0
1.0,-1.0,1.0,4.0,11.0,-1.0,-2.0,-1.0,1650849840585251.0
0.0,3.0,7.0,3.0,6.0,18.0,2.0,1.0,1650849840585251.0
-3.0,-1.0,-9.0,-11.0,-11.0,-31.0,-5.0,-2.0,1650849840587268.0
0.0,-2.0,5.0,11.0,9.0,16.0,-2.0,-2.0,1650849840587268.0
0.0,1.0,-5.0,-5.0,-7.0,-5.0,6.0,2.0,1650849840599278.0
0.0,0.0,6.0,2.0,5.0,11.0,2.0,0.0,1650849840599278.0
-1.0,-2.0,0.0,-10.0,-11.0,-3.0,0.0,0.0,1650849840606194.0
0.0,0.0,-3.0,2.0,2.0,-15.0,-3.0,0.0,1650849840606194.0
-1.0,1.0,-1.0,4.0,13.0,6.0,-3.0,1.0,1650849840622182.0
0.0,1.0,2.0,7.0,-4.0,3.0,0.0,1.0,1650849840622182.0
0.0,-2.0,13.0,-1.0,1.0,-1.0,-1.0,-1.0,1650849840624147.0
-1.0,-1.0,-7.0,-6.0,-8.0,-6.0,-2.0,-2.0,1650849840624147.0
-2.0,-3.0,1.0,3.0,-4.0,0.0,1.0,0.0,1650849840645111.0
-1.0,0.0,-4.0,0.0,3.0,0.0,-2.0,-1.0,1650849840645111.0
0.0,1.0,-4.0,-3.0,2.0,3.0,1.0,1.0,1650849840646088.0
-1.0,-1.0,11.0,9.0,-4.0,-7.0,-2.0,1.0,1650849840646088.0
-1.0,-1.0,-5.0,-9.0,-1.0,17.0,-2.0,-3.0,1650849840660070.0
0.0,-2.0,0.0,2.0,-3.0,-11.0,-1.0,0.0,1650849840660070.0
2.0,3.0,-2.0,-3.0,1.0,1.0,1.0,-2.0,1650849840666103.0
-2.0,-3.0,-4.0,-2.0,-3.0,-10.0,-1.0,-2.0,1650849840666103.0
-1.0,-2.0,-2.0,-5.0,-11.0,-32.0,-9.0,-3.0,1650849840683017.0
1.0,3.0,5.0,1.0,4.0,60.0,13.0,2.0,1650849840683017.0
0.0,-1.0,-2.0,5.0,18.0,16.0,4.0,1.0,1650849840683987.0
-1.0,1.0,-1.0,-2.0,4.0,1.0,-1.0,0.0,1650849840683987.0
-2.0,-5.0,-1.0,5.0,-10.0,-20.0,-2.0,0.0,1650849840714020.0
-2.0,2.0,-7.0,-7.0,-7.0,-23.0,-9.0,-3.0,1650849840714020.0
-1.0,-2.0,0.0,-3.0,-12.0,-9.0,-1.0,-1.0,1650849840715026.0
-1.0,0.0,3.0,1.0,2.0,11.0,-1.0,0.0,1650849840715026.0
0.0,-3.0,-6.0,-3.0,2.0,5.0,2.0,0.0,1650849840719037.0
0.0,4.0,4.0,2.0,-4.0,-9.0,-4.0,-2.0,1650849840719037.0
1.0,-1.0,-3.0,-2.0,4.0,7.0,0.0,-1.0,1650849840726011.0
-2.0,-2.0,8.0,4.0,-5.0,-20.0,-2.0,-3.0,1650849840726011.0
-2.0,1.0,5.0,6.0,-2.0,14.0,0.0,0.0,1650849840743045.0
1.0,-4.0,-4.0,-15.0,0.0,1.0,5.0,0.0,1650849840743045.0
-1.0,1.0,-11.0,1.0,5.0,-7.0,0.0,0.0,1650849840745040.0
-1.0,-1.0,4.0,-2.0,-6.0,-11.0,-5.0,0.0,1650849840745040.0
0.0,3.0,2.0,3.0,4.0,20.0,1.0,0.0,1650849840765053.0
0.0,-1.0,2.0,4.0,0.0,-13.0,2.0,1.0,1650849840765053.0
-1.0,0.0,-4.0,-5.0,5.0,12.0,0.0,1.0,1650849840766982.0
-1.0,0.0,-3.0,-4.0,-1.0,-1.0,2.0,0.0,1650849840766982.0
-1.0,-3.0,5.0,1.0,-17.0,-10.0,0.0,-2.0,1650849840778959.0
-1.0,3.0,-1.0,4.0,20.0,3.0,-2.0,2.0,1650849840778959.0
0.0,-4.0,-7.0,-3.0,-8.0,-1.0,1.0,0.0,1650849840788042.0
1.0,0.0,-4.0,1.0,0.0,4.0,1.0,0.0,1650849840788042.0
0.0,2.0,2.0,-3.0,-3.0,-6.0,-2.0,-2.0,1650849840803002.0
-3.0,-2.0,-6.0,-2.0,-9.0,-11.0,-3.0,-2.0,1650849840803002.0
-1.0,2.0,9.0,6.0,8.0,14.0,2.0,-1.0,1650849840803998.0
0.0,0.0,-4.0,-4.0,0.0,0.0,0.0,-1.0,1650849840803998.0
0.0,-3.0,-5.0,-1.0,10.0,21.0,3.0,1.0,1650849840824920.0
-2.0,-7.0,-2.0,1.0,-8.0,-20.0,-5.0,-1.0,1650849840824920.0
-1.0,1.0,5.0,-10.0,-4.0,4.0,-3.0,-1.0,1650849840826886.0
0.0,-1.0,-4.0,8.0,2.0,-6.0,1.0,0.0,1650849840826886.0
2.0,1.0,-1.0,-2.0,12.0,19.0,8.0,1.0,1650849840839860.0
-1.0,1.0,8.0,2.0,-3.0,-3.0,-2.0,-2.0,1650849840839860.0
-1.0,-1.0,-3.0,-7.0,-11.0,-14.0,-2.0,1.0,1650849840845842.0
-2.0,-3.0,-5.0,6.0,13.0,15.0,3.0,-1.0,1650849840845842.0
0.0,-5.0,-5.0,-4.0,-5.0,-13.0,-4.0,-1.0,1650849840862791.0
0.0,2.0,-1.0,-3.0,-4.0,-2.0,-3.0,-1.0,1650849840862791.0
0.0,-3.0,4.0,-2.0,-4.0,-2.0,0.0,0.0,1650849840864785.0
-1.0,4.0,0.0,-6.0,-8.0,4.0,1.0,0.0,1650849840864785.0
-1.0,0.0,-8.0,-3.0,0.0,-4.0,-4.0,-1.0,1650849840884875.0
0.0,-5.0,-4.0,-3.0,-6.0,-10.0,-1.0,-2.0,1650849840884875.0
-2.0,1.0,5.0,7.0,0.0,14.0,-3.0,-1.0,1650849840886842.0
0.0,2.0,0.0,-5.0,-3.0,-6.0,-1.0,-1.0,1650849840886842.0
0.0,1.0,2.0,-3.0,1.0,-1.0,-2.0,-1.0,1650849840899840.0
0.0,-1.0,-9.0,-3.0,2.0,8.0,1.0,1.0,1650849840899840.0
0.0,-1.0,-7.0,3.0,-3.0,-7.0,-2.0,-1.0,1650849840905815.0
1.0,-1.0,4.0,-1.0,1.0,-15.0,-3.0,-3.0,1650849840905815.0
1.0,3.0,1.0,7.0,16.0,48.0,9.0,1.0,1650849840922892.0
-1.0,-2.0,4.0,-7.0,0.0,-6.0,-3.0,-1.0,1650849840922892.0
-3.0,-2.0,-1.0,2.0,-2.0,-6.0,-2.0,0.0,1650849840923900.0
-2.0,0.0,2.0,6.0,-4.0,-5.0,-3.0,1.0,1650849840923900.0
-1.0,-2.0,-3.0,-4.0,-12.0,-25.0,-5.0,-1.0,1650849840944833.0
-2.0,-2.0,-1.0,-4.0,7.0,8.0,1.0,1.0,1650849840944833.0
-2.0,-2.0,-3.0,3.0,-2.0,2.0,2.0,0.0,1650849840946831.0
1.0,2.0,-1.0,-2.0,-4.0,-2.0,0.0,1.0,1650849840946831.0
-2.0,1.0,2.0,-5.0,-7.0,-10.0,-2.0,0.0,1650849840958823.0
1.0,1.0,2.0,7.0,10.0,15.0,3.0,-2.0,1650849840958823.0
1.0,2.0,-3.0,-3.0,-3.0,-16.0,-4.0,-3.0,1650849840967777.0
0.0,-3.0,0.0,-2.0,4.0,15.0,2.0,-1.0,1650849840967777.0
-1.0,-3.0,-8.0,0.0,-5.0,-7.0,-3.0,0.0,1650849840982800.0
-2.0,-1.0,-1.0,-7.0,-18.0,-32.0,-6.0,-3.0,1650849840982800.0
-1.0,-2.0,-2.0,2.0,5.0,26.0,1.0,1.0,1650849840983734.0
2.0,-3.0,-5.0,3.0,9.0,8.0,3.0,2.0,1650849840983734.0
-1.0,5.0,11.0,-1.0,-16.0,-14.0,-2.0,1.0,1650849841004705.0
1.0,-3.0,-6.0,4.0,14.0,-8.0,-1.0,1.0,1650849841004705.0
0.0,-2.0,6.0,1.0,0.0,17.0,-1.0,0.0,1650849841006701.0
-1.0,0.0,4.0,-1.0,1.0,2.0,-1.0,-1.0,1650849841006701.0
-2.0,-2.0,-7.0,-4.0,-7.0,-17.0,-4.0,-2.0,1650849841018668.0
-3.0,-1.0,-7.0,-3.0,-10.0,-1.0,-2.0,-1.0,1650849841018668.0
0.0,1.0,1.0,6.0,3.0,-8.0,1.0,0.0,1650849841027644.0
-1.0,0.0,-6.0,-6.0,5.0,9.0,1.0,0.0,1650849841027644.0
1.0,0.0,3.0,-1.0,0.0,-3.0,0.0,-2.0,1650849841042603.0
-1.0,-2.0,-3.0,-4.0,-6.0,1.0,-1.0,1.0,1650849841042603.0
1.0,0.0,-5.0,-10.0,1.0,-8.0,1.0,0.0,1650849841043601.0
0.0,-1.0,1.0,-1.0,-5.0,-1.0,-1.0,0.0,1650849841043601.0
-1.0,-1.0,-3.0,-5.0,8.0,13.0,2.0,-2.0,1650849841065555.0
0.0,0.0,5.0,9.0,0.0,9.0,1.0,1.0,1650849841065555.0
-1.0,-1.0,1.0,3.0,1.0,-7.0,-1.0,-1.0,1650849841066540.0
-3.0,-3.0,-5.0,-6.0,-8.0,-20.0,-6.0,-5.0,1650849841066540.0
0.0,-2.0,-3.0,1.0,6.0,14.0,2.0,2.0,1650849841078538.0
2.0,1.0,3.0,1.0,-7.0,9.0,2.0,-1.0,1650849841078538.0
0.0,4.0,-3.0,4.0,14.0,1.0,3.0,0.0,1650849841087907.0
2.0,-1.0,2.0,-1.0,1.0,1.0,-2.0,1.0,1650849841087907.0
0.0,-2.0,3.0,-1.0,-7.0,-13.0,-3.0,-4.0,1650849841102934.0
-1.0,-2.0,-8.0,5.0,-3.0,-3.0,-1.0,-3.0,1650849841102934.0
0.0,2.0,9.0,-2.0,-6.0,-17.0,-3.0,0.0,1650849841103876.0
-1.0,-3.0,-5.0,-4.0,3.0,19.0,1.0,0.0,1650849841103876.0
-1.0,2.0,2.0,8.0,12.0,16.0,10.0,2.0,1650849841124584.0
1.0,-2.0,-1.0,-1.0,1.0,-4.0,-3.0,1.0,1650849841124584.0
-1.0,-1.0,-3.0,-3.0,-6.0,-13.0,-3.0,-3.0,1650849841126554.0
-2.0,0.0,-2.0,-2.0,-5.0,-6.0,-2.0,-1.0,1650849841126554.0
1.0,1.0,3.0,3.0,-3.0,-5.0,-2.0,0.0,1650849841147563.0
-2.0,-2.0,-1.0,-1.0,3.0,4.0,0.0,-2.0,1650849841147563.0
-2.0,-3.0,-4.0,-5.0,-5.0,-17.0,-4.0,-2.0,1650849841149518.0
0.0,3.0,2.0,0.0,6.0,29.0,4.0,1.0,1650849841149518.0
0.0,-3.0,-2.0,0.0,-9.0,1.0,2.0,1.0,1650849841162456.0
-1.0,1.0,8.0,4.0,10.0,6.0,3.0,3.0,1650849841162456.0
-1.0,-1.0,-12.0,1.0,6.0,0.0,-1.0,0.0,1650849841164452.0
1.0,-1.0,1.0,0.0,-9.0,-16.0,-1.0,-2.0,1650849841164452.0
-1.0,1.0,-3.0,-1.0,4.0,1.0,-4.0,-2.0,1650849841185422.0
-2.0,0.0,-1.0,0.0,-1.0,5.0,-2.0,-2.0,1650849841185422.0
-1.0,-3.0,-2.0,-7.0,-7.0,1.0,1.0,1.0,1650849841186393.0
-2.0,2.0,0.0,-3.0,-2.0,-3.0,-2.0,0.0,1650849841186393.0
-1.0,0.0,3.0,7.0,1.0,-5.0,-2.0,-1.0,1650849841198930.0
0.0,-1.0,0.0,-6.0,-15.0,-16.0,-2.0,-2.0,1650849841198930.0
0.0,1.0,1.0,0.0,3.0,15.0,0.0,-1.0,1650849841207843.0
-2.0,-1.0,-8.0,-3.0,-2.0,6.0,2.0,1.0,1650849841207843.0
-1.0,-1.0,-1.0,-1.0,5.0,-9.0,-5.0,-1.0,1650849841222802.0
-1.0,-1.0,-2.0,-4.0,1.0,-3.0,-2.0,-4.0,1650849841222802.0
1.0,0.0,-1.0,2.0,-2.0,12.0,8.0,1.0,1650849841223806.0
0.0,-4.0,0.0,0.0,-9.0,-18.0,-3.0,-1.0,1650849841223806.0
-1.0,-1.0,2.0,-1.0,1.0,0.0,-1.0,-1.0,1650849841245221.0
0.0,1.0,-1.0,0.0,0.0,6.0,0.0,-1.0,1650849841245221.0
0.0,1.0,6.0,6.0,3.0,-1.0,0.0,0.0,1650849841246192.0
1.0,0.0,3.0,12.0,6.0,5.0,1.0,-1.0,1650849841246192.0
-1.0,-3.0,-7.0,-10.0,-6.0,-15.0,-2.0,-1.0,1650849841258159.0
-2.0,1.0,2.0,-1.0,-3.0,-1.0,-1.0,0.0,1650849841258159.0
0.0,-1.0,4.0,0.0,-12.0,-6.0,-4.0,-3.0,1650849841268197.0
1.0,1.0,2.0,5.0,5.0,6.0,2.0,-1.0,1650849841268197.0
1.0,-2.0,-1.0,-1.0,2.0,0.0,-1.0,1.0,1650849841283093.0
2.0,-1.0,-4.0,-5.0,-1.0,10.0,3.0,0.0,1650849841283093.0
-2.0,-2.0,0.0,-2.0,-3.0,-11.0,-2.0,-1.0,1650849841284090.0
-2.0,-1.0,0.0,3.0,1.0,-1.0,-1.0,-3.0,1650849841284090.0
-2.0,0.0,-4.0,-7.0,0.0,7.0,1.0,-1.0,1650849841305033.0
0.0,0.0,3.0,1.0,-4.0,1.0,-1.0,-1.0,1650849841305033.0
-1.0,-3.0,-3.0,1.0,-1.0,-6.0,-1.0,0.0,1650849841307029.0
1.0,3.0,-3.0,-3.0,-1.0,-23.0,-6.0,-1.0,1650849841307029.0
1.0,1.0,-2.0,-4.0,3.0,32.0,8.0,2.0,1650849841318949.0
0.0,-2.0,-2.0,5.0,4.0,1.0,1.0,0.0,1650849841318949.0
-1.0,1.0,5.0,1.0,-4.0,-13.0,-3.0,-2.0,1650849841327862.0
0.0,-1.0,0.0,0.0,8.0,20.0,2.0,1.0,1650849841327862.0
-1.0,0.0,5.0,0.0,-4.0,-14.0,-5.0,-2.0,1650849841343004.0
-1.0,-2.0,-5.0,3.0,1.0,2.0,1.0,0.0,1650849841343004.0
-1.0,-2.0,-5.0,-4.0,-9.0,-11.0,-3.0,-2.0,1650849841343989.0
-1.0,0.0,3.0,-6.0,-9.0,5.0,-1.0,-1.0,1650849841343989.0
1.0,2.0,-2.0,6.0,7.0,-2.0,3.0,1.0,1650849841365539.0
2.0,1.0,1.0,2.0,6.0,7.0,3.0,0.0,1650849841365539.0
-2.0,-2.0,-4.0,-2.0,4.0,3.0,0.0,-1.0,1650849841366539.0
-2.0,1.0,2.0,1.0,-6.0,-3.0,0.0,0.0,1650849841366539.0
-3.0,-3.0,0.0,-5.0,-7.0,-11.0,-4.0,-2.0,1650849841387509.0
-1.0,-1.0,1.0,3.0,-5.0,-5.0,-1.0,-1.0,1650849841387509.0
2.0,-1.0,0.0,6.0,4.0,8.0,0.0,1.0,1650849841389497.0
-2.0,-2.0,-6.0,-10.0,-3.0,-16.0,-2.0,-2.0,1650849841389497.0
-2.0,0.0,-2.0,-4.0,-4.0,-11.0,-7.0,-2.0,1650849841402055.0
0.0,1.0,-1.0,6.0,8.0,44.0,8.0,2.0,1650849841402055.0
1.0,2.0,8.0,6.0,7.0,4.0,2.0,1.0,1650849841403986.0
-3.0,-4.0,-2.0,1.0,8.0,0.0,-1.0,0.0,1650849841403986.0
-3.0,-3.0,-7.0,-3.0,-11.0,-18.0,-5.0,-2.0,1650849841424958.0
0.0,-1.0,5.0,-7.0,-6.0,-22.0,-7.0,-2.0,1650849841424958.0
-1.0,-1.0,-2.0,2.0,-4.0,7.0,-2.0,-1.0,1650849841426944.0
0.0,-2.0,1.0,-1.0,-11.0,-17.0,-3.0,-1.0,1650849841426944.0
-1.0,1.0,-1.0,7.0,11.0,22.0,4.0,1.0,1650849841454877.0
1.0,0.0,-4.0,-6.0,5.0,5.0,4.0,2.0,1650849841454877.0
0.0,-1.0,3.0,-2.0,2.0,7.0,3.0,1.0,1650849841456845.0
-2.0,2.0,3.0,4.0,0.0,-5.0,-2.0,-1.0,1650849841456845.0
0.0,2.0,-2.0,-4.0,-6.0,-6.0,-4.0,-1.0,1650849841462828.0
-1.0,-2.0,-10.0,-3.0,-6.0,-7.0,-3.0,-4.0,1650849841462828.0
1.0,0.0,0.0,-2.0,-4.0,-2.0,0.0,0.0,1650849841463839.0
1.0,-2.0,-1.0,-4.0,5.0,8.0,1.0,0.0,1650849841463839.0
0.0,-4.0,3.0,2.0,-5.0,-14.0,-2.0,-1.0,1650849841485514.0
-1.0,-1.0,4.0,6.0,9.0,5.0,-1.0,1.0,1650849841485514.0
-1.0,-3.0,-7.0,-9.0,-3.0,29.0,6.0,0.0,1650849841486514.0
0.0,0.0,5.0,3.0,-1.0,-3.0,-2.0,-1.0,1650849841486514.0
1.0,2.0,1.0,2.0,9.0,11.0,1.0,0.0,1650849841507983.0
-1.0,-1.0,-1.0,0.0,-14.0,-29.0,-4.0,-1.0,1650849841507983.0
-4.0,-1.0,-2.0,-1.0,-5.0,-9.0,-4.0,-2.0,1650849841508980.0
3.0,0.0,-3.0,-2.0,14.0,20.0,5.0,4.0,1650849841508980.0
0.0,3.0,6.0,-1.0,-6.0,-6.0,0.0,0.0,1650849841521946.0
-2.0,-4.0,-6.0,-12.0,-7.0,-8.0,-6.0,-3.0,1650849841521946.0
-1.0,-1.0,-2.0,0.0,-7.0,-15.0,-3.0,-2.0,1650849841528954.0
-1.0,1.0,-3.0,4.0,4.0,21.0,2.0,0.0,1650849841528954.0
-1.0,-2.0,3.0,7.0,-4.0,-10.0,-1.0,2.0,1650849841544867.0
0.0,0.0,-1.0,-3.0,0.0,6.0,2.0,2.0,1650849841544867.0
-1.0,0.0,3.0,1.0,13.0,5.0,1.0,1.0,1650849841546875.0
-1.0,-3.0,-7.0,-6.0,-15.0,-23.0,-5.0,-2.0,1650849841546875.0
0.0,-2.0,4.0,3.0,10.0,11.0,0.0,-2.0,1650849841566876.0
-2.0,0.0,-2.0,-1.0,-5.0,5.0,3.0,-1.0,1650849841566876.0
2.0,-1.0,1.0,0.0,-7.0,-9.0,-2.0,0.0,1650849841574798.0
1.0,-3.0,-1.0,-5.0,0.0,-14.0,-4.0,0.0,1650849841574798.0
-2.0,-1.0,-11.0,-3.0,-7.0,6.0,-3.0,-1.0,1650849841581811.0
0.0,4.0,5.0,1.0,13.0,14.0,6.0,1.0,1650849841581811.0
-1.0,1.0,-8.0,-7.0,-3.0,-4.0,-3.0,0.0,1650849841588749.0
-3.0,-2.0,0.0,-1.0,-4.0,6.0,2.0,1.0,1650849841588749.0
-2.0,-1.0,-2.0,1.0,-3.0,-13.0,-3.0,-3.0,1650849841612346.0
0.0,-3.0,-2.0,-3.0,-1.0,-9.0,-5.0,-1.0,1650849841612346.0
1.0,1.0,0.0,-1.0,3.0,6.0,2.0,1.0,1650849841614311.0
-1.0,0.0,1.0,3.0,-11.0,-20.0,-2.0,-1.0,1650849841614311.0
-1.0,-3.0,-4.0,-5.0,10.0,18.0,0.0,-1.0,1650849841627275.0
-2.0,0.0,3.0,-3.0,-1.0,2.0,1.0,0.0,1650849841627275.0
-1.0,-1.0,0.0,1.0,-2.0,-3.0,1.0,-1.0,1650849841629269.0
-2.0,-1.0,-6.0,-4.0,-1.0,2.0,1.0,-1.0,1650849841629269.0
-2.0,-1.0,5.0,4.0,0.0,-11.0,0.0,1.0,1650849841642262.0
0.0,-2.0,0.0,-1.0,-8.0,-3.0,-1.0,0.0,1650849841642262.0
-2.0,1.0,0.0,2.0,5.0,9.0,-4.0,-1.0,1650849841649217.0
0.0,2.0,-1.0,2.0,3.0,4.0,2.0,0.0,1650849841649217.0
0.0,1.0,-5.0,-4.0,11.0,10.0,7.0,2.0,1650849841665295.0
-1.0,-2.0,3.0,1.0,-8.0,-13.0,-4.0,-1.0,1650849841665295.0
-1.0,-2.0,-2.0,-5.0,-9.0,-8.0,-4.0,-1.0,1650849841666302.0
0.0,-4.0,-6.0,0.0,-3.0,-5.0,-3.0,-4.0,1650849841666302.0
0.0,4.0,2.0,-1.0,-2.0,8.0,1.0,-1.0,1650849841687239.0
-2.0,-1.0,-6.0,-2.0,-5.0,-4.0,-1.0,-1.0,1650849841687239.0
-1.0,0.0,3.0,3.0,9.0,1.0,2.0,0.0,1650849841689233.0
-3.0,0.0,1.0,8.0,2.0,6.0,-1.0,-1.0,1650849841689233.0
1.0,-1.0,0.0,-7.0,-7.0,-5.0,-1.0,2.0,1650849841702266.0
-1.0,-2.0,-6.0,-4.0,3.0,-6.0,-2.0,-1.0,1650849841702266.0
0.0,-1.0,-2.0,-4.0,1.0,15.0,1.0,-2.0,1650849841708211.0
1.0,1.0,7.0,1.0,-7.0,-3.0,1.0,0.0,1650849841708211.0
-2.0,-1.0,0.0,4.0,2.0,-1.0,1.0,1.0,1650849841725158.0
1.0,1.0,0.0,2.0,11.0,17.0,3.0,1.0,1650849841725158.0
-1.0,-1.0,1.0,1.0,1.0,-8.0,-2.0,1.0,1650849841731122.0
-1.0,-3.0,-3.0,-5.0,7.0,6.0,0.0,1.0,1650849841731122.0
-1.0,-1.0,-2.0,-5.0,-23.0,-29.0,-5.0,-2.0,1650849841747080.0
-3.0,-1.0,4.0,13.0,2.0,0.0,-4.0,-2.0,1650849841747080.0
2.0,-1.0,-1.0,-4.0,21.0,33.0,8.0,2.0,1650849841749089.0
0.0,2.0,1.0,-3.0,-6.0,0.0,2.0,-1.0,1650849841749089.0
-1.0,-2.0,-1.0,-1.0,-6.0,-6.0,-1.0,-1.0,1650849841762066.0
0.0,-1.0,-4.0,-7.0,-10.0,-11.0,-2.0,-1.0,1650849841762066.0
1.0,-2.0,-3.0,2.0,-5.0,-12.0,-2.0,-1.0,1650849841769087.0
0.0,0.0,8.0,7.0,7.0,4.0,-1.0,-1.0,1650849841769087.0
1.0,-1.0,-3.0,3.0,2.0,-7.0,-1.0,0.0,1650849841785111.0
-1.0,1.0,4.0,0.0,2.0,14.0,-1.0,-1.0,1650849841785111.0
-1.0,1.0,0.0,0.0,0.0,-10.0,-1.0,0.0,1650849841786111.0
-1.0,0.0,-4.0,-7.0,-4.0,2.0,2.0,1.0,1650849841786111.0
-1.0,-1.0,-3.0,-3.0,1.0,2.0,0.0,-1.0,1650849841807083.0
2.0,-3.0,-2.0,-1.0,-1.0,-5.0,1.0,0.0,1650849841807083.0
-1.0,2.0,14.0,6.0,-4.0,-9.0,-3.0,-2.0,1650849841809050.0
-1.0,-1.0,1.0,-2.0,-4.0,-11.0,-5.0,-1.0,1650849841809050.0
-1.0,-4.0,-5.0,-2.0,3.0,19.0,1.0,-1.0,1650849841822043.0
0.0,0.0,-4.0,-3.0,-11.0,-2.0,5.0,2.0,1650849841822043.0
1.0,1.0,-4.0,2.0,10.0,2.0,0.0,1.0,1650849841829025.0
-1.0,1.0,1.0,4.0,6.0,2.0,2.0,-1.0,1650849841829025.0
-1.0,0.0,2.0,0.0,-4.0,-13.0,-4.0,-2.0,1650849841844981.0
0.0,-6.0,-11.0,-18.0,-3.0,-1.0,-3.0,-2.0,1650849841844981.0
0.0,-2.0,3.0,-3.0,-6.0,5.0,1.0,-1.0,1650849841846949.0
-2.0,7.0,7.0,6.0,-6.0,-3.0,-3.0,-1.0,1650849841846949.0
-1.0,0.0,3.0,0.0,1.0,-16.0,-3.0,-1.0,1650849841867955.0
-1.0,0.0,-4.0,16.0,18.0,36.0,6.0,2.0,1650849841867955.0
-1.0,-5.0,-7.0,-4.0,-8.0,-12.0,-2.0,-1.0,1650849841868890.0
-2.0,-4.0,-5.0,-9.0,5.0,10.0,2.0,0.0,1650849841868890.0
0.0,0.0,-2.0,-7.0,-6.0,1.0,1.0,-1.0,1650849841880867.0
-1.0,0.0,8.0,5.0,-12.0,-30.0,-6.0,-1.0,1650849841880867.0
-3.0,-2.0,0.0,2.0,4.0,9.0,-1.0,-2.0,1650849841889834.0
2.0,-1.0,-3.0,-8.0,1.0,4.0,2.0,-1.0,1650849841889834.0
2.0,1.0,1.0,1.0,-4.0,20.0,4.0,0.0,1650849841905453.0
1.0,-2.0,3.0,3.0,13.0,-2.0,-2.0,-2.0,1650849841905453.0
-2.0,0.0,-2.0,-1.0,-4.0,-4.0,-4.0,-2.0,1650849841906453.0
0.0,0.0,-5.0,-3.0,-12.0,-17.0,-3.0,-3.0,1650849841906453.0
-2.0,-1.0,-2.0,1.0,5.0,5.0,0.0,1.0,1650849841927427.0
-1.0,0.0,0.0,-6.0,2.0,0.0,-2.0,3.0,1650849841927427.0
0.0,-1.0,-2.0,-3.0,-9.0,-15.0,-2.0,0.0,1650849841929418.0
-1.0,-2.0,0.0,8.0,10.0,22.0,-1.0,-1.0,1650849841929418.0
2.0,1.0,-1.0,-7.0,-2.0,-9.0,-1.0,0.0,1650849841941391.0
-1.0,0.0,4.0,2.0,-7.0,-13.0,-2.0,-4.0,1650849841941391.0
1.0,-2.0,-3.0,2.0,12.0,22.0,9.0,2.0,1650849841950336.0
-1.0,-3.0,-6.0,-6.0,-7.0,-10.0,-1.0,0.0,1650849841950336.0
-1.0,1.0,1.0,6.0,2.0,2.0,0.0,-1.0,1650849841964322.0
-3.0,1.0,-1.0,-3.0,-5.0,-26.0,-4.0,-2.0,1650849841964322.0
0.0,2.0,0.0,-2.0,-2.0,15.0,1.0,-1.0,1650849841972304.0
0.0,-3.0,0.0,-4.0,0.0,4.0,3.0,1.0,1650849841972304.0
-1.0,-3.0,-2.0,-1.0,1.0,0.0,-1.0,0.0,1650849841987350.0
2.0,1.0,3.0,1.0,-7.0,-1.0,0.0,1.0,1650849841987350.0
0.0,-1.0,-3.0,-6.0,-5.0,-15.0,-4.0,-3.0,1650849841989338.0
-1.0,-1.0,-2.0,1.0,-1.0,5.0,0.0,-1.0,1650849841989338.0
0.0,-1.0,0.0,0.0,0.0,-5.0,-1.0,-1.0,1650849842001344.0
-1.0,-3.0,-5.0,-3.0,-2.0,6.0,0.0,1.0,1650849842001344.0
-1.0,6.0,-2.0,8.0,2.0,-5.0,1.0,-1.0,1650849842010262.0
0.0,1.0,13.0,7.0,3.0,9.0,0.0,-1.0,1650849842010262.0
0.0,-4.0,-2.0,1.0,7.0,0.0,0.0,1.0,1650849842025249.0
0.0,-3.0,-1.0,-9.0,-7.0,2.0,-1.0,0.0,1650849842025249.0
0.0,-2.0,-4.0,-5.0,-12.0,-24.0,-6.0,-1.0,1650849842026219.0
0.0,-1.0,-4.0,-1.0,-3.0,14.0,2.0,1.0,1650849842026219.0
0.0,-1.0,0.0,4.0,-10.0,-5.0,0.0,-1.0,1650849842047167.0
0.0,0.0,2.0,11.0,20.0,18.0,0.0,-1.0,1650849842047167.0
1.0,-1.0,-6.0,-11.0,-4.0,-8.0,-1.0,0.0,1650849842049168.0
1.0,-1.0,0.0,-3.0,-9.0,-7.0,-2.0,-1.0,1650849842049168.0
0.0,-2.0,3.0,6.0,9.0,13.0,3.0,0.0,1650849842061125.0
-1.0,0.0,-3.0,-5.0,-4.0,-5.0,-1.0,-2.0,1650849842061125.0
-1.0,-2.0,5.0,5.0,-5.0,-15.0,-6.0,-3.0,1650849842070107.0
-1.0,-2.0,1.0,1.0,3.0,0.0,-1.0,1.0,1650849842070107.0
-1.0,1.0,-1.0,0.0,1.0,5.0,0.0,1.0,1650849842085449.0
-2.0,1.0,-1.0,-3.0,-2.0,-14.0,-1.0,1.0,1650849842085449.0
-1.0,-4.0,-5.0,-8.0,3.0,14.0,0.0,-2.0,1650849842087091.0
0.0,1.0,1.0,4.0,2.0,6.0,1.0,0.0,1650849842087091.0
1.0,0.0,2.0,3.0,-1.0,-3.0,-2.0,-2.0,1650849842107036.0
1.0,3.0,3.0,0.0,4.0,5.0,2.0,1.0,1650849842107036.0
1.0,-2.0,0.0,-2.0,2.0,0.0,1.0,1.0,1650849842109030.0
-3.0,-3.0,-14.0,-5.0,-4.0,-16.0,-3.0,-1.0,1650849842109030.0
-2.0,-1.0,-3.0,-7.0,-5.0,-10.0,-4.0,-3.0,1650849842121027.0
0.0,1.0,2.0,-3.0,3.0,30.0,6.0,0.0,1650849842121027.0
2.0,1.0,3.0,3.0,1.0,23.0,5.0,1.0,1650849842129974.0
0.0,1.0,-1.0,-3.0,2.0,-9.0,0.0,-1.0,1650849842129974.0
-1.0,-1.0,2.0,3.0,1.0,-4.0,-1.0,0.0,1650849842145937.0
-2.0,-3.0,-7.0,-5.0,-8.0,-17.0,-5.0,-2.0,1650849842145937.0
-1.0,2.0,4.0,4.0,-4.0,2.0,-1.0,0.0,1650849842150946.0
0.0,-2.0,-3.0,-4.0,9.0,3.0,1.0,1.0,1650849842150946.0
-2.0,0.0,0.0,2.0,-4.0,-2.0,-2.0,0.0,1650849842167941.0
-1.0,-1.0,1.0,-2.0,2.0,4.0,0.0,1.0,1650849842167941.0
0.0,0.0,0.0,1.0,-2.0,-10.0,-3.0,-2.0,1650849842168885.0
2.0,-2.0,2.0,4.0,1.0,-5.0,-2.0,-1.0,1650849842168885.0
-1.0,-1.0,-2.0,-4.0,-1.0,14.0,1.0,-1.0,1650849842180839.0
0.0,1.0,-2.0,0.0,-4.0,-6.0,0.0,-2.0,1650849842180839.0
-1.0,1.0,0.0,1.0,-2.0,1.0,2.0,0.0,1650849842189822.0
-1.0,3.0,3.0,3.0,5.0,-3.0,-1.0,-2.0,1650849842189822.0
2.0,-1.0,1.0,1.0,4.0,3.0,-2.0,-1.0,1650849842204802.0
-1.0,-4.0,-5.0,-2.0,-11.0,-21.0,-4.0,-3.0,1650849842204802.0
-1.0,-2.0,-5.0,-11.0,-8.0,-4.0,-4.0,-1.0,1650849842206790.0
-1.0,-3.0,1.0,3.0,-2.0,11.0,3.0,1.0,1650849842206790.0
0.0,0.0,4.0,4.0,13.0,18.0,0.0,1.0,1650849842227740.0
1.0,0.0,3.0,1.0,-2.0,-2.0,2.0,0.0,1650849842227740.0
-2.0,-1.0,1.0,-1.0,-5.0,-17.0,-2.0,-1.0,1650849842228711.0
-1.0,0.0,-3.0,-3.0,1.0,-8.0,-3.0,-2.0,1650849842228711.0
-2.0,-2.0,-8.0,-4.0,-4.0,-1.0,-1.0,-2.0,1650849842241677.0
1.0,-1.0,2.0,0.0,4.0,0.0,0.0,0.0,1650849842241677.0
-1.0,-2.0,0.0,-3.0,-9.0,-9.0,-3.0,0.0,1650849842249655.0
0.0,1.0,2.0,0.0,-2.0,14.0,3.0,1.0,1650849842249655.0
1.0,1.0,-2.0,-1.0,3.0,-3.0,3.0,1.0,1650849842264615.0
0.0,3.0,4.0,7.0,7.0,6.0,-1.0,0.0,1650849842264615.0
-2.0,0.0,2.0,0.0,0.0,-3.0,1.0,0.0,1650849842266610.0
-2.0,-3.0,-5.0,-11.0,-3.0,-2.0,-2.0,-4.0,1650849842266610.0
1.0,-3.0,-2.0,0.0,-9.0,-13.0,-3.0,-2.0,1650849842287745.0
-2.0,-1.0,0.0,-4.0,-8.0,-29.0,-7.0,-2.0,1650849842287745.0
0.0,-2.0,-3.0,2.0,12.0,61.0,7.0,2.0,1650849842288676.0
2.0,1.0,5.0,11.0,0.0,-9.0,5.0,2.0,1650849842288676.0
-2.0,6.0,1.0,-3.0,13.0,7.0,-1.0,-2.0,1650849842309619.0
-2.0,-1.0,-3.0,-2.0,-9.0,-10.0,-1.0,-1.0,1650849842309619.0
-2.0,-1.0,-3.0,-2.0,0.0,-21.0,-6.0,-3.0,1650849842311615.0
-2.0,0.0,-1.0,-1.0,-1.0,1.0,-4.0,-2.0,1650849842311615.0
0.0,-1.0,1.0,-4.0,-6.0,7.0,1.0,-1.0,1650849842324579.0
1.0,-2.0,-1.0,1.0,-5.0,-2.0,0.0,1.0,1650849842324579.0
1.0,2.0,1.0,2.0,2.0,-1.0,-1.0,1.0,1650849842326575.0
1.0,-4.0,-4.0,0.0,2.0,-2.0,-1.0,0.0,1650849842326575.0
-1.0,-5.0,-3.0,-2.0,-5.0,-11.0,-2.0,-2.0,1650849842347546.0
0.0,0.0,-1.0,-2.0,5.0,14.0,2.0,-2.0,1650849842347546.0
-1.0,0.0,-2.0,5.0,-6.0,-13.0,0.0,-1.0,1650849842349514.0
-1.0,2.0,1.0,-7.0,1.0,1.0,-3.0,-1.0,1650849842349514.0
-1.0,-1.0,4.0,2.0,-10.0,-10.0,2.0,1.0,1650849842370457.0
3.0,2.0,-1.0,-2.0,23.0,47.0,12.0,3.0,1650849842370457.0
1.0,0.0,6.0,11.0,2.0,-10.0,0.0,0.0,1650849842371455.0
0.0,0.0,1.0,2.0,-3.0,-9.0,-3.0,0.0,1650849842371455.0
-1.0,-4.0,-5.0,-6.0,-8.0,-9.0,-3.0,-1.0,1650849842385477.0
-2.0,-3.0,-5.0,-2.0,-6.0,-4.0,-2.0,-3.0,1650849842385477.0
-1.0,-2.0,-2.0,-3.0,-3.0,-6.0,0.0,-1.0,1650849842386488.0
-2.0,-1.0,-4.0,-4.0,-1.0,-13.0,-3.0,1.0,1650849842386488.0
-1.0,-2.0,1.0,2.0,0.0,3.0,-3.0,-1.0,1650849842407504.0
-1.0,0.0,-2.0,3.0,5.0,16.0,7.0,1.0,1650849842407504.0
1.0,0.0,5.0,2.0,18.0,15.0,4.0,3.0,1650849842409500.0
0.0,-1.0,-2.0,0.0,-7.0,-2.0,-2.0,-3.0,1650849842409500.0
-1.0,1.0,-4.0,-5.0,-3.0,-10.0,-3.0,0.0,1650849842430445.0
-3.0,0.0,1.0,1.0,-8.0,-13.0,-5.0,-2.0,1650849842430445.0
0.0,-2.0,-8.0,-5.0,-6.0,-2.0,0.0,-1.0,1650849842431442.0
-2.0,1.0,0.0,0.0,1.0,3.0,0.0,1.0,1650849842431442.0
-1.0,-1.0,1.0,3.0,4.0,4.0,0.0,0.0,1650849842445419.0
-1.0,0.0,-1.0,1.0,1.0,0.0,-3.0,0.0,1650849842445419.0
1.0,-1.0,-2.0,-6.0,-13.0,-23.0,-3.0,-2.0,1650849842446402.0
1.0,-2.0,-1.0,-1.0,11.0,17.0,-1.0,0.0,1650849842446402.0
2.0,0.0,0.0,0.0,3.0,24.0,9.0,2.0,1650849842468386.0
0.0,1.0,4.0,-1.0,-2.0,0.0,-1.0,1.0,1650849842468386.0
-1.0,-2.0,-3.0,3.0,13.0,0.0,-1.0,-1.0,1650849842473329.0
-2.0,0.0,10.0,0.0,-12.0,-17.0,-4.0,-3.0,1650849842473329.0
-4.0,0.0,-2.0,-2.0,-8.0,-20.0,-4.0,-1.0,1650849842490369.0
0.0,-3.0,-9.0,-4.0,-1.0,25.0,2.0,2.0,1650849842490369.0
-1.0,-2.0,-3.0,-4.0,-5.0,-6.0,-2.0,-1.0,1650849842491371.0
-2.0,-4.0,-3.0,-2.0,0.0,-6.0,-2.0,-1.0,1650849842491371.0
0.0,-1.0,1.0,0.0,2.0,13.0,0.0,0.0,1650849842504419.0
1.0,1.0,2.0,1.0,-4.0,-17.0,-1.0,-2.0,1650849842504419.0
-1.0,-2.0,-1.0,-5.0,-7.0,-2.0,-3.0,-1.0,1650849842511402.0
1.0,1.0,-1.0,4.0,7.0,11.0,5.0,1.0,1650849842511402.0
1.0,2.0,2.0,3.0,4.0,-3.0,1.0,1.0,1650849842528382.0
-2.0,-1.0,0.0,3.0,2.0,-6.0,-3.0,-2.0,1650849842528382.0
-3.0,-1.0,-6.0,-7.0,-3.0,2.0,-2.0,-2.0,1650849842529355.0
1.0,1.0,6.0,7.0,0.0,14.0,3.0,1.0,1650849842529355.0
-3.0,-3.0,-9.0,-5.0,-18.0,-19.0,-3.0,-2.0,1650849842550301.0
-2.0,-3.0,-4.0,1.0,14.0,16.0,-1.0,-2.0,1650849842550301.0
0.0,-1.0,1.0,-1.0,-2.0,-11.0,1.0,-1.0,1650849842551297.0
-1.0,1.0,-2.0,-4.0,-2.0,8.0,1.0,0.0,1650849842551297.0
0.0,1.0,0.0,3.0,-1.0,-16.0,-4.0,-2.0,1650849842565277.0
0.0,0.0,-1.0,-7.0,-6.0,13.0,2.0,-1.0,1650849842565277.0
-1.0,-1.0,-3.0,4.0,11.0,11.0,1.0,-1.0,1650849842571312.0
0.0,2.0,6.0,5.0,-4.0,-9.0,-1.0,0.0,1650849842571312.0
-2.0,-2.0,3.0,2.0,1.0,7.0,-1.0,-1.0,1650849842587985.0
2.0,-1.0,-4.0,-2.0,-6.0,-24.0,-4.0,0.0,1650849842587985.0
-1.0,3.0,1.0,-7.0,-3.0,2.0,-1.0,-2.0,1650849842588889.0
3.0,-2.0,-9.0,2.0,0.0,5.0,2.0,1.0,1650849842588889.0
0.0,-1.0,1.0,2.0,5.0,2.0,0.0,1.0,1650849842609832.0
-1.0,-2.0,1.0,3.0,-7.0,-15.0,-3.0,0.0,1650849842609832.0
1.0,1.0,2.0,-2.0,-3.0,7.0,1.0,0.0,1650849842611827.0
-1.0,-1.0,-4.0,-1.0,10.0,7.0,2.0,1.0,1650849842611827.0
0.0,1.0,0.0,-2.0,6.0,9.0,1.0,-1.0,1650849842624860.0
0.0,-2.0,1.0,3.0,1.0,0.0,0.0,-1.0,1650849842624860.0
0.0,-2.0,2.0,-3.0,-5.0,-7.0,-1.0,-2.0,1650849842630875.0
-2.0,-1.0,-2.0,-6.0,-7.0,-11.0,-4.0,-1.0,1650849842630875.0
1.0,1.0,-1.0,-3.0,-5.0,-5.0,1.0,-1.0,1650849842647882.0
-1.0,2.0,5.0,-2.0,-3.0,5.0,0.0,-1.0,1650849842647882.0
0.0,0.0,2.0,4.0,10.0,5.0,3.0,3.0,1650849842653868.0
-1.0,0.0,0.0,4.0,4.0,-1.0,1.0,-1.0,1650849842653868.0
0.0,0.0,0.0,-1.0,7.0,8.0,2.0,1.0,1650849842669890.0
1.0,0.0,1.0,-2.0,-7.0,-12.0,-2.0,-1.0,1650849842669890.0
-2.0,-1.0,-4.0,-3.0,-9.0,-5.0,-2.0,-2.0,1650849842671845.0
-1.0,-3.0,-4.0,-12.0,-9.0,-14.0,-5.0,-2.0,1650849842671845.0
0.0,-1.0,-6.0,-4.0,0.0,-5.0,-5.0,-1.0,1650849842684770.0
0.0,-1.0,8.0,10.0,2.0,42.0,12.0,3.0,1650849842684770.0
1.0,1.0,4.0,12.0,15.0,8.0,4.0,1.0,1650849842690777.0
0.0,1.0,-2.0,5.0,4.0,0.0,0.0,0.0,1650849842690777.0
-3.0,-2.0,1.0,-11.0,-8.0,-17.0,-4.0,-2.0,1650849842707739.0
-1.0,0.0,-8.0,-12.0,-5.0,-19.0,-7.0,-2.0,1650849842707739.0
0.0,-1.0,0.0,4.0,4.0,12.0,2.0,2.0,1650849842708719.0
-1.0,0.0,2.0,0.0,-7.0,-6.0,-2.0,-3.0,1650849842708719.0
1.0,-2.0,-2.0,2.0,-9.0,-14.0,-3.0,-1.0,1650849842729652.0
-2.0,0.0,-1.0,4.0,7.0,21.0,2.0,0.0,1650849842729652.0
0.0,-1.0,0.0,0.0,8.0,4.0,1.0,0.0,1650849842731648.0
0.0,0.0,-2.0,-4.0,2.0,-2.0,-2.0,-1.0,1650849842731648.0
0.0,0.0,1.0,0.0,-2.0,6.0,0.0,0.0,1650849842744633.0
0.0,-2.0,-1.0,-5.0,-5.0,-14.0,-1.0,0.0,1650849842744633.0
-1.0,1.0,5.0,8.0,-9.0,-7.0,-3.0,-3.0,1650849842751595.0
1.0,-2.0,-3.0,-2.0,1.0,3.0,2.0,1.0,1650849842751595.0
0.0,1.0,3.0,2.0,-1.0,9.0,1.0,-1.0,1650849842767621.0
-1.0,-4.0,-3.0,-1.0,4.0,-12.0,-2.0,0.0,1650849842767621.0
0.0,-2.0,3.0,-2.0,-8.0,-12.0,-5.0,-1.0,1650849842769545.0
-1.0,-2.0,-2.0,1.0,-2.0,4.0,0.0,-2.0,1650849842769545.0
1.0,0.0,-1.0,1.0,17.0,34.0,8.0,2.0,1650849842789607.0
-1.0,-2.0,1.0,0.0,-1.0,-10.0,-3.0,-3.0,1650849842789607.0
-2.0,-2.0,-4.0,-4.0,1.0,-10.0,-4.0,1.0,1650849842791586.0
-2.0,1.0,4.0,5.0,-3.0,13.0,7.0,1.0,1650849842791586.0
-2.0,-2.0,-3.0,-2.0,-7.0,-10.0,-3.0,0.0,1650849842803609.0
0.0,-1.0,-1.0,-4.0,2.0,-2.0,-1.0,-1.0,1650849842803609.0
-2.0,0.0,-6.0,-4.0,-7.0,-19.0,-2.0,-1.0,1650849842812529.0
0.0,-1.0,1.0,0.0,2.0,11.0,-2.0,-1.0,1650849842812529.0
2.0,1.0,0.0,4.0,4.0,7.0,5.0,0.0,1650849842827506.0
1.0,2.0,2.0,2.0,-3.0,-1.0,1.0,1.0,1650849842827506.0
0.0,-1.0,-1.0,-5.0,-2.0,3.0,-2.0,-2.0,1650849842829493.0
0.0,1.0,-2.0,-2.0,-5.0,-12.0,-2.0,0.0,1650849842829493.0
-1.0,-2.0,0.0,2.0,-1.0,2.0,-2.0,0.0,1650849842850417.0
0.0,0.0,-7.0,-8.0,-2.0,-7.0,-2.0,-2.0,1650849842850417.0
0.0,0.0,1.0,5.0,-7.0,-6.0,0.0,-1.0,1650849842851414.0
-1.0,-3.0,-1.0,-4.0,-4.0,-8.0,-1.0,-1.0,1650849842851414.0
-2.0,-2.0,0.0,2.0,10.0,26.0,4.0,2.0,1650849842863409.0
0.0,1.0,0.0,4.0,8.0,0.0,1.0,-2.0,1650849842863409.0
-1.0,0.0,-3.0,-5.0,-2.0,7.0,1.0,0.0,1650849842872358.0
-1.0,1.0,1.0,-6.0,-4.0,-10.0,-1.0,-1.0,1650849842872358.0
-3.0,0.0,1.0,1.0,-6.0,-19.0,-7.0,-3.0,1650849842887963.0
-1.0,0.0,-1.0,-3.0,-2.0,-2.0,-2.0,-2.0,1650849842887963.0
0.0,-1.0,-3.0,2.0,-8.0,7.0,2.0,0.0,1650849842888899.0
2.0,0.0,3.0,7.0,16.0,6.0,2.0,1.0,1650849842888899.0
-1.0,1.0,-3.0,0.0,3.0,3.0,3.0,0.0,1650849842909865.0
-3.0,0.0,0.0,0.0,-1.0,-3.0,-2.0,0.0,1650849842909865.0
1.0,-1.0,3.0,0.0,-1.0,-2.0,0.0,-1.0,1650849842911853.0
-1.0,-1.0,-3.0,-4.0,-10.0,-6.0,-2.0,0.0,1650849842911853.0
-1.0,0.0,-4.0,-6.0,-2.0,-15.0,-4.0,-2.0,1650849842923828.0
-1.0,1.0,0.0,1.0,-4.0,11.0,2.0,0.0,1650849842923828.0
0.0,-1.0,-1.0,3.0,-4.0,5.0,-1.0,-2.0,1650849842932778.0
0.0,0.0,-3.0,0.0,6.0,12.0,4.0,1.0,1650849842932778.0
1.0,1.0,1.0,2.0,15.0,10.0,3.0,0.0,1650849842947736.0
0.0,-2.0,5.0,6.0,0.0,-2.0,-3.0,0.0,1650849842947736.0
-1.0,-2.0,-6.0,-5.0,-2.0,-3.0,-3.0,-1.0,1650849842948734.0
-3.0,-2.0,-1.0,-1.0,-10.0,-7.0,-3.0,-1.0,1650849842948734.0
-1.0,0.0,3.0,-2.0,-10.0,-16.0,-3.0,-1.0,1650849842969745.0
-1.0,-1.0,0.0,-4.0,-1.0,-2.0,-1.0,0.0,1650849842969745.0
1.0,-2.0,-1.0,4.0,9.0,6.0,1.0,-1.0,1650849842971674.0
0.0,-1.0,0.0,-2.0,-4.0,-9.0,-1.0,-1.0,1650849842971674.0
1.0,0.0,-1.0,2.0,-5.0,15.0,3.0,3.0,1650849842983641.0
-1.0,-1.0,0.0,0.0,11.0,2.0,2.0,2.0,1650849842983641.0
-1.0,0.0,3.0,-3.0,4.0,1.0,1.0,0.0,1650849842998734.0
0.0,1.0,-5.0,-5.0,-1.0,-8.0,-3.0,-3.0,1650849842998734.0
-1.0,0.0,1.0,0.0,-9.0,-7.0,-1.0,-1.0,1650849843007870.0
2.0,2.0,5.0,-1.0,-9.0,-10.0,-4.0,0.0,1650849843007870.0
-2.0,1.0,-1.0,0.0,-6.0,-25.0,-6.0,-3.0,1650849843008808.0
0.0,-2.0,-1.0,2.0,7.0,49.0,12.0,1.0,1650849843008808.0
1.0,-1.0,-2.0,1.0,13.0,5.0,2.0,3.0,1650849843030124.0
-1.0,0.0,-1.0,4.0,4.0,-1.0,1.0,1.0,1650849843030124.0
0.0,1.0,1.0,-5.0,-6.0,-13.0,-3.0,-1.0,1650849843031115.0
-1.0,-2.0,-1.0,-3.0,-8.0,-17.0,-7.0,-3.0,1650849843031115.0
-1.0,0.0,-2.0,0.0,-5.0,3.0,0.0,-3.0,1650849843044096.0
-1.0,-5.0,-4.0,-1.0,0.0,-6.0,-1.0,-1.0,1650849843044096.0
0.0,4.0,1.0,1.0,0.0,8.0,1.0,1.0,1650849843053058.0
0.0,3.0,2.0,-2.0,2.0,-1.0,0.0,0.0,1650849843053058.0
1.0,-3.0,-3.0,0.0,-3.0,-3.0,-2.0,0.0,1650849843067020.0
0.0,-2.0,-5.0,2.0,-1.0,-6.0,0.0,-1.0,1650849843067020.0
0.0,-3.0,-1.0,-6.0,1.0,11.0,4.0,-1.0,1650849843069014.0
-1.0,-1.0,2.0,-3.0,-1.0,-2.0,0.0,0.0,1650849843069014.0
-2.0,2.0,5.0,3.0,-1.0,-12.0,-4.0,-3.0,1650849843089959.0
1.0,-1.0,-6.0,-4.0,0.0,3.0,1.0,1.0,1650849843089959.0
-2.0,-3.0,-1.0,-1.0,-3.0,7.0,2.0,0.0,1650849843091886.0
1.0,0.0,-1.0,2.0,6.0,-4.0,-1.0,1.0,1650849843091886.0
-2.0,0.0,-6.0,-7.0,-2.0,-4.0,-2.0,-1.0,1650849843103921.0
-2.0,-18.0,-2.0,2.0,0.0,4.0,1.0,-1.0,1650849843103921.0
3.0,13.0,-1.0,1.0,6.0,6.0,2.0,3.0,1650849843112830.0
-5.0,-19.0,0.0,-3.0,-7.0,-14.0,-9.0,-5.0,1650849843112830.0
2.0,41.0,20.0,2.0,-4.0,2.0,-7.0,-13.0,1650849843127789.0
-7.0,-13.0,-4.0,5.0,5.0,2.0,5.0,12.0,1650849843127789.0
0.0,-21.0,-42.0,-27.0,-9.0,-1.0,-6.0,-24.0,1650849843128787.0
-7.0,95.0,50.0,18.0,-6.0,-6.0,-2.0,8.0,1650849843128787.0
-8.0,-80.0,-48.0,-6.0,6.0,1.0,11.0,2.0,1650849843149868.0
30.0,77.0,54.0,20.0,7.0,-5.0,37.0,48.0,1650849843149868.0
24.0,7.0,3.0,4.0,4.0,4.0,14.0,31.0,1650849843151876.0
2.0,-27.0,-20.0,-14.0,-13.0,-18.0,-12.0,-8.0,1650849843151876.0
-9.0,23.0,3.0,-14.0,-4.0,-4.0,-14.0,-14.0,1650849843172792.0
-24.0,-39.0,-11.0,-5.0,-16.0,6.0,-22.0,-36.0,1650849843172792.0
-10.0,11.0,6.0,7.0,-4.0,17.0,-3.0,-16.0,1650849843173789.0
-1.0,-10.0,0.0,9.0,44.0,23.0,3.0,-9.0,1650849843173789.0
-2.0,-6.0,1.0,5.0,-12.0,-21.0,-7.0,-1.0,1650849843186827.0
0.0,-10.0,-17.0,-14.0,-3.0,3.0,-5.0,-5.0,1650849843186827.0
0.0,7.0,14.0,4.0,-5.0,-7.0,-1.0,6.0,1650849843193763.0
2.0,-16.0,-14.0,1.0,0.0,5.0,3.0,1.0,1650849843193763.0
4.0,-7.0,9.0,5.0,3.0,-2.0,6.0,11.0,1650849843209782.0
5.0,63.0,42.0,-9.0,-6.0,-6.0,8.0,1.0,1650849843209782.0
-15.0,-89.0,-65.0,-6.0,-2.0,1.0,-17.0,-4.0,1650849843211777.0
-6.0,15.0,16.0,12.0,2.0,-1.0,-8.0,-4.0,1650849843211777.0
1.0,2.0,1.0,-6.0,-4.0,1.0,-15.0,-15.0,1650849843223744.0
-8.0,-32.0,-27.0,0.0,-3.0,-12.0,4.0,-4.0,1650849843223744.0
16.0,8.0,28.0,-14.0,-10.0,-14.0,16.0,-44.0,1650849843232734.0
36.0,10.0,-10.0,5.0,8.0,12.0,45.0,105.0,1650849843232734.0
-7.0,-12.0,11.0,13.0,10.0,9.0,-9.0,-9.0,1650849843246682.0
-20.0,-10.0,11.0,15.0,11.0,14.0,-18.0,-31.0,1650849843246682.0
-30.0,7.0,0.0,-10.0,-4.0,-10.0,-6.0,-12.0,1650849843253732.0
13.0,14.0,-9.0,-7.0,-8.0,-5.0,-45.0,-44.0,1650849843253732.0
9.0,-11.0,16.0,4.0,-2.0,-3.0,41.0,-2.0,1650849843269623.0
20.0,-10.0,-42.0,3.0,12.0,-11.0,-8.0,15.0,1650849843269623.0
-22.0,15.0,18.0,13.0,8.0,39.0,-17.0,-12.0,1650849843271617.0
4.0,21.0,11.0,-1.0,2.0,5.0,70.0,60.0,1650849843271617.0
2.0,15.0,-6.0,-10.0,-9.0,2.0,-10.0,2.0,1650849843292590.0
-6.0,-1.0,-3.0,-5.0,-5.0,-13.0,-7.0,-43.0,1650849843292590.0
21.0,10.0,-9.0,6.0,5.0,-9.0,-17.0,-9.0,1650849843294563.0
-3.0,-2.0,-10.0,-7.0,-12.0,-2.0,-12.0,21.0,1650849843294563.0
-1.0,1.0,-2.0,2.0,2.0,0.0,49.0,27.0,1650849843307933.0
-6.0,-1.0,4.0,-7.0,-2.0,8.0,6.0,-5.0,1650849843307933.0
-3.0,52.0,42.0,5.0,-7.0,-11.0,-24.0,6.0,1650849843308931.0
7.0,-46.0,-33.0,-14.0,-12.0,-12.0,18.0,-28.0,1650849843308931.0
3.0,35.0,3.0,3.0,11.0,2.0,-4.0,17.0,1650849843329903.0
-7.0,-14.0,-3.0,-8.0,-5.0,10.0,-19.0,-24.0,1650849843329903.0
-2.0,-4.0,3.0,7.0,11.0,4.0,12.0,12.0,1650849843331890.0
-19.0,-1.0,9.0,5.0,-4.0,-1.0,-35.0,-52.0,1650849843331890.0
2.0,-4.0,-12.0,-16.0,-16.0,-33.0,-10.0,2.0,1650849843352885.0
-18.0,-25.0,-10.0,-6.0,-8.0,20.0,-18.0,-4.0,1650849843352885.0
-3.0,-17.0,-20.0,-8.0,0.0,-14.0,4.0,14.0,1650849843353812.0
30.0,34.0,13.0,5.0,0.0,-5.0,-4.0,16.0,1650849843353812.0
-10.0,4.0,16.0,-4.0,3.0,-7.0,-26.0,-27.0,1650849843367774.0
0.0,-9.0,1.0,3.0,2.0,22.0,33.0,11.0,1650849843367774.0
42.0,51.0,2.0,1.0,2.0,-13.0,45.0,83.0,1650849843368774.0
-33.0,-19.0,2.0,-11.0,-17.0,-15.0,-23.0,-34.0,1650849843368774.0
10.0,-43.0,-7.0,5.0,5.0,7.0,9.0,22.0,1650849843390775.0
-8.0,43.0,27.0,2.0,-2.0,-17.0,-9.0,22.0,1650849843390775.0
2.0,-3.0,13.0,8.0,12.0,15.0,16.0,-3.0,1650849843395699.0
-2.0,59.0,-20.0,1.0,3.0,8.0,-3.0,-12.0,1650849843395699.0
-21.0,-49.0,-19.0,15.0,10.0,9.0,-20.0,-20.0,1650849843412799.0
11.0,-55.0,-8.0,-7.0,-5.0,-13.0,18.0,32.0,1650849843412799.0
-4.0,5.0,9.0,16.0,20.0,25.0,8.0,-6.0,1650849843413769.0
3.0,-6.0,14.0,-19.0,-17.0,-21.0,-11.0,-13.0,1650849843413769.0
-12.0,-55.0,-25.0,-16.0,-12.0,-5.0,2.0,10.0,1650849843426809.0
5.0,37.0,34.0,1.0,-3.0,-4.0,-18.0,-20.0,1650849843426809.0
-11.0,14.0,-1.0,-1.0,-9.0,-13.0,-21.0,-15.0,1650849843433776.0
-3.0,-30.0,8.0,-3.0,10.0,14.0,0.0,-7.0,1650849843433776.0
11.0,24.0,-17.0,8.0,-4.0,3.0,24.0,-2.0,1650849843449761.0
19.0,55.0,6.0,-2.0,7.0,-8.0,4.0,27.0,1650849843449761.0
-18.0,-80.0,-43.0,-23.0,-18.0,-12.0,-20.0,-18.0,1650849843451716.0
3.0,33.0,71.0,36.0,15.0,9.0,13.0,14.0,1650849843451716.0
-7.0,47.0,-15.0,-24.0,-10.0,-15.0,-8.0,-12.0,1650849843472659.0
7.0,-3.0,-16.0,5.0,7.0,17.0,-21.0,-25.0,1650849843472659.0
-3.0,-26.0,-11.0,10.0,7.0,6.0,14.0,-6.0,1650849843478670.0
-16.0,-44.0,-38.0,-36.0,-16.0,-9.0,-11.0,-9.0,1650849843478670.0
12.0,-5.0,11.0,27.0,15.0,16.0,19.0,17.0,1650849843486689.0
6.0,-6.0,-8.0,7.0,7.0,-8.0,24.0,16.0,1650849843486689.0
8.0,11.0,26.0,6.0,3.0,0.0,11.0,13.0,1650849843493633.0
-13.0,-22.0,-26.0,0.0,6.0,4.0,-25.0,-15.0,1650849843493633.0
-1.0,-15.0,13.0,-9.0,-4.0,-8.0,38.0,34.0,1650849843509587.0
-3.0,-9.0,-19.0,-5.0,6.0,55.0,0.0,-7.0,1650849843509587.0
4.0,20.0,36.0,4.0,-3.0,-4.0,-14.0,-10.0,1650849843511556.0
1.0,-24.0,-24.0,7.0,-3.0,-8.0,38.0,23.0,1650849843511556.0
14.0,27.0,-2.0,8.0,15.0,-2.0,-32.0,-5.0,1650849843532526.0
-15.0,10.0,-11.0,-18.0,-27.0,-31.0,-11.0,-8.0,1650849843532526.0
7.0,-16.0,7.0,18.0,20.0,3.0,-7.0,-6.0,1650849843534495.0
-12.0,7.0,1.0,-11.0,-18.0,10.0,1.0,-22.0,1650849843534495.0
1.0,16.0,25.0,4.0,3.0,15.0,-8.0,2.0,1650849843546461.0
12.0,17.0,8.0,3.0,3.0,-4.0,30.0,28.0,1650849843546461.0
-40.0,-6.0,-36.0,-31.0,-23.0,-21.0,-57.0,-63.0,1650849843554072.0
-4.0,-66.0,-16.0,4.0,8.0,-6.0,1.0,19.0,1650849843554072.0
3.0,21.0,-4.0,7.0,-12.0,0.0,-10.0,-23.0,1650849843570502.0
10.0,0.0,7.0,13.0,12.0,-2.0,2.0,14.0,1650849843570502.0
3.0,-35.0,-4.0,-15.0,-8.0,-4.0,33.0,40.0,1650849843571413.0
4.0,35.0,-4.0,-2.0,-1.0,-1.0,-1.0,-1.0,1650849843571413.0
-4.0,-11.0,11.0,7.0,9.0,11.0,-21.0,-9.0,1650849843592384.0
-6.0,-22.0,-28.0,-11.0,-16.0,-17.0,-18.0,-23.0,1650849843592384.0
15.0,-20.0,17.0,18.0,7.0,9.0,18.0,17.0,1650849843594372.0
15.0,12.0,28.0,11.0,7.0,3.0,-2.0,-9.0,1650849843594372.0
-39.0,3.0,-9.0,-16.0,-8.0,-2.0,13.0,21.0,1650849843606521.0
-4.0,-24.0,-11.0,-3.0,-2.0,-14.0,-17.0,-17.0,1650849843606521.0
1.0,72.0,29.0,-2.0,-7.0,2.0,4.0,0.0,1650849843613461.0
6.0,-9.0,10.0,6.0,1.0,0.0,-8.0,-12.0,1650849843613461.0
6.0,-10.0,-31.0,-23.0,-9.0,2.0,7.0,12.0,1650849843629554.0
6.0,-12.0,11.0,26.0,18.0,6.0,8.0,15.0,1650849843629554.0
-3.0,6.0,2.0,-5.0,-1.0,4.0,2.0,6.0,1650849843631560.0
-1.0,-27.0,-13.0,-10.0,-8.0,-9.0,12.0,10.0,1650849843631560.0
-2.0,-9.0,0.0,3.0,-6.0,-5.0,-14.0,-7.0,1650849843652560.0
-10.0,-5.0,3.0,-11.0,-7.0,-6.0,-7.0,-12.0,1650849843652560.0
-6.0,-9.0,-12.0,-13.0,-16.0,-10.0,-16.0,-19.0,1650849843654488.0
17.0,22.0,3.0,11.0,14.0,5.0,17.0,21.0,1650849843654488.0
5.0,11.0,7.0,-5.0,4.0,5.0,-3.0,-7.0,1650849843682441.0
-12.0,-7.0,-24.0,-18.0,-19.0,4.0,-9.0,-24.0,1650849843682441.0
3.0,-36.0,-7.0,19.0,10.0,2.0,7.0,14.0,1650849843684408.0
-10.0,6.0,-1.0,1.0,11.0,4.0,7.0,3.0,1650849843684408.0
10.0,20.0,15.0,2.0,-6.0,-6.0,-2.0,2.0,1650849843690399.0
-9.0,-11.0,-11.0,-1.0,10.0,-6.0,-16.0,-18.0,1650849843690399.0
19.0,41.0,0.0,0.0,-6.0,1.0,7.0,23.0,1650849843691397.0
-25.0,2.0,5.0,7.0,5.0,-4.0,-32.0,-37.0,1650849843691397.0
25.0,-4.0,4.0,-5.0,-1.0,5.0,35.0,27.0,1650849843712450.0
-7.0,-41.0,-50.0,-16.0,-14.0,-14.0,-25.0,-21.0,1650849843712450.0
-36.0,32.0,13.0,3.0,-1.0,-13.0,3.0,-2.0,1650849843714417.0
-2.0,-3.0,-9.0,-14.0,-2.0,11.0,-21.0,-17.0,1650849843714417.0
-5.0,0.0,11.0,19.0,21.0,30.0,-2.0,-12.0,1650849843726385.0
33.0,41.0,20.0,-7.0,-6.0,-2.0,36.0,40.0,1650849843726385.0
2.0,-6.0,-14.0,17.0,9.0,3.0,-15.0,-10.0,1650849843733367.0
-4.0,10.0,8.0,-1.0,-4.0,-11.0,-12.0,-10.0,1650849843733367.0
-2.0,2.0,-2.0,-23.0,-21.0,-16.0,-13.0,-16.0,1650849843750321.0
-10.0,-20.0,-3.0,11.0,11.0,5.0,12.0,19.0,1650849843750321.0
6.0,11.0,1.0,8.0,14.0,5.0,1.0,-1.0,1650849843751319.0
-2.0,-32.0,-8.0,-3.0,-12.0,1.0,12.0,8.0,1650849843751319.0
2.0,21.0,4.0,8.0,12.0,4.0,-7.0,-7.0,1650849843772265.0
1.0,12.0,15.0,-6.0,-7.0,-6.0,-4.0,-3.0,1650849843772265.0
2.0,-13.0,-3.0,-2.0,-3.0,-4.0,0.0,-4.0,1650849843774257.0
-1.0,39.0,-6.0,-3.0,-7.0,-5.0,-3.0,0.0,1650849843774257.0
-9.0,-29.0,-7.0,0.0,2.0,4.0,5.0,7.0,1650849843786229.0
5.0,26.0,8.0,4.0,-1.0,-7.0,14.0,-6.0,1650849843786229.0
2.0,-24.0,-15.0,-9.0,0.0,18.0,5.0,21.0,1650849843795201.0
3.0,30.0,19.0,14.0,12.0,1.0,-14.0,-17.0,1650849843795201.0
11.0,17.0,1.0,10.0,-6.0,-13.0,12.0,16.0,1650849843810216.0
-9.0,-30.0,4.0,20.0,26.0,10.0,-4.0,8.0,1650849843810216.0
6.0,25.0,-10.0,-33.0,-19.0,-9.0,2.0,-9.0,1650849843811159.0
8.0,-10.0,-17.0,4.0,-2.0,-3.0,-2.0,13.0,1650849843811159.0
-16.0,-19.0,3.0,0.0,-4.0,-8.0,-25.0,-29.0,1650849843833179.0
-12.0,5.0,-1.0,-8.0,-13.0,-2.0,-5.0,-9.0,1650849843833179.0
-7.0,12.0,14.0,3.0,4.0,9.0,7.0,6.0,1650849843834156.0
-10.0,-8.0,-5.0,-10.0,0.0,-5.0,-3.0,-2.0,1650849843834156.0
26.0,4.0,4.0,7.0,-1.0,-1.0,21.0,5.0,1650849843846157.0
13.0,13.0,5.0,-5.0,-2.0,0.0,8.0,11.0,1650849843846157.0
8.0,9.0,10.0,-4.0,-6.0,-3.0,8.0,3.0,1650849843855100.0
-11.0,-3.0,7.0,1.0,-2.0,-1.0,-16.0,-32.0,1650849843855100.0
5.0,14.0,7.0,2.0,2.0,-3.0,16.0,21.0,1650849843870154.0
-49.0,-64.0,-15.0,-15.0,-10.0,-4.0,-11.0,-11.0,1650849843870154.0
10.0,-1.0,-7.0,19.0,23.0,4.0,-14.0,-6.0,1650849843872097.0
12.0,18.0,19.0,6.0,-1.0,30.0,37.0,13.0,1650849843872097.0
3.0,13.0,-2.0,-3.0,3.0,0.0,7.0,22.0,1650849843892000.0
14.0,0.0,10.0,3.0,-7.0,-10.0,-8.0,-6.0,1650849843892000.0
-14.0,-40.0,-10.0,-2.0,0.0,-12.0,-4.0,-8.0,1650849843893997.0
-9.0,-14.0,-8.0,3.0,2.0,-2.0,-5.0,0.0,1650849843893997.0
-1.0,25.0,-13.0,-5.0,-6.0,-4.0,-22.0,-23.0,1650849843906052.0
-8.0,2.0,1.0,-9.0,-11.0,-7.0,9.0,4.0,1650849843906052.0
27.0,59.0,21.0,30.0,26.0,9.0,-10.0,8.0,1650849843914996.0
-1.0,-83.0,0.0,4.0,-2.0,-2.0,13.0,21.0,1650849843914996.0
0.0,36.0,6.0,-13.0,-2.0,-2.0,4.0,-14.0,1650849843929955.0
-12.0,17.0,-2.0,-2.0,-2.0,4.0,-20.0,-18.0,1650849843929955.0
-11.0,-29.0,2.0,4.0,-3.0,0.0,6.0,-7.0,1650849843931970.0
10.0,27.0,-17.0,-15.0,-6.0,-4.0,6.0,14.0,1650849843931970.0
-18.0,-30.0,5.0,1.0,1.0,-2.0,-10.0,-10.0,1650849843953382.0
8.0,12.0,-5.0,1.0,9.0,4.0,-12.0,-3.0,1650849843953382.0
-2.0,-14.0,4.0,-21.0,-25.0,-8.0,-4.0,-11.0,1650849843954382.0
3.0,-33.0,-27.0,17.0,9.0,-7.0,18.0,14.0,1650849843954382.0
-5.0,7.0,28.0,-9.0,-10.0,-1.0,-9.0,0.0,1650849843966379.0
14.0,26.0,25.0,14.0,-1.0,1.0,4.0,3.0,1650849843966379.0
-13.0,-39.0,-40.0,-10.0,8.0,5.0,-8.0,-5.0,1650849843975469.0
7.0,19.0,9.0,-11.0,-10.0,-5.0,-33.0,-33.0,1650849843975469.0
-2.0,-12.0,-13.0,1.0,-6.0,-5.0,34.0,34.0,1650849843990397.0
15.0,16.0,20.0,11.0,16.0,23.0,18.0,15.0,1650849843990397.0
-2.0,5.0,-6.0,-14.0,-14.0,-8.0,5.0,-1.0,1650849843991393.0
-6.0,-16.0,-30.0,3.0,0.0,1.0,-8.0,-6.0,1650849843991393.0
-8.0,32.0,24.0,3.0,9.0,-2.0,-44.0,-30.0,1650849844012385.0
3.0,2.0,3.0,-9.0,-13.0,-12.0,32.0,22.0,1650849844012385.0
6.0,12.0,1.0,6.0,3.0,-1.0,-1.0,-5.0,1650849844014383.0
1.0,27.0,7.0,-9.0,4.0,10.0,6.0,7.0,1650849844014383.0
25.0,-28.0,-1.0,11.0,7.0,5.0,-15.0,-9.0,1650849844026347.0
-68.0,6.0,-24.0,-10.0,-3.0,-13.0,-8.0,-24.0,1650849844026347.0
6.0,-3.0,-14.0,-12.0,-20.0,-24.0,6.0,22.0,1650849844035296.0
-4.0,-24.0,20.0,-15.0,-7.0,5.0,0.0,4.0,1650849844035296.0
5.0,-25.0,-24.0,19.0,11.0,29.0,11.0,0.0,1650849844050257.0
14.0,31.0,26.0,13.0,19.0,6.0,-17.0,-12.0,1650849844050257.0
5.0,-3.0,5.0,-6.0,-8.0,-1.0,22.0,19.0,1650849844051254.0
-13.0,5.0,-8.0,-5.0,-12.0,-29.0,-8.0,-2.0,1650849844051254.0
-9.0,-24.0,-18.0,-11.0,1.0,4.0,-16.0,-8.0,1650849844072265.0
10.0,-9.0,-4.0,5.0,-2.0,19.0,16.0,13.0,1650849844072265.0
3.0,19.0,11.0,0.0,6.0,0.0,4.0,-3.0,1650849844074219.0
8.0,2.0,-2.0,2.0,-3.0,2.0,-1.0,6.0,1650849844074219.0
-7.0,11.0,26.0,9.0,10.0,-3.0,-4.0,-8.0,1650849844086161.0
11.0,35.0,5.0,-15.0,-10.0,-8.0,-11.0,-7.0,1650849844086161.0
-20.0,-56.0,-10.0,6.0,-5.0,3.0,-18.0,-21.0,1650849844095138.0
9.0,2.0,-6.0,-7.0,-6.0,2.0,26.0,39.0,1650849844095138.0
0.0,-1.0,6.0,-2.0,-8.0,-9.0,-2.0,-7.0,1650849844110182.0
11.0,6.0,14.0,8.0,5.0,-3.0,0.0,4.0,1650849844110182.0
3.0,15.0,10.0,0.0,7.0,9.0,-1.0,0.0,1650849844111180.0
-6.0,-7.0,-5.0,3.0,3.0,-10.0,-10.0,-12.0,1650849844111180.0
-9.0,2.0,-15.0,-10.0,-6.0,-3.0,6.0,6.0,1650849844132152.0
11.0,-25.0,-7.0,6.0,9.0,13.0,1.0,5.0,1650849844132152.0
-2.0,-1.0,-4.0,0.0,-13.0,-5.0,-1.0,2.0,1650849844134119.0
5.0,66.0,21.0,27.0,51.0,31.0,8.0,-8.0,1650849844134119.0
-9.0,-86.0,-15.0,-14.0,-19.0,-18.0,-1.0,-1.0,1650849844146113.0
23.0,6.0,-12.0,-2.0,-13.0,-27.0,-12.0,-8.0,1650849844146113.0
-26.0,-6.0,-5.0,-5.0,14.0,25.0,-3.0,-8.0,1650849844155177.0
0.0,7.0,13.0,-6.0,-15.0,-18.0,-1.0,-4.0,1650849844155177.0
6.0,31.0,-5.0,8.0,0.0,9.0,13.0,3.0,1650849844170197.0
3.0,-47.0,-14.0,4.0,3.0,0.0,0.0,6.0,1650849844170197.0
3.0,-1.0,16.0,-1.0,8.0,-4.0,-2.0,-3.0,1650849844172138.0
14.0,-14.0,7.0,-2.0,-7.0,-1.0,-2.0,2.0,1650849844172138.0
-8.0,15.0,-21.0,-8.0,6.0,1.0,-7.0,-8.0,1650849844193143.0
-4.0,-14.0,2.0,-6.0,-16.0,-13.0,-1.0,-1.0,1650849844193143.0
6.0,23.0,-20.0,4.0,-2.0,5.0,3.0,3.0,1650849844194073.0
-2.0,20.0,18.0,0.0,5.0,4.0,0.0,-4.0,1650849844194073.0
-8.0,-38.0,-41.0,-10.0,-8.0,-9.0,-12.0,-6.0,1650849844215148.0
4.0,45.0,19.0,9.0,10.0,7.0,-4.0,4.0,1650849844215148.0
3.0,-12.0,3.0,1.0,-3.0,-3.0,20.0,-2.0,1650849844216117.0
-6.0,-11.0,-5.0,-7.0,-5.0,-5.0,-7.0,-13.0,1650849844216117.0
9.0,31.0,13.0,6.0,4.0,4.0,0.0,12.0,1650849844230079.0
-12.0,-28.0,-13.0,2.0,6.0,9.0,1.0,-2.0,1650849844230079.0
-1.0,-8.0,-6.0,-3.0,-5.0,-6.0,-10.0,-10.0,1650849844232077.0
-5.0,3.0,-3.0,-2.0,-14.0,-16.0,-5.0,-1.0,1650849844232077.0
-3.0,31.0,11.0,0.0,-5.0,-7.0,2.0,-3.0,1650849844252021.0
-5.0,-30.0,-11.0,-5.0,-1.0,-1.0,-3.0,-3.0,1650849844252021.0
4.0,15.0,1.0,-1.0,-1.0,4.0,0.0,5.0,1650849844254016.0
0.0,-5.0,-7.0,0.0,9.0,21.0,10.0,3.0,1650849844254016.0
-4.0,3.0,1.0,8.0,11.0,-1.0,-5.0,-5.0,1650849844275057.0
5.0,-7.0,12.0,-16.0,-3.0,-8.0,6.0,10.0,1650849844275057.0
1.0,20.0,-10.0,17.0,-18.0,-13.0,-8.0,-15.0,1650849844277052.0
1.0,18.0,-9.0,-3.0,9.0,4.0,11.0,18.0,1650849844277052.0
-5.0,-16.0,19.0,-4.0,-5.0,-4.0,-7.0,-12.0,1650849844290091.0
-3.0,1.0,-21.0,-7.0,0.0,1.0,6.0,2.0,1650849844290091.0
4.0,-1.0,14.0,-9.0,-7.0,-4.0,-1.0,1.0,1650849844292012.0
-2.0,-1.0,-10.0,-2.0,-8.0,-8.0,-11.0,-5.0,1650849844292012.0
5.0,18.0,4.0,1.0,-3.0,-1.0,5.0,5.0,1650849844312071.0
-7.0,8.0,0.0,4.0,-1.0,6.0,-14.0,-16.0,1650849844312071.0
2.0,1.0,-7.0,-2.0,14.0,15.0,13.0,8.0,1650849844314039.0
8.0,-24.0,5.0,8.0,-11.0,-12.0,14.0,19.0,1650849844314039.0
-8.0,-19.0,-21.0,-10.0,-6.0,-5.0,-9.0,-7.0,1650849844334983.0
2.0,17.0,1.0,1.0,0.0,4.0,2.0,-1.0,1650849844334983.0
-9.0,2.0,4.0,-2.0,-2.0,-1.0,-11.0,-6.0,1650849844336978.0
7.0,-17.0,-6.0,-2.0,4.0,1.0,-5.0,-8.0,1650849844336978.0
-31.0,8.0,11.0,1.0,-11.0,-19.0,5.0,-1.0,1650849844348975.0
5.0,-5.0,6.0,12.0,2.0,-2.0,-6.0,3.0,1650849844348975.0
6.0,-6.0,-14.0,-5.0,10.0,25.0,10.0,5.0,1650849844355994.0
-6.0,-4.0,-1.0,-2.0,0.0,-2.0,-6.0,-4.0,1650849844355994.0
9.0,-4.0,-7.0,-1.0,-2.0,1.0,-2.0,0.0,1650849844372978.0
1.0,5.0,2.0,-1.0,-3.0,-16.0,4.0,3.0,1650849844372978.0
-6.0,9.0,30.0,3.0,0.0,-6.0,-6.0,2.0,1650849844373899.0
-4.0,-7.0,-15.0,-4.0,-12.0,0.0,2.0,-4.0,1650849844373899.0
18.0,8.0,5.0,4.0,10.0,9.0,-1.0,0.0,1650849844394872.0
-5.0,-8.0,-11.0,0.0,13.0,10.0,4.0,3.0,1650849844394872.0
1.0,-11.0,1.0,-5.0,-11.0,-11.0,-5.0,-1.0,1650849844396840.0
-12.0,-17.0,-31.0,-10.0,-5.0,-12.0,-9.0,-8.0,1650849844396840.0
0.0,-15.0,6.0,3.0,-1.0,12.0,10.0,8.0,1650849844409812.0
3.0,14.0,12.0,8.0,4.0,22.0,4.0,2.0,1650849844409812.0
-1.0,1.0,-3.0,-1.0,4.0,-4.0,-4.0,1.0,1650849844415789.0
-3.0,8.0,3.0,-1.0,-1.0,-6.0,-3.0,-3.0,1650849844415789.0
-3.0,-10.0,-5.0,-8.0,-5.0,-15.0,-4.0,-5.0,1650849844432955.0
4.0,-1.0,-3.0,9.0,0.0,11.0,3.0,3.0,1650849844432955.0
7.0,-7.0,3.0,-6.0,-7.0,-15.0,-25.0,-7.0,1650849844433915.0
1.0,-2.0,6.0,1.0,2.0,-2.0,11.0,0.0,1650849844433915.0
28.0,23.0,1.0,7.0,0.0,23.0,15.0,7.0,1650849844454860.0
6.0,-3.0,7.0,-6.0,-9.0,-19.0,-15.0,-4.0,1650849844454860.0
-12.0,-2.0,-18.0,-5.0,4.0,7.0,7.0,-3.0,1650849844456853.0
5.0,1.0,11.0,10.0,3.0,-7.0,-9.0,-3.0,1650849844456853.0
-13.0,-1.0,-2.0,-3.0,8.0,-1.0,-18.0,1.0,1650849844469818.0
8.0,2.0,21.0,-3.0,-8.0,0.0,11.0,-2.0,1650849844469818.0
12.0,-13.0,-23.0,-4.0,1.0,-6.0,-1.0,0.0,1650849844475804.0
-6.0,1.0,-10.0,2.0,-5.0,4.0,-6.0,-2.0,1650849844475804.0
-11.0,1.0,10.0,-1.0,-12.0,-12.0,-2.0,-4.0,1650849844492757.0
-5.0,-2.0,-15.0,-9.0,15.0,2.0,-2.0,1.0,1650849844492757.0
-2.0,7.0,25.0,6.0,-7.0,25.0,8.0,3.0,1650849844493760.0
-15.0,-1.0,3.0,-9.0,4.0,4.0,1.0,-2.0,1650849844493760.0
-1.0,1.0,-2.0,29.0,13.0,3.0,-2.0,-3.0,1650849844514698.0
-3.0,-7.0,-17.0,-8.0,-13.0,-22.0,-6.0,-2.0,1650849844514698.0
1.0,-5.0,3.0,0.0,-1.0,-8.0,5.0,2.0,1650849844516693.0
-2.0,-4.0,-26.0,-9.0,-3.0,9.0,0.0,-2.0,1650849844516693.0
12.0,1.0,23.0,1.0,-10.0,-10.0,-5.0,-3.0,1650849844529658.0
2.0,-8.0,-3.0,2.0,10.0,11.0,7.0,3.0,1650849844529658.0
4.0,47.0,13.0,-1.0,-2.0,-7.0,1.0,1.0,1650849844536640.0
-38.0,-7.0,20.0,-3.0,3.0,16.0,-3.0,-3.0,1650849844536640.0
14.0,1.0,-44.0,-5.0,4.0,-4.0,6.0,3.0,1650849844552597.0
-11.0,-5.0,7.0,2.0,-15.0,-14.0,3.0,-5.0,1650849844552597.0
-9.0,-10.0,-2.0,4.0,2.0,17.0,-1.0,1.0,1650849844554591.0
17.0,5.0,28.0,-2.0,-4.0,-3.0,0.0,2.0,1650849844554591.0
-6.0,4.0,-25.0,-12.0,7.0,8.0,-2.0,-2.0,1650849844574540.0
-3.0,6.0,14.0,7.0,3.0,2.0,0.0,1.0,1650849844574540.0
11.0,-4.0,-12.0,-6.0,-22.0,-25.0,-6.0,-4.0,1650849844576536.0
3.0,4.0,-9.0,4.0,14.0,5.0,3.0,3.0,1650849844576536.0
-9.0,-11.0,21.0,18.0,4.0,-1.0,0.0,-3.0,1650849844589501.0
8.0,11.0,-7.0,-13.0,7.0,33.0,4.0,2.0,1650849844589501.0
-6.0,-10.0,0.0,1.0,6.0,-11.0,-2.0,0.0,1650849844596479.0
4.0,11.0,-5.0,-8.0,-16.0,-6.0,-3.0,-2.0,1650849844596479.0
-5.0,1.0,2.0,-1.0,-4.0,-8.0,1.0,0.0,1650849844612562.0
21.0,3.0,-21.0,-13.0,-5.0,-13.0,-7.0,-4.0,1650849844612562.0
-23.0,-12.0,-35.0,-6.0,0.0,3.0,2.0,0.0,1650849844614529.0
2.0,-3.0,36.0,30.0,7.0,3.0,2.0,1.0,1650849844614529.0
10.0,-2.0,-2.0,-25.0,-8.0,-2.0,1.0,0.0,1650849844635473.0
0.0,-3.0,-5.0,4.0,-2.0,0.0,-2.0,0.0,1650849844635473.0
-2.0,-5.0,1.0,-9.0,-12.0,-6.0,1.0,0.0,1650849844636472.0
9.0,-4.0,-5.0,15.0,10.0,1.0,0.0,0.0,1650849844636472.0
-8.0,2.0,25.0,13.0,9.0,10.0,1.0,-2.0,1650849844649463.0
-12.0,-10.0,-19.0,-17.0,-4.0,1.0,1.0,1.0,1650849844649463.0
0.0,1.0,-7.0,7.0,0.0,-7.0,-3.0,-2.0,1650849844656484.0
0.0,4.0,-4.0,-4.0,-9.0,-9.0,-1.0,-1.0,1650849844656484.0
0.0,-1.0,7.0,-8.0,-10.0,-5.0,-3.0,-3.0,1650849844672442.0
-9.0,-2.0,-7.0,3.0,7.0,15.0,3.0,0.0,1650849844672442.0
5.0,-3.0,10.0,1.0,5.0,1.0,-1.0,0.0,1650849844674396.0
3.0,-4.0,-4.0,-6.0,3.0,-1.0,-2.0,0.0,1650849844674396.0
0.0,0.0,-4.0,-3.0,11.0,24.0,6.0,2.0,1650849844695340.0
-4.0,-1.0,-2.0,7.0,-14.0,-26.0,-7.0,-3.0,1650849844695340.0
2.0,2.0,11.0,10.0,4.0,1.0,0.0,1.0,1650849844696311.0
0.0,-2.0,4.0,-9.0,-6.0,-2.0,0.0,0.0,1650849844696311.0
-5.0,-5.0,-6.0,-8.0,-9.0,-10.0,-2.0,-4.0,1650849844708342.0
-3.0,8.0,13.0,3.0,-2.0,-5.0,-2.0,-2.0,1650849844708342.0
5.0,1.0,12.0,10.0,12.0,10.0,3.0,0.0,1650849844717322.0
-1.0,-8.0,-10.0,-7.0,-1.0,0.0,1.0,-1.0,1650849844717322.0
-2.0,17.0,2.0,1.0,2.0,-2.0,-1.0,-1.0,1650849844732242.0
-3.0,-19.0,-2.0,1.0,-9.0,-13.0,-2.0,0.0,1650849844732242.0
1.0,-22.0,-23.0,-4.0,7.0,15.0,0.0,0.0,1650849844734210.0
2.0,13.0,27.0,6.0,-5.0,-6.0,0.0,-1.0,1650849844734210.0
0.0,2.0,-6.0,-7.0,1.0,3.0,1.0,0.0,1650849844755280.0
-3.0,4.0,1.0,4.0,-2.0,-4.0,0.0,0.0,1650849844755280.0
-3.0,-5.0,5.0,0.0,-4.0,-3.0,-4.0,0.0,1650849844756281.0
1.0,-1.0,-14.0,1.0,11.0,1.0,-1.0,1.0,1650849844756281.0
2.0,-2.0,4.0,5.0,-6.0,-3.0,0.0,2.0,1650849844768275.0
-1.0,3.0,13.0,4.0,2.0,13.0,2.0,-1.0,1650849844768275.0
-2.0,5.0,1.0,-4.0,1.0,-7.0,1.0,-3.0,1650849844783365.0
5.0,2.0,-5.0,-1.0,-2.0,1.0,0.0,1.0,1650849844783365.0
-4.0,-2.0,15.0,-3.0,-6.0,-10.0,-2.0,0.0,1650849844792338.0
-4.0,-6.0,-17.0,-5.0,3.0,1.0,-3.0,-1.0,1650849844792338.0
4.0,-1.0,6.0,-1.0,-7.0,-8.0,-1.0,1.0,1650849844794305.0
-3.0,0.0,-4.0,-1.0,-3.0,0.0,0.0,-1.0,1650849844794305.0
-3.0,-17.0,-7.0,-1.0,4.0,7.0,2.0,-1.0,1650849844814915.0
1.0,20.0,15.0,10.0,-1.0,0.0,1.0,0.0,1650849844814915.0
-1.0,-5.0,13.0,5.0,10.0,-6.0,-5.0,-1.0,1650849844816904.0
-3.0,3.0,-22.0,-13.0,-11.0,12.0,1.0,-1.0,1650849844816904.0
2.0,-3.0,0.0,4.0,-2.0,-4.0,-2.0,2.0,1650849844828850.0
-3.0,-3.0,3.0,1.0,2.0,2.0,-1.0,-1.0,1650849844828850.0
-1.0,-7.0,-4.0,-5.0,-4.0,-13.0,-2.0,0.0,1650849844837835.0
-2.0,1.0,-4.0,-9.0,-6.0,-9.0,-3.0,-1.0,1650849844837835.0
0.0,3.0,-4.0,3.0,0.0,14.0,3.0,2.0,1650849844852787.0
1.0,2.0,11.0,7.0,9.0,3.0,3.0,3.0,1650849844852787.0
-2.0,-3.0,-6.0,-2.0,4.0,1.0,-1.0,-2.0,1650849844853789.0
-3.0,-6.0,-2.0,-2.0,-5.0,-6.0,-3.0,-2.0,1650849844853789.0
1.0,7.0,-10.0,0.0,-13.0,-2.0,-2.0,-4.0,1650849844874811.0
-3.0,-13.0,-7.0,-4.0,5.0,-10.0,-3.0,-1.0,1650849844874811.0
0.0,9.0,6.0,4.0,-1.0,-4.0,-2.0,1.0,1650849844876808.0
-1.0,-12.0,-2.0,3.0,10.0,19.0,2.0,1.0,1650849844876808.0
0.0,3.0,-3.0,-2.0,4.0,1.0,1.0,-1.0,1650849844888843.0
1.0,0.0,10.0,-3.0,-5.0,-1.0,-2.0,-1.0,1650849844888843.0
1.0,10.0,-1.0,-6.0,-8.0,-3.0,-1.0,0.0,1650849844897751.0
-2.0,-2.0,-4.0,-4.0,-6.0,-13.0,-2.0,-1.0,1650849844897751.0
-2.0,-3.0,-1.0,-1.0,1.0,-5.0,-3.0,0.0,1650849844912778.0
2.0,-5.0,2.0,5.0,7.0,17.0,4.0,3.0,1650849844912778.0
-3.0,6.0,-2.0,-6.0,4.0,3.0,0.0,0.0,1650849844913709.0
1.0,1.0,-6.0,-5.0,-8.0,-10.0,-2.0,-1.0,1650849844913709.0
0.0,-6.0,5.0,3.0,2.0,-5.0,-2.0,-1.0,1650849844934680.0
-1.0,11.0,9.0,-1.0,-3.0,-3.0,-1.0,-1.0,1650849844934680.0
0.0,1.0,-26.0,-12.0,-7.0,3.0,-1.0,0.0,1650849844936649.0
-1.0,-5.0,28.0,13.0,9.0,7.0,1.0,0.0,1650849844936649.0
0.0,-1.0,-10.0,-6.0,-13.0,-9.0,-2.0,0.0,1650849844948616.0
-3.0,-4.0,-4.0,0.0,2.0,-15.0,-5.0,-3.0,1650849844948616.0
2.0,-3.0,5.0,5.0,1.0,25.0,9.0,3.0,1650849844957596.0
0.0,2.0,-4.0,1.0,1.0,-4.0,-2.0,0.0,1650849844957596.0
-2.0,-7.0,-1.0,-4.0,5.0,7.0,-1.0,-1.0,1650849844972619.0
0.0,12.0,0.0,-5.0,-9.0,-11.0,-2.0,0.0,1650849844972619.0
0.0,-3.0,1.0,1.0,-5.0,-3.0,-3.0,-1.0,1650849844974547.0
-1.0,-5.0,-4.0,5.0,6.0,9.0,2.0,0.0,1650849844974547.0
-2.0,-2.0,1.0,-3.0,-4.0,-5.0,0.0,0.0,1650849844995490.0
2.0,-2.0,-7.0,-5.0,-4.0,4.0,0.0,0.0,1650849844995490.0
-3.0,0.0,-1.0,-2.0,-7.0,-16.0,-2.0,-1.0,1650849844996488.0
-1.0,5.0,10.0,2.0,-2.0,-10.0,-3.0,-4.0,1650849844996488.0
1.0,0.0,-6.0,0.0,7.0,35.0,7.0,1.0,1650849845008964.0
-2.0,-7.0,-9.0,1.0,9.0,1.0,2.0,-1.0,1650849845008964.0
0.0,3.0,4.0,4.0,8.0,7.0,1.0,-1.0,1650849845017875.0
0.0,3.0,5.0,-1.0,-7.0,-16.0,-2.0,-2.0,1650849845017875.0
0.0,1.0,1.0,-2.0,-12.0,-15.0,-4.0,-2.0,1650849845032862.0
-3.0,-26.0,-15.0,-6.0,-9.0,3.0,-1.0,-1.0,1650849845032862.0
2.0,14.0,10.0,2.0,6.0,0.0,-1.0,0.0,1650849845033833.0
-1.0,0.0,8.0,4.0,2.0,6.0,-1.0,0.0,1650849845033833.0
0.0,0.0,-2.0,1.0,4.0,-8.0,-2.0,0.0,1650849845055510.0
0.0,-4.0,-6.0,-3.0,-9.0,-4.0,-3.0,-1.0,1650849845055510.0
-2.0,-9.0,-6.0,0.0,2.0,6.0,0.0,0.0,1650849845056511.0
-2.0,-1.0,-10.0,-5.0,0.0,-15.0,-3.0,1.0,1650849845056511.0
-1.0,1.0,5.0,-1.0,6.0,42.0,8.0,2.0,1650849845068507.0
1.0,3.0,3.0,-8.0,-10.0,-14.0,-1.0,-1.0,1650849845068507.0
-2.0,-3.0,-3.0,1.0,7.0,-1.0,-2.0,-4.0,1650849845077801.0
1.0,4.0,1.0,0.0,-11.0,-14.0,-1.0,-1.0,1650849845077801.0
0.0,7.0,1.0,3.0,2.0,-10.0,-1.0,-1.0,1650849845092760.0
-1.0,-2.0,0.0,2.0,5.0,18.0,3.0,2.0,1650849845092760.0
-1.0,1.0,-1.0,1.0,2.0,-1.0,0.0,0.0,1650849845093768.0
0.0,-9.0,-8.0,-5.0,-4.0,-2.0,-1.0,0.0,1650849845093768.0
0.0,2.0,-3.0,-1.0,0.0,-12.0,-6.0,-3.0,1650849845115317.0
-1.0,4.0,1.0,-5.0,-2.0,2.0,2.0,0.0,1650849845115317.0
2.0,-3.0,5.0,-1.0,-14.0,-1.0,0.0,0.0,1650849845116290.0
-1.0,-13.0,-6.0,2.0,15.0,10.0,2.0,0.0,1650849845116290.0
0.0,5.0,5.0,3.0,2.0,-9.0,0.0,-1.0,1650849845128254.0
0.0,2.0,0.0,2.0,8.0,1.0,0.0,-1.0,1650849845128254.0
-2.0,-10.0,-4.0,-3.0,-6.0,-2.0,-2.0,-1.0,1650849845137244.0
0.0,1.0,-6.0,-3.0,-9.0,-1.0,0.0,1.0,1650849845137244.0
1.0,-6.0,-5.0,-2.0,4.0,-1.0,0.0,-2.0,1650849845152219.0
0.0,4.0,5.0,3.0,4.0,-1.0,-2.0,-3.0,1650849845152219.0
-1.0,-2.0,0.0,3.0,-5.0,-2.0,0.0,0.0,1650849845154186.0
0.0,3.0,-1.0,-6.0,-2.0,9.0,0.0,-1.0,1650849845154186.0
-1.0,-6.0,1.0,-2.0,-3.0,-11.0,-4.0,0.0,1650849845175309.0
-1.0,13.0,7.0,3.0,-2.0,-4.0,-2.0,0.0,1650849845175309.0
0.0,-2.0,-1.0,-4.0,1.0,-5.0,0.0,-2.0,1650849845176250.0
-1.0,-1.0,7.0,-4.0,-18.0,-37.0,-8.0,-3.0,1650849845176250.0
-2.0,-2.0,-15.0,4.0,15.0,38.0,3.0,1.0,1650849845197212.0
2.0,1.0,3.0,1.0,2.0,5.0,6.0,2.0,1650849845197212.0
1.0,6.0,6.0,7.0,-3.0,4.0,0.0,1.0,1650849845199179.0
2.0,-2.0,0.0,-10.0,1.0,7.0,2.0,-1.0,1650849845199179.0
1.0,0.0,0.0,-1.0,-12.0,-34.0,-7.0,-2.0,1650849845212171.0
-3.0,-2.0,-3.0,0.0,-14.0,-15.0,-4.0,-3.0,1650849845212171.0
-1.0,2.0,-1.0,-2.0,14.0,11.0,3.0,1.0,1650849845214139.0
-1.0,-3.0,-7.0,4.0,4.0,2.0,0.0,-1.0,1650849845214139.0
0.0,-4.0,-1.0,-2.0,1.0,0.0,0.0,-2.0,1650849845235228.0
0.0,8.0,-3.0,-9.0,-6.0,5.0,0.0,0.0,1650849845235228.0
-1.0,3.0,6.0,1.0,4.0,-6.0,-2.0,0.0,1650849845236228.0
2.0,-3.0,-4.0,1.0,-1.0,9.0,1.0,1.0,1650849845236228.0
-1.0,5.0,3.0,-2.0,2.0,-1.0,0.0,0.0,1650849845258207.0
-3.0,-7.0,-1.0,3.0,0.0,1.0,0.0,-2.0,1650849845258207.0
-1.0,-2.0,2.0,-3.0,-16.0,-13.0,-4.0,-1.0,1650849845260135.0
0.0,3.0,-1.0,4.0,9.0,11.0,1.0,1.0,1650849845260135.0
0.0,-1.0,2.0,2.0,-4.0,-28.0,-5.0,-1.0,1650849845272104.0
0.0,-3.0,-5.0,-2.0,6.0,7.0,-3.0,-2.0,1650849845272104.0
1.0,5.0,6.0,5.0,5.0,23.0,10.0,3.0,1650849845274098.0
0.0,-2.0,-2.0,5.0,12.0,14.0,3.0,1.0,1650849845274098.0
2.0,4.0,7.0,-2.0,-4.0,-7.0,0.0,-1.0,1650849845295070.0
-3.0,-7.0,-8.0,-5.0,-8.0,-22.0,-9.0,-2.0,1650849845295070.0
-2.0,-9.0,-8.0,-6.0,1.0,-8.0,-6.0,-2.0,1650849845297074.0
-1.0,9.0,-3.0,-4.0,-12.0,2.0,-1.0,0.0,1650849845297074.0
2.0,3.0,10.0,11.0,2.0,6.0,1.0,1.0,1650849845318003.0
0.0,-2.0,-1.0,2.0,9.0,-2.0,1.0,1.0,1650849845318003.0
0.0,-3.0,-4.0,-4.0,5.0,8.0,-1.0,-2.0,1650849845319000.0
-1.0,-1.0,4.0,-3.0,-6.0,-3.0,0.0,0.0,1650849845319000.0
-2.0,-3.0,-6.0,-5.0,2.0,-2.0,-2.0,-2.0,1650849845332963.0
0.0,2.0,0.0,2.0,-4.0,3.0,0.0,0.0,1650849845332963.0
-2.0,0.0,7.0,6.0,-8.0,-12.0,-2.0,-2.0,1650849845339944.0
1.0,-13.0,-12.0,-1.0,15.0,14.0,1.0,1.0,1650849845339944.0
-2.0,21.0,5.0,-8.0,-6.0,15.0,0.0,-1.0,1650849845354933.0
2.0,1.0,7.0,8.0,1.0,-2.0,1.0,0.0,1650849845354933.0
-2.0,-3.0,-3.0,-4.0,0.0,-17.0,-3.0,0.0,1650849845356928.0
-1.0,3.0,2.0,1.0,-1.0,9.0,0.0,-1.0,1650849845356928.0
-3.0,-15.0,-7.0,-5.0,-8.0,-12.0,-2.0,1.0,1650849845377931.0
0.0,5.0,0.0,-1.0,-2.0,-2.0,-4.0,-1.0,1650849845377931.0
1.0,2.0,-6.0,-7.0,10.0,20.0,8.0,2.0,1650849845378929.0
-3.0,-4.0,3.0,1.0,-9.0,-12.0,-3.0,-2.0,1650849845378929.0
0.0,-4.0,-1.0,0.0,-8.0,1.0,2.0,2.0,1650849845391964.0
-1.0,-3.0,-2.0,1.0,-5.0,-7.0,-2.0,0.0,1650849845391964.0
-1.0,-2.0,-1.0,4.0,5.0,-8.0,-3.0,-2.0,1650849845398903.0
0.0,4.0,-4.0,-15.0,2.0,9.0,1.0,-1.0,1650849845398903.0
-1.0,-14.0,-5.0,8.0,1.0,-5.0,1.0,-2.0,1650849845414902.0
0.0,15.0,10.0,6.0,0.0,-1.0,0.0,0.0,1650849845414902.0
1.0,5.0,0.0,5.0,4.0,7.0,0.0,0.0,1650849845416869.0
-4.0,-5.0,-7.0,-2.0,-4.0,-12.0,-3.0,-1.0,1650849845416869.0
0.0,7.0,1.0,-5.0,-7.0,-10.0,-4.0,1.0,1650849845437825.0
1.0,-9.0,-4.0,-2.0,1.0,19.0,4.0,1.0,1650849845437825.0
1.0,-2.0,-1.0,-2.0,18.0,19.0,4.0,0.0,1650849845438811.0
-1.0,4.0,6.0,0.0,-11.0,-22.0,-5.0,-2.0,1650849845438811.0
-1.0,-5.0,-8.0,-3.0,-17.0,-5.0,-2.0,-1.0,1650849845451775.0
-1.0,-3.0,1.0,8.0,27.0,14.0,4.0,1.0,1650849845451775.0
-1.0,1.0,0.0,-1.0,-2.0,-4.0,-2.0,0.0,1650849845458822.0
0.0,-1.0,4.0,2.0,-1.0,0.0,-2.0,-1.0,1650849845458822.0
0.0,0.0,-3.0,-6.0,-1.0,-4.0,-1.0,-2.0,1650849845474781.0
0.0,-1.0,-3.0,-9.0,-19.0,-15.0,-3.0,-2.0,1650849845474781.0
0.0,-3.0,-3.0,-3.0,-1.0,2.0,0.0,-1.0,1650849845476709.0
1.0,-11.0,-6.0,4.0,17.0,27.0,11.0,2.0,1650849845476709.0
-2.0,24.0,14.0,1.0,-3.0,-2.0,-2.0,-1.0,1650849845497680.0
0.0,-4.0,-1.0,0.0,0.0,-4.0,-4.0,-3.0,1650849845497680.0
-1.0,-4.0,-2.0,-1.0,-15.0,-25.0,-8.0,-2.0,1650849845499648.0
0.0,4.0,-3.0,-3.0,-2.0,-6.0,-2.0,-1.0,1650849845499648.0
0.0,-5.0,-3.0,1.0,4.0,17.0,6.0,2.0,1650849845511643.0
0.0,-5.0,2.0,7.0,15.0,19.0,2.0,0.0,1650849845511643.0
-1.0,0.0,1.0,8.0,-3.0,-3.0,2.0,0.0,1650849845518625.0
-1.0,-1.0,3.0,-10.0,-6.0,-7.0,-5.0,-3.0,1650849845518625.0
1.0,1.0,3.0,6.0,0.0,-5.0,-1.0,-2.0,1650849845534693.0
-2.0,-1.0,-7.0,-11.0,-6.0,-8.0,-3.0,-3.0,1650849845534693.0
-2.0,-13.0,-10.0,-6.0,-10.0,-11.0,-3.0,-3.0,1650849845536688.0
0.0,5.0,4.0,5.0,-4.0,10.0,1.0,0.0,1650849845536688.0
0.0,-5.0,-3.0,-1.0,17.0,6.0,2.0,1.0,1650849845557665.0
0.0,-1.0,0.0,1.0,4.0,6.0,4.0,1.0,1650849845557665.0
2.0,8.0,6.0,-1.0,-5.0,-2.0,0.0,1.0,1650849845558664.0
-4.0,-3.0,-4.0,2.0,0.0,-8.0,-1.0,-2.0,1650849845558664.0
0.0,-4.0,-1.0,-2.0,-1.0,-1.0,-1.0,-2.0,1650849845571601.0
-1.0,-2.0,4.0,3.0,-3.0,-3.0,-2.0,-1.0,1650849845571601.0
-3.0,0.0,-3.0,-8.0,-6.0,2.0,-1.0,-1.0,1650849845578611.0
-2.0,5.0,1.0,3.0,-1.0,-10.0,-4.0,0.0,1650849845578611.0
-3.0,-6.0,-5.0,-4.0,-5.0,-18.0,-4.0,-2.0,1650849845594534.0
2.0,2.0,0.0,-5.0,5.0,39.0,14.0,5.0,1650849845594534.0
1.0,-6.0,5.0,6.0,-1.0,-6.0,-3.0,-2.0,1650849845596530.0
2.0,9.0,1.0,2.0,14.0,10.0,2.0,0.0,1650849845596530.0
-2.0,-4.0,-4.0,-3.0,-5.0,-27.0,-4.0,-1.0,1650849845616863.0
-1.0,-3.0,-2.0,-4.0,-6.0,1.0,-4.0,-2.0,1650849845616863.0
-1.0,1.0,0.0,-4.0,-3.0,8.0,2.0,0.0,1650849845623865.0
3.0,-4.0,-1.0,2.0,-9.0,-1.0,-1.0,0.0,1650849845623865.0
-2.0,-5.0,-4.0,-3.0,7.0,-2.0,-2.0,1.0,1650849845631830.0
1.0,2.0,-3.0,-1.0,-9.0,-15.0,-3.0,-2.0,1650849845631830.0
-2.0,-3.0,-6.0,-3.0,7.0,11.0,2.0,-2.0,1650849845638784.0
1.0,-2.0,5.0,7.0,-9.0,-7.0,-1.0,0.0,1650849845638784.0
0.0,-1.0,1.0,5.0,9.0,13.0,3.0,0.0,1650849845654754.0
-2.0,2.0,1.0,-10.0,-4.0,-8.0,-3.0,-1.0,1650849845654754.0
0.0,3.0,-1.0,-2.0,-7.0,-6.0,-1.0,-2.0,1650849845656770.0
1.0,-3.0,-10.0,-23.0,-7.0,-4.0,-2.0,-1.0,1650849845656770.0
0.0,2.0,-1.0,11.0,5.0,11.0,0.0,-2.0,1650849845677565.0
1.0,5.0,18.0,18.0,3.0,-4.0,-1.0,2.0,1650849845677565.0
0.0,1.0,-4.0,-4.0,-5.0,-13.0,-5.0,-2.0,1650849845679572.0
-3.0,1.0,2.0,-2.0,-2.0,1.0,-1.0,-1.0,1650849845679572.0
1.0,-1.0,-5.0,-13.0,-1.0,14.0,5.0,-1.0,1650849845691568.0
-2.0,-5.0,-11.0,-2.0,-2.0,-26.0,-6.0,-3.0,1650849845691568.0
-1.0,2.0,9.0,7.0,8.0,41.0,13.0,3.0,1650849845700413.0
-1.0,0.0,-6.0,-1.0,-4.0,-19.0,-4.0,-1.0,1650849845700413.0
-2.0,-5.0,-2.0,-4.0,1.0,13.0,-1.0,-2.0,1650849845715381.0
-1.0,-10.0,-5.0,7.0,-8.0,-19.0,-1.0,1.0,1650849845715381.0
2.0,22.0,10.0,-10.0,-5.0,-9.0,-5.0,-1.0,1650849845716351.0
-2.0,-9.0,-1.0,8.0,6.0,9.0,-2.0,0.0,1650849845716351.0
0.0,-2.0,1.0,4.0,-1.0,-4.0,1.0,0.0,1650849845737315.0
-2.0,-2.0,-7.0,-9.0,-2.0,4.0,0.0,-1.0,1650849845737315.0
-1.0,-7.0,-5.0,0.0,-1.0,-7.0,-2.0,1.0,1650849845739291.0
0.0,-2.0,10.0,10.0,1.0,2.0,0.0,-2.0,1650849845739291.0
1.0,13.0,6.0,7.0,1.0,-2.0,-1.0,-1.0,1650849845751257.0
0.0,0.0,-1.0,-4.0,4.0,5.0,0.0,-1.0,1650849845751257.0
-1.0,-5.0,-11.0,-5.0,-1.0,-4.0,-1.0,-1.0,1650849845760237.0
0.0,4.0,4.0,1.0,5.0,20.0,5.0,1.0,1650849845760237.0
-1.0,-9.0,-1.0,-1.0,-7.0,-15.0,-2.0,-1.0,1650849845775456.0
-1.0,3.0,-5.0,-8.0,1.0,-2.0,-5.0,-4.0,1650849845775456.0
-2.0,-2.0,1.0,10.0,-6.0,-4.0,-2.0,0.0,1650849845776458.0
0.0,2.0,2.0,-3.0,9.0,8.0,1.0,2.0,1650849845776458.0
-1.0,-1.0,6.0,4.0,9.0,12.0,2.0,1.0,1650849845797429.0
-1.0,-3.0,-3.0,-1.0,-3.0,-6.0,0.0,-1.0,1650849845797429.0
-1.0,6.0,-2.0,-3.0,-11.0,-19.0,-7.0,-1.0,1650849845799397.0
0.0,-4.0,-5.0,-6.0,-4.0,-4.0,-1.0,-3.0,1650849845799397.0
-1.0,1.0,0.0,1.0,-1.0,4.0,-2.0,-3.0,1650849845811119.0
1.0,-1.0,7.0,2.0,-6.0,-5.0,0.0,-1.0,1650849845811119.0
2.0,-4.0,1.0,10.0,6.0,7.0,4.0,1.0,1650849845820064.0
0.0,-2.0,-6.0,-4.0,7.0,2.0,2.0,0.0,1650849845820064.0
-1.0,7.0,-6.0,-2.0,-5.0,-5.0,-1.0,-2.0,1650849845835052.0
0.0,0.0,2.0,0.0,2.0,7.0,-1.0,-2.0,1650849845835052.0
-1.0,-6.0,-4.0,-6.0,-1.0,3.0,1.0,-1.0,1650849845837039.0
0.0,3.0,0.0,2.0,-9.0,-15.0,-1.0,0.0,1650849845837039.0
-1.0,-8.0,-6.0,-10.0,2.0,2.0,-1.0,-1.0,1650849845858007.0
-2.0,0.0,-3.0,-7.0,-7.0,0.0,-1.0,-2.0,1650849845858007.0
1.0,1.0,-2.0,-10.0,7.0,16.0,4.0,1.0,1650849845858971.0
1.0,-2.0,2.0,20.0,4.0,-13.0,-1.0,1.0,1650849845858971.0
1.0,3.0,7.0,3.0,-1.0,1.0,0.0,-1.0,1650849845870928.0
0.0,4.0,0.0,5.0,7.0,-2.0,0.0,-4.0,1650849845870928.0
-6.0,-3.0,0.0,-14.0,-2.0,9.0,3.0,0.0,1650849845879913.0
-5.0,-2.0,-4.0,10.0,5.0,2.0,-8.0,-9.0,1650849845879913.0
3.0,0.0,2.0,1.0,-16.0,-5.0,10.0,8.0,1650849845894884.0
2.0,2.0,-5.0,2.0,5.0,-1.0,10.0,15.0,1650849845894884.0
2.0,-4.0,0.0,-8.0,2.0,-4.0,-5.0,-3.0,1650849845896886.0
-1.0,2.0,-6.0,-3.0,-12.0,-7.0,-6.0,-4.0,1650849845896886.0
0.0,4.0,0.0,4.0,-2.0,3.0,-7.0,-8.0,1650849845917561.0
-6.0,-3.0,4.0,-2.0,-3.0,2.0,-12.0,-14.0,1650849845917561.0
-3.0,-3.0,-8.0,1.0,2.0,-8.0,15.0,9.0,1650849845919575.0
4.0,3.0,7.0,3.0,12.0,18.0,18.0,20.0,1650849845919575.0
-2.0,-4.0,-3.0,-3.0,4.0,-1.0,-2.0,-10.0,1650849845931534.0
-1.0,0.0,2.0,10.0,-4.0,-12.0,-19.0,-2.0,1650849845931534.0
2.0,2.0,1.0,-19.0,-5.0,0.0,5.0,-3.0,1650849845940486.0
-4.0,0.0,-5.0,-5.0,-8.0,-3.0,-8.0,-5.0,1650849845940486.0
-9.0,-6.0,-1.0,1.0,1.0,-12.0,-12.0,-6.0,1650849845955441.0
3.0,4.0,-1.0,3.0,0.0,30.0,14.0,-3.0,1650849845955441.0
3.0,6.0,-8.0,-16.0,2.0,-9.0,-3.0,12.0,1650849845956445.0
0.0,-8.0,-2.0,8.0,-5.0,-12.0,10.0,10.0,1650849845956445.0
14.0,8.0,9.0,4.0,2.0,4.0,-7.0,13.0,1650849845977463.0
-6.0,-10.0,3.0,1.0,1.0,-9.0,-28.0,-23.0,1650849845977463.0
-3.0,3.0,0.0,11.0,-6.0,-3.0,-12.0,-21.0,1650849845985424.0
-1.0,3.0,3.0,-9.0,3.0,10.0,8.0,2.0,1650849845985424.0
-8.0,-1.0,-12.0,-18.0,-2.0,10.0,20.0,-5.0,1650849845991441.0
15.0,-7.0,-4.0,-1.0,-2.0,-9.0,-4.0,15.0,1650849845991441.0
-42.0,-1.0,-1.0,8.0,2.0,-4.0,-8.0,-18.0,1650849846000417.0
16.0,14.0,10.0,4.0,1.0,-2.0,5.0,12.0,1650849846000417.0
13.0,-9.0,-1.0,-8.0,2.0,5.0,-3.0,-2.0,1650849846015363.0
-24.0,0.0,-7.0,14.0,10.0,16.0,9.0,-2.0,1650849846015363.0
30.0,-5.0,5.0,12.0,2.0,-7.0,0.0,12.0,1650849846017359.0
-17.0,7.0,-1.0,-5.0,-5.0,-1.0,-12.0,-14.0,1650849846017359.0
15.0,11.0,3.0,1.0,-3.0,-4.0,-5.0,-22.0,1650849846037864.0
33.0,0.0,-4.0,-18.0,-3.0,1.0,13.0,31.0,1650849846037864.0
-54.0,-15.0,-4.0,0.0,-2.0,-1.0,-4.0,-9.0,1650849846038843.0
36.0,10.0,6.0,3.0,0.0,1.0,0.0,8.0,1650849846038843.0
-33.0,-18.0,-8.0,3.0,-2.0,-1.0,-7.0,-6.0,1650849846050811.0
-33.0,-2.0,-1.0,-6.0,-2.0,-8.0,3.0,-9.0,1650849846050811.0
22.0,7.0,7.0,18.0,9.0,11.0,14.0,10.0,1650849846059830.0
-1.0,-1.0,5.0,-8.0,-7.0,-12.0,-23.0,-12.0,1650849846059830.0
-17.0,-6.0,-6.0,-4.0,-13.0,-13.0,9.0,10.0,1650849846074799.0
26.0,28.0,0.0,6.0,12.0,19.0,12.0,9.0,1650849846074799.0
-9.0,-13.0,1.0,-3.0,4.0,1.0,-2.0,-4.0,1650849846080797.0
-2.0,-8.0,-8.0,-3.0,-1.0,3.0,3.0,-8.0,1650849846080797.0
9.0,-1.0,-3.0,0.0,2.0,-1.0,-4.0,1.0,1650849846097684.0
-22.0,1.0,13.0,-6.0,-17.0,-15.0,0.0,-6.0,1650849846097684.0
63.0,6.0,-9.0,-5.0,-4.0,-25.0,-1.0,7.0,1650849846098681.0
-19.0,-3.0,-8.0,0.0,6.0,43.0,-4.0,-7.0,1650849846098681.0
7.0,8.0,17.0,9.0,0.0,-1.0,2.0,8.0,1650849846120024.0
19.0,6.0,7.0,2.0,4.0,-2.0,10.0,8.0,1650849846120024.0
-11.0,-25.0,-10.0,-6.0,-7.0,-4.0,-4.0,-7.0,1650849846122020.0
-41.0,-5.0,-1.0,1.0,-9.0,-28.0,-9.0,-12.0,1650849846122020.0
14.0,0.0,-21.0,-13.0,1.0,7.0,-5.0,2.0,1650849846133987.0
12.0,0.0,6.0,-3.0,-5.0,-9.0,-2.0,-3.0,1650849846133987.0
16.0,8.0,-10.0,10.0,2.0,17.0,18.0,9.0,1650849846141033.0
-6.0,-4.0,1.0,0.0,4.0,-2.0,8.0,-5.0,1650849846141033.0
9.0,-1.0,0.0,4.0,0.0,2.0,4.0,9.0,1650849846157996.0
-14.0,2.0,2.0,-4.0,-2.0,-9.0,-11.0,-34.0,1650849846157996.0
-18.0,-4.0,-6.0,-5.0,-2.0,-2.0,-5.0,23.0,1650849846158921.0
-1.0,-6.0,-1.0,-6.0,-3.0,0.0,0.0,-8.0,1650849846158921.0
2.0,1.0,6.0,10.0,-1.0,-1.0,2.0,7.0,1650849846179984.0
18.0,5.0,-1.0,1.0,-1.0,-1.0,-4.0,-3.0,1650849846179984.0
19.0,4.0,-3.0,9.0,7.0,10.0,-1.0,-9.0,1650849846181945.0
1.0,-2.0,0.0,-34.0,-11.0,-7.0,-8.0,5.0,1650849846181945.0
-49.0,-4.0,5.0,10.0,6.0,-2.0,-2.0,-8.0,1650849846195029.0
47.0,0.0,-13.0,-8.0,-13.0,-16.0,-1.0,5.0,1650849846195029.0
-52.0,1.0,2.0,5.0,4.0,13.0,-5.0,1.0,1650849846197024.0
2.0,-4.0,7.0,4.0,1.0,-4.0,-6.0,-22.0,1650849846197024.0
30.0,17.0,-15.0,-2.0,3.0,2.0,7.0,30.0,1650849846217830.0
-34.0,-20.0,-1.0,-11.0,7.0,21.0,17.0,4.0,1650849846217830.0
-3.0,14.0,3.0,6.0,-4.0,-15.0,-13.0,-27.0,1650849846218801.0
33.0,-4.0,2.0,4.0,3.0,-5.0,-5.0,20.0,1650849846218801.0
-14.0,6.0,4.0,-7.0,-7.0,-8.0,2.0,-11.0,1650849846239854.0
21.0,-12.0,-11.0,-7.0,-8.0,-5.0,-1.0,1.0,1650849846239854.0
31.0,13.0,9.0,7.0,-8.0,-15.0,-6.0,10.0,1650849846241879.0
-13.0,-10.0,7.0,12.0,7.0,10.0,2.0,-11.0,1650849846241879.0
23.0,0.0,13.0,-3.0,6.0,11.0,1.0,-3.0,1650849846254841.0
-37.0,1.0,-15.0,-7.0,3.0,-1.0,-6.0,2.0,1650849846254841.0
4.0,-1.0,8.0,3.0,-6.0,0.0,-2.0,-9.0,1650849846260866.0
0.0,4.0,-12.0,19.0,-1.0,-5.0,18.0,41.0,1650849846260866.0
-9.0,-6.0,8.0,-13.0,6.0,1.0,-6.0,-5.0,1650849846277878.0
3.0,-5.0,-7.0,-3.0,5.0,8.0,-4.0,-18.0,1650849846277878.0
-4.0,-1.0,3.0,1.0,-13.0,-10.0,-2.0,14.0,1650849846278861.0
14.0,2.0,8.0,2.0,5.0,1.0,0.0,-12.0,1650849846278861.0
-14.0,-9.0,-11.0,1.0,-1.0,0.0,1.0,3.0,1650849846299908.0
-27.0,-1.0,-1.0,-4.0,-8.0,-10.0,-9.0,-8.0,1650849846299908.0
17.0,6.0,-3.0,-15.0,5.0,8.0,2.0,3.0,1650849846301875.0
43.0,3.0,18.0,23.0,-4.0,-3.0,13.0,0.0,1650849846301875.0
-25.0,1.0,12.0,13.0,1.0,5.0,-8.0,2.0,1650849846313870.0
40.0,-6.0,-22.0,-5.0,7.0,8.0,3.0,1.0,1650849846313870.0
-19.0,-8.0,-6.0,-9.0,-9.0,-7.0,-6.0,-7.0,1650849846320855.0
28.0,16.0,-11.0,-15.0,5.0,2.0,-4.0,-3.0,1650849846320855.0
-7.0,5.0,7.0,14.0,-8.0,-14.0,1.0,-12.0,1650849846344760.0
-4.0,-9.0,10.0,5.0,-4.0,-19.0,-4.0,18.0,1650849846344760.0
-8.0,-6.0,-3.0,-4.0,14.0,37.0,4.0,0.0,1650849846346756.0
-29.0,-5.0,-12.0,-17.0,-13.0,5.0,10.0,-11.0,1650849846346756.0
4.0,-10.0,-25.0,-21.0,1.0,2.0,-11.0,8.0,1650849846359787.0
16.0,11.0,10.0,19.0,3.0,-2.0,8.0,0.0,1650849846359787.0
12.0,0.0,25.0,30.0,0.0,-18.0,-3.0,4.0,1650849846361715.0
-2.0,1.0,2.0,-9.0,-11.0,-3.0,-6.0,-5.0,1650849846361715.0
18.0,-1.0,-4.0,-3.0,-2.0,-1.0,1.0,-9.0,1650849846374794.0
16.0,0.0,-10.0,-20.0,-3.0,3.0,-2.0,-1.0,1650849846374794.0
3.0,-6.0,-8.0,0.0,4.0,-3.0,-5.0,-5.0,1650849846380781.0
-23.0,-5.0,5.0,10.0,6.0,-1.0,0.0,6.0,1650849846380781.0
22.0,6.0,5.0,-7.0,-15.0,-6.0,9.0,2.0,1650849846397887.0
-5.0,10.0,16.0,22.0,20.0,16.0,7.0,22.0,1650849846397887.0
13.0,6.0,-6.0,-11.0,3.0,6.0,8.0,8.0,1650849846398857.0
-14.0,-15.0,-11.0,-2.0,-1.0,-5.0,-5.0,-10.0,1650849846398857.0
5.0,6.0,10.0,-2.0,-5.0,-13.0,-4.0,-2.0,1650849846419800.0
-20.0,-6.0,18.0,18.0,-6.0,11.0,0.0,-11.0,1650849846419800.0
2.0,6.0,-6.0,-6.0,3.0,9.0,-1.0,-7.0,1650849846421816.0
-1.0,3.0,-7.0,-4.0,8.0,-1.0,2.0,9.0,1650849846421816.0
-3.0,-11.0,-11.0,-16.0,-8.0,-13.0,-2.0,-4.0,1650849846434760.0
-44.0,2.0,9.0,2.0,-4.0,11.0,-6.0,-13.0,1650849846434760.0
-12.0,-6.0,4.0,1.0,-2.0,-12.0,2.0,-1.0,1650849846440765.0
10.0,-4.0,-12.0,-8.0,1.0,-2.0,-6.0,10.0,1650849846440765.0
-11.0,8.0,13.0,23.0,4.0,2.0,12.0,-7.0,1650849846457716.0
11.0,1.0,-5.0,-8.0,-1.0,-5.0,0.0,0.0,1650849846457716.0
-2.0,-4.0,-3.0,-4.0,-5.0,0.0,-2.0,1.0,1650849846458723.0
-32.0,-1.0,-2.0,-2.0,-4.0,-3.0,-4.0,-7.0,1650849846458723.0
-24.0,5.0,0.0,3.0,-8.0,-11.0,-8.0,2.0,1650849846479879.0
-3.0,-16.0,-16.0,-7.0,-7.0,2.0,-7.0,-8.0,1650849846479879.0
4.0,-3.0,-8.0,-5.0,6.0,18.0,17.0,7.0,1650849846481806.0
3.0,8.0,12.0,8.0,12.0,2.0,5.0,13.0,1650849846481806.0
-18.0,-6.0,6.0,-3.0,1.0,6.0,-4.0,-10.0,1650849846494829.0
4.0,2.0,-7.0,4.0,-4.0,-18.0,-2.0,3.0,1650849846494829.0
4.0,-16.0,-5.0,-21.0,-13.0,-10.0,-10.0,-10.0,1650849846500841.0
6.0,6.0,1.0,0.0,-6.0,0.0,-3.0,0.0,1650849846500841.0
30.0,0.0,-3.0,9.0,7.0,5.0,0.0,1.0,1650849846517769.0
-24.0,6.0,4.0,0.0,-2.0,-4.0,0.0,0.0,1650849846517769.0
12.0,5.0,1.0,6.0,1.0,-2.0,-1.0,-2.0,1650849846518776.0
-2.0,-3.0,0.0,-7.0,-7.0,-5.0,-1.0,-11.0,1650849846518776.0
-7.0,1.0,-15.0,-5.0,5.0,-6.0,0.0,4.0,1650849846539711.0
30.0,-2.0,4.0,2.0,16.0,34.0,5.0,10.0,1650849846539711.0
33.0,11.0,5.0,-2.0,2.0,3.0,1.0,-1.0,1650849846541716.0
-5.0,-4.0,-4.0,-7.0,0.0,-2.0,-2.0,1.0,1650849846541716.0
-1.0,-2.0,4.0,3.0,-15.0,-10.0,-5.0,-4.0,1650849846554698.0
-1.0,4.0,-2.0,1.0,3.0,-10.0,8.0,12.0,1650849846554698.0
-7.0,-4.0,-3.0,-9.0,-4.0,-3.0,-5.0,-6.0,1650849846561694.0
17.0,4.0,-5.0,-7.0,-5.0,-3.0,-2.0,-5.0,1650849846561694.0
-7.0,-8.0,3.0,21.0,5.0,-4.0,-7.0,-8.0,1650849846576932.0
-20.0,-8.0,-10.0,-7.0,-2.0,15.0,3.0,-4.0,1650849846576932.0
-12.0,3.0,3.0,13.0,-9.0,-2.0,7.0,5.0,1650849846584926.0
16.0,7.0,6.0,4.0,12.0,3.0,1.0,3.0,1650849846584926.0
-29.0,-8.0,-6.0,-9.0,4.0,6.0,3.0,13.0,1650849846600053.0
-16.0,1.0,6.0,1.0,-6.0,-12.0,-6.0,-12.0,1650849846600053.0
-7.0,4.0,-2.0,-11.0,-5.0,-8.0,-5.0,-7.0,1650849846606038.0
-12.0,-16.0,-3.0,-1.0,-11.0,-7.0,3.0,0.0,1650849846606038.0
27.0,6.0,-6.0,-2.0,20.0,34.0,7.0,0.0,1650849846614043.0
9.0,9.0,17.0,27.0,-6.0,-16.0,-5.0,3.0,1650849846614043.0
-32.0,2.0,2.0,2.0,-12.0,-11.0,-4.0,0.0,1650849846622993.0
0.0,-4.0,-13.0,5.0,15.0,10.0,-3.0,0.0,1650849846622993.0
-1.0,-5.0,0.0,-18.0,4.0,14.0,3.0,0.0,1650849846637965.0
4.0,-1.0,-14.0,-27.0,-9.0,-12.0,-1.0,-9.0,1650849846637965.0
17.0,6.0,10.0,20.0,1.0,-7.0,-7.0,7.0,1650849846638950.0
0.0,-8.0,-5.0,-4.0,-11.0,-10.0,-1.0,-17.0,1650849846638950.0
-24.0,-5.0,-11.0,-11.0,-10.0,-7.0,2.0,17.0,1650849846659960.0
20.0,3.0,-1.0,-1.0,3.0,4.0,1.0,8.0,1650849846659960.0
-7.0,1.0,2.0,2.0,3.0,-1.0,-2.0,-5.0,1650849846661888.0
31.0,11.0,16.0,11.0,8.0,11.0,-3.0,2.0,1650849846661888.0
-12.0,-7.0,-5.0,-8.0,2.0,3.0,0.0,-2.0,1650849846673857.0
13.0,5.0,1.0,10.0,-8.0,-10.0,2.0,6.0,1650849846673857.0
-12.0,-9.0,-6.0,-8.0,-12.0,-34.0,-5.0,-12.0,1650849846689814.0
34.0,4.0,-3.0,-7.0,5.0,54.0,19.0,30.0,1650849846689814.0
5.0,-2.0,10.0,15.0,10.0,0.0,-6.0,-15.0,1650849846697791.0
6.0,0.0,-5.0,-12.0,0.0,-3.0,-1.0,7.0,1650849846697791.0
-5.0,-2.0,-6.0,-10.0,3.0,2.0,-3.0,-9.0,1650849846698795.0
-37.0,3.0,-5.0,-11.0,-9.0,-20.0,-7.0,-7.0,1650849846698795.0
11.0,5.0,10.0,2.0,-18.0,-28.0,-4.0,-2.0,1650849846727958.0
-20.0,-7.0,-4.0,-5.0,2.0,36.0,-2.0,-5.0,1650849846727958.0
14.0,-16.0,-2.0,-2.0,19.0,11.0,3.0,-1.0,1650849846728889.0
-28.0,8.0,5.0,7.0,-9.0,-14.0,-3.0,1.0,1650849846728889.0
18.0,3.0,-10.0,-2.0,2.0,4.0,1.0,-2.0,1650849846733875.0
-7.0,0.0,7.0,-1.0,-3.0,-17.0,-5.0,-2.0,1650849846733875.0
-7.0,1.0,3.0,-7.0,-9.0,1.0,0.0,6.0,1650849846742378.0
12.0,-4.0,0.0,6.0,1.0,-3.0,-2.0,2.0,1650849846742378.0
12.0,7.0,0.0,1.0,8.0,6.0,2.0,-3.0,1650849846757341.0
-7.0,-13.0,-12.0,-5.0,-1.0,-3.0,-6.0,-9.0,1650849846757341.0
14.0,4.0,16.0,11.0,-1.0,11.0,10.0,8.0,1650849846759335.0
-21.0,-11.0,2.0,-2.0,-10.0,-19.0,-6.0,-2.0,1650849846759335.0
-9.0,-1.0,-15.0,-10.0,-6.0,-1.0,-5.0,-6.0,1650849846780288.0
-6.0,1.0,1.0,-1.0,5.0,13.0,4.0,-2.0,1650849846780288.0
3.0,1.0,-11.0,-14.0,4.0,1.0,-2.0,3.0,1650849846781293.0
5.0,0.0,4.0,14.0,-4.0,-17.0,-3.0,-1.0,1650849846781293.0
-15.0,-16.0,-4.0,-4.0,-2.0,2.0,-2.0,-5.0,1650849846794156.0
19.0,3.0,13.0,9.0,1.0,-2.0,-3.0,-1.0,1650849846794156.0
3.0,7.0,-6.0,-6.0,-9.0,-2.0,0.0,4.0,1650849846808750.0
4.0,1.0,-6.0,-3.0,11.0,21.0,-3.0,-14.0,1650849846808750.0
-13.0,1.0,4.0,-4.0,-1.0,-10.0,0.0,10.0,1650849846817685.0
-14.0,-9.0,-5.0,-6.0,-5.0,-14.0,5.0,5.0,1650849846817685.0
-17.0,0.0,8.0,6.0,1.0,-1.0,-3.0,0.0,1650849846818675.0
-4.0,5.0,7.0,-11.0,-5.0,-5.0,0.0,-18.0,1650849846818675.0
3.0,-4.0,-10.0,9.0,-9.0,4.0,0.0,15.0,1650849846855764.0
-11.0,3.0,0.0,0.0,11.0,1.0,-2.0,-6.0,1650849846855764.0
1.0,1.0,-3.0,4.0,1.0,2.0,-1.0,-1.0,1650849846856732.0
-2.0,-5.0,3.0,-3.0,3.0,3.0,-1.0,0.0,1650849846856732.0
31.0,6.0,6.0,-2.0,-4.0,-3.0,-3.0,1.0,1650849846857730.0
8.0,2.0,9.0,11.0,-4.0,-3.0,6.0,6.0,1650849846857730.0
-7.0,-6.0,-17.0,-3.0,4.0,11.0,-3.0,-3.0,1650849846862716.0
-13.0,-3.0,-6.0,-5.0,8.0,-1.0,1.0,1.0,1650849846862716.0
13.0,10.0,7.0,-2.0,0.0,1.0,-1.0,-3.0,1650849846877743.0
12.0,-11.0,2.0,-2.0,-5.0,-2.0,-3.0,0.0,1650849846877743.0
-1.0,0.0,2.0,1.0,-4.0,-9.0,-2.0,-7.0,1650849846878674.0
-6.0,-4.0,-10.0,-9.0,-11.0,-5.0,-1.0,3.0,1650849846878674.0
-1.0,6.0,5.0,8.0,7.0,10.0,7.0,-5.0,1650849846899722.0
-16.0,-6.0,7.0,7.0,2.0,0.0,0.0,-9.0,1650849846899722.0
-12.0,-3.0,2.0,0.0,9.0,7.0,1.0,4.0,1650849846901825.0
15.0,5.0,1.0,3.0,-6.0,-6.0,2.0,7.0,1650849846901825.0
-80.0,-18.0,-4.0,-9.0,-10.0,-8.0,-3.0,-10.0,1650849846913800.0
5.0,2.0,-11.0,-3.0,-5.0,-26.0,-5.0,-9.0,1650849846913800.0
0.0,-2.0,-1.0,5.0,14.0,58.0,7.0,-1.0,1650849846922747.0
12.0,3.0,-2.0,-2.0,-7.0,-9.0,0.0,2.0,1650849846922747.0
-1.0,0.0,2.0,-7.0,6.0,2.0,-1.0,3.0,1650849846937735.0
-28.0,-1.0,-7.0,-1.0,-9.0,-8.0,-3.0,-14.0,1650849846937735.0
-2.0,1.0,4.0,4.0,-6.0,-28.0,-2.0,14.0,1650849846938725.0
2.0,-1.0,-6.0,5.0,13.0,14.0,-3.0,-6.0,1650849846938725.0
4.0,2.0,7.0,5.0,-8.0,3.0,5.0,-1.0,1650849846967655.0
14.0,10.0,-3.0,-5.0,4.0,-5.0,2.0,16.0,1650849846967655.0
7.0,-22.0,-7.0,-4.0,-10.0,-17.0,-7.0,-10.0,1650849846968646.0
-12.0,5.0,4.0,-2.0,12.0,31.0,15.0,0.0,1650849846968646.0
-20.0,-14.0,-3.0,-4.0,1.0,-6.0,-4.0,8.0,1650849846973624.0
-4.0,9.0,-2.0,-3.0,-2.0,5.0,-5.0,-11.0,1650849846973624.0
-6.0,-1.0,-5.0,-20.0,-4.0,-9.0,-2.0,3.0,1650849846982587.0
-3.0,0.0,17.0,34.0,-13.0,-15.0,-5.0,1.0,1650849846982587.0
26.0,4.0,-13.0,4.0,6.0,2.0,-2.0,-7.0,1650849846997575.0
6.0,-2.0,15.0,-5.0,3.0,9.0,3.0,2.0,1650849846997575.0
6.0,4.0,-9.0,-18.0,-19.0,-14.0,-6.0,-4.0,1650849847005053.0
-19.0,-7.0,-7.0,-1.0,3.0,-4.0,-1.0,2.0,1650849847005053.0
29.0,15.0,11.0,4.0,0.0,3.0,2.0,8.0,1650849847020041.0
-9.0,-10.0,-30.0,-15.0,-2.0,-4.0,-3.0,-4.0,1650849847020041.0
5.0,6.0,12.0,11.0,7.0,19.0,3.0,-2.0,1650849847022046.0
-1.0,0.0,-2.0,-2.0,-3.0,-11.0,-2.0,0.0,1650849847022046.0
8.0,1.0,-2.0,0.0,11.0,7.0,1.0,0.0,1650849847042999.0
2.0,0.0,11.0,9.0,-11.0,-21.0,-5.0,-5.0,1650849847042999.0
-14.0,0.0,-12.0,-6.0,0.0,3.0,-2.0,1.0,1650849847043950.0
15.0,0.0,0.0,-1.0,10.0,20.0,5.0,7.0,1650849847043950.0
13.0,3.0,4.0,1.0,-12.0,-12.0,-2.0,-9.0,1650849847057913.0
1.0,-2.0,-6.0,-9.0,2.0,6.0,5.0,10.0,1650849847057913.0
-3.0,6.0,5.0,11.0,3.0,-2.0,0.0,0.0,1650849847058910.0
22.0,2.0,-10.0,-8.0,-3.0,-7.0,-6.0,-4.0,1650849847058910.0
-8.0,-5.0,7.0,-2.0,-1.0,0.0,-1.0,1.0,1650849847079881.0
1.0,0.0,-5.0,-8.0,-3.0,-2.0,0.0,-2.0,1650849847079881.0
2.0,-2.0,10.0,14.0,7.0,-10.0,-3.0,-5.0,1650849847081848.0
5.0,0.0,-8.0,-11.0,-5.0,6.0,1.0,8.0,1650849847081848.0
0.0,-1.0,1.0,-6.0,-16.0,-21.0,-2.0,-7.0,1650849847102812.0
3.0,-2.0,3.0,9.0,7.0,23.0,1.0,5.0,1650849847102812.0
11.0,4.0,6.0,6.0,18.0,18.0,8.0,5.0,1650849847103790.0
-37.0,-3.0,-7.0,-5.0,-5.0,-15.0,-11.0,-9.0,1650849847103790.0
7.0,-2.0,-6.0,-4.0,-6.0,-4.0,3.0,-4.0,1650849847117779.0
4.0,-2.0,-5.0,-2.0,-9.0,-27.0,-2.0,12.0,1650849847117779.0
5.0,2.0,2.0,0.0,3.0,41.0,9.0,2.0,1650849847118771.0
-4.0,-2.0,3.0,-13.0,-8.0,-8.0,-1.0,-5.0,1650849847118771.0
6.0,2.0,0.0,6.0,10.0,6.0,-5.0,-3.0,1650849847139692.0
1.0,-2.0,-2.0,1.0,-1.0,-4.0,0.0,2.0,1650849847139692.0
-8.0,0.0,-3.0,2.0,4.0,-16.0,-4.0,-4.0,1650849847141689.0
3.0,0.0,6.0,2.0,-4.0,0.0,-2.0,2.0,1650849847141689.0
-7.0,-4.0,-9.0,-9.0,-1.0,10.0,-2.0,0.0,1650849847162659.0
-5.0,3.0,7.0,2.0,1.0,-1.0,0.0,-3.0,1650849847162659.0
-6.0,-2.0,-6.0,-5.0,-16.0,-14.0,-1.0,-3.0,1650849847164635.0
7.0,-3.0,7.0,10.0,7.0,10.0,15.0,14.0,1650849847164635.0
-47.0,-6.0,-2.0,-2.0,11.0,1.0,0.0,-2.0,1650849847177659.0
0.0,3.0,5.0,0.0,6.0,9.0,-3.0,0.0,1650849847177659.0
-3.0,-3.0,-9.0,-4.0,-5.0,-5.0,-14.0,-9.0,1650849847179609.0
-4.0,-3.0,-2.0,-8.0,-13.0,-19.0,1.0,-16.0,1650849847179609.0
18.0,6.0,-1.0,5.0,-7.0,-2.0,4.0,16.0,1650849847199671.0
1.0,1.0,6.0,14.0,22.0,27.0,7.0,0.0,1650849847199671.0
-11.0,-2.0,3.0,-7.0,-9.0,-9.0,-3.0,2.0,1650849847201637.0
1.0,1.0,-12.0,-1.0,2.0,-2.0,3.0,-6.0,1650849847201637.0
11.0,-4.0,3.0,3.0,-4.0,-5.0,-1.0,5.0,1650849847222726.0
-6.0,3.0,-3.0,-2.0,7.0,-5.0,-4.0,-8.0,1650849847222726.0
10.0,1.0,6.0,3.0,-3.0,9.0,8.0,-2.0,1650849847224694.0
-8.0,-1.0,1.0,-2.0,2.0,0.0,-14.0,-5.0,1650849847224694.0
4.0,0.0,-3.0,-2.0,0.0,1.0,-6.0,-14.0,1650849847236661.0
4.0,0.0,4.0,2.0,-11.0,-7.0,17.0,30.0,1650849847236661.0
-1.0,1.0,3.0,6.0,13.0,2.0,8.0,-3.0,1650849847243711.0
0.0,0.0,-1.0,-3.0,-6.0,-6.0,3.0,8.0,1650849847243711.0
1.0,0.0,-1.0,-5.0,-2.0,-6.0,-11.0,-9.0,1650849847259668.0
-8.0,-5.0,-4.0,1.0,3.0,22.0,-11.0,-16.0,1650849847259668.0
-4.0,0.0,-2.0,1.0,2.0,-3.0,-2.0,0.0,1650849847261596.0
-1.0,0.0,11.0,4.0,7.0,14.0,8.0,1.0,1650849847261596.0
8.0,-2.0,-14.0,-7.0,-14.0,-21.0,-4.0,1.0,1650849847282563.0
-1.0,1.0,-3.0,-6.0,-12.0,-2.0,-3.0,2.0,1650849847282563.0
3.0,1.0,2.0,3.0,5.0,1.0,2.0,3.0,1650849847284533.0
-3.0,-3.0,-4.0,-4.0,-3.0,-18.0,-4.0,2.0,1650849847284533.0
4.0,3.0,-3.0,3.0,18.0,38.0,9.0,-3.0,1650849847296584.0
-5.0,-10.0,-1.0,-6.0,-15.0,-16.0,2.0,0.0,1650849847296584.0
5.0,1.0,-2.0,0.0,-3.0,-7.0,-9.0,-2.0,1650849847303597.0
0.0,2.0,4.0,5.0,1.0,-7.0,-2.0,-2.0,1650849847303597.0
-3.0,-2.0,-2.0,-2.0,-11.0,-4.0,2.0,-1.0,1650849847319552.0
1.0,2.0,-1.0,0.0,18.0,16.0,9.0,10.0,1650849847319552.0
-2.0,-3.0,-3.0,-5.0,-12.0,-27.0,-10.0,-4.0,1650849847321522.0
0.0,-1.0,-2.0,2.0,9.0,40.0,3.0,0.0,1650849847321522.0
3.0,-1.0,-5.0,-6.0,2.0,-5.0,7.0,6.0,1650849847343030.0
-4.0,0.0,0.0,1.0,-10.0,-11.0,-9.0,-9.0,1650849847343030.0
-3.0,-3.0,-1.0,-2.0,-4.0,-9.0,0.0,0.0,1650849847344031.0
0.0,1.0,6.0,4.0,2.0,3.0,-3.0,1.0,1650849847344031.0
0.0,-2.0,-1.0,0.0,0.0,-2.0,-9.0,-5.0,1650849847356994.0
-3.0,-1.0,-8.0,-16.0,-5.0,-4.0,3.0,-2.0,1650849847356994.0
-1.0,1.0,4.0,14.0,-3.0,9.0,4.0,5.0,1650849847364099.0
-1.0,-2.0,-2.0,-7.0,-16.0,-15.0,-4.0,-3.0,1650849847364099.0
1.0,0.0,1.0,4.0,23.0,19.0,2.0,3.0,1650849847379955.0
-2.0,0.0,1.0,-3.0,-4.0,-10.0,-6.0,-4.0,1650849847379955.0
0.0,-1.0,-4.0,-12.0,-17.0,-18.0,-9.0,-3.0,1650849847381903.0
-1.0,-1.0,4.0,6.0,-1.0,18.0,2.0,1.0,1650849847381903.0
2.0,3.0,9.0,7.0,21.0,6.0,4.0,4.0,1650849847402923.0
0.0,1.0,-6.0,-2.0,-3.0,1.0,-2.0,-3.0,1650849847402923.0
-2.0,-1.0,2.0,-4.0,1.0,3.0,1.0,0.0,1650849847403916.0
0.0,-1.0,-7.0,0.0,-10.0,-16.0,-4.0,0.0,1650849847403916.0
0.0,0.0,6.0,-2.0,-21.0,-27.0,-4.0,0.0,1650849847416906.0
-1.0,-1.0,-3.0,8.0,15.0,31.0,4.0,-1.0,1650849847416906.0
-1.0,-1.0,6.0,0.0,4.0,4.0,3.0,1.0,1650849847423860.0
0.0,2.0,-4.0,2.0,6.0,-15.0,-4.0,-2.0,1650849847423860.0
0.0,-4.0,4.0,-4.0,-6.0,4.0,0.0,1.0,1650849847439845.0
-1.0,-2.0,-5.0,-4.0,-7.0,-7.0,-3.0,-3.0,1650849847439845.0
-2.0,-5.0,-9.0,-4.0,2.0,11.0,3.0,-1.0,1650849847441815.0
-2.0,-3.0,1.0,-1.0,0.0,-2.0,-1.0,-1.0,1650849847441815.0
2.0,2.0,-3.0,1.0,-8.0,-7.0,-2.0,-1.0,1650849847462826.0
0.0,-5.0,5.0,3.0,5.0,-3.0,-3.0,-1.0,1650849847462826.0
0.0,-3.0,-4.0,1.0,1.0,2.0,0.0,1.0,1650849847463753.0
-2.0,9.0,8.0,0.0,1.0,-15.0,-2.0,-1.0,1650849847463753.0
1.0,-3.0,-10.0,-1.0,-1.0,27.0,5.0,0.0,1650849847476786.0
-1.0,-7.0,-6.0,0.0,-3.0,-3.0,-2.0,-1.0,1650849847476786.0
3.0,10.0,4.0,1.0,11.0,0.0,-1.0,1.0,1650849847483700.0
0.0,-6.0,-8.0,-6.0,-8.0,-3.0,-2.0,-1.0,1650849847483700.0
-2.0,-2.0,6.0,1.0,5.0,-6.0,-6.0,-4.0,1650849847499803.0
1.0,-3.0,3.0,1.0,-4.0,-1.0,4.0,-1.0,1650849847499803.0
-1.0,-2.0,0.0,-4.0,-8.0,-14.0,2.0,4.0,1650849847501770.0
-1.0,-1.0,-7.0,1.0,2.0,5.0,-3.0,-1.0,1650849847501770.0
0.0,0.0,1.0,5.0,12.0,10.0,5.0,1.0,1650849847522860.0
3.0,-2.0,-7.0,-4.0,-1.0,6.0,-2.0,-1.0,1650849847522860.0
-5.0,-2.0,8.0,2.0,3.0,8.0,-1.0,-4.0,1650849847523830.0
0.0,-5.0,-8.0,-6.0,-1.0,-10.0,-1.0,-1.0,1650849847523830.0
2.0,1.0,-2.0,-3.0,-4.0,-4.0,-1.0,-1.0,1650849847535827.0
-2.0,5.0,8.0,4.0,-1.0,-5.0,-1.0,-2.0,1650849847535827.0
1.0,7.0,-1.0,-1.0,-8.0,-8.0,-1.0,0.0,1650849847544797.0
-6.0,-12.0,-6.0,-10.0,-3.0,4.0,-1.0,-1.0,1650849847544797.0
-2.0,4.0,5.0,15.0,5.0,7.0,3.0,-1.0,1650849847560799.0
1.0,6.0,5.0,4.0,11.0,6.0,0.0,2.0,1650849847560799.0
-1.0,-11.0,-9.0,-2.0,-2.0,2.0,-3.0,-1.0,1650849847561729.0
4.0,17.0,18.0,1.0,-2.0,-4.0,0.0,0.0,1650849847561729.0
0.0,4.0,1.0,-9.0,-9.0,-6.0,-2.0,1.0,1650849847582699.0
-1.0,-2.0,-6.0,-2.0,-8.0,-5.0,2.0,0.0,1650849847582699.0
-1.0,-6.0,2.0,2.0,5.0,6.0,1.0,-1.0,1650849847583690.0
-1.0,-4.0,-19.0,0.0,11.0,5.0,0.0,-2.0,1650849847583690.0
-1.0,0.0,3.0,-5.0,-13.0,-14.0,-2.0,-1.0,1650849847595755.0
-2.0,3.0,6.0,3.0,-9.0,-2.0,-4.0,-3.0,1650849847595755.0
-2.0,-1.0,-1.0,-1.0,1.0,-8.0,-1.0,0.0,1650849847604756.0
2.0,3.0,5.0,7.0,9.0,2.0,1.0,2.0,1650849847604756.0
-1.0,2.0,-4.0,-5.0,5.0,9.0,2.0,3.0,1650849847619689.0
2.0,1.0,11.0,8.0,12.0,22.0,2.0,0.0,1650849847619689.0
0.0,3.0,2.0,0.0,-5.0,-12.0,-1.0,-1.0,1650849847621683.0
-2.0,-4.0,-6.0,-6.0,-10.0,-1.0,0.0,-1.0,1650849847621683.0
0.0,-7.0,-4.0,-1.0,-5.0,-13.0,-4.0,-1.0,1650849847642628.0
0.0,2.0,-4.0,1.0,1.0,-3.0,-1.0,-1.0,1650849847642628.0
-1.0,-1.0,0.0,6.0,10.0,7.0,1.0,0.0,1650849847643626.0
-1.0,-4.0,1.0,0.0,1.0,-2.0,0.0,-1.0,1650849847643626.0
-1.0,4.0,0.0,-7.0,-7.0,0.0,-1.0,-3.0,1650849847656590.0
0.0,-1.0,7.0,1.0,-10.0,-10.0,0.0,-1.0,1650849847656590.0
1.0,-1.0,-7.0,-5.0,2.0,5.0,0.0,0.0,1650849847665566.0
-2.0,-2.0,-2.0,-3.0,-3.0,0.0,0.0,-2.0,1650849847665566.0
0.0,-3.0,-1.0,5.0,3.0,-1.0,1.0,1.0,1650849847680526.0
-2.0,-1.0,-12.0,-3.0,-3.0,-14.0,-4.0,-3.0,1650849847680526.0
0.0,-3.0,-1.0,-2.0,2.0,20.0,2.0,1.0,1650849847681524.0
2.0,0.0,-2.0,-3.0,0.0,0.0,1.0,1.0,1650849847681524.0
-1.0,-3.0,-3.0,-2.0,-6.0,-12.0,-3.0,0.0,1650849847703007.0
-1.0,2.0,3.0,-4.0,-1.0,-2.0,-1.0,1.0,1650849847703007.0
0.0,1.0,-3.0,0.0,0.0,-1.0,0.0,0.0,1650849847703886.0
1.0,1.0,1.0,2.0,7.0,10.0,1.0,1.0,1650849847703886.0
0.0,-2.0,4.0,1.0,-1.0,-1.0,-2.0,1.0,1650849847715854.0
-1.0,1.0,-2.0,-4.0,-9.0,-5.0,-3.0,0.0,1650849847715854.0
-1.0,0.0,-1.0,-6.0,0.0,-11.0,-4.0,0.0,1650849847724830.0
-1.0,-4.0,2.0,4.0,-5.0,-10.0,-2.0,1.0,1650849847724830.0
0.0,-3.0,0.0,3.0,9.0,29.0,5.0,1.0,1650849847739820.0
0.0,-2.0,-2.0,-3.0,4.0,-3.0,0.0,0.0,1650849847739820.0
-1.0,2.0,1.0,1.0,-4.0,3.0,0.0,-3.0,1650849847741785.0
-1.0,-1.0,-1.0,-1.0,-6.0,-9.0,-1.0,0.0,1650849847741785.0
-2.0,-2.0,-3.0,-10.0,-8.0,-10.0,-4.0,-3.0,1650849847762795.0
-1.0,-2.0,-1.0,6.0,-3.0,1.0,0.0,-2.0,1650849847762795.0
0.0,-1.0,1.0,0.0,-2.0,0.0,0.0,-1.0,1650849847763726.0
0.0,-4.0,3.0,0.0,1.0,-1.0,0.0,-1.0,1650849847763726.0
-1.0,-1.0,-8.0,-5.0,-3.0,-2.0,0.0,-3.0,1650849847775695.0
0.0,-2.0,1.0,3.0,7.0,7.0,0.0,0.0,1650849847775695.0
-1.0,-4.0,2.0,0.0,-8.0,-15.0,-4.0,-2.0,1650849847784670.0
-2.0,2.0,-1.0,3.0,7.0,13.0,1.0,-1.0,1650849847784670.0
0.0,-3.0,4.0,1.0,1.0,10.0,3.0,1.0,1650849847800627.0
2.0,0.0,-7.0,-5.0,-2.0,-9.0,-2.0,0.0,1650849847800627.0
-1.0,-5.0,-7.0,-3.0,-6.0,2.0,0.0,-1.0,1650849847801625.0
-1.0,4.0,0.0,-4.0,-6.0,-6.0,0.0,-1.0,1650849847801625.0
1.0,-1.0,13.0,9.0,9.0,-15.0,-2.0,-2.0,1650849847822715.0
-1.0,-1.0,3.0,0.0,-3.0,22.0,5.0,1.0,1650849847822715.0
1.0,-1.0,-8.0,-4.0,1.0,-7.0,-1.0,0.0,1650849847823682.0
1.0,-1.0,-3.0,-2.0,-3.0,4.0,1.0,1.0,1650849847823682.0
-1.0,1.0,0.0,0.0,6.0,-2.0,1.0,1.0,1650849847835649.0
-1.0,-1.0,-3.0,-4.0,0.0,-5.0,-3.0,-1.0,1650849847835649.0
-2.0,1.0,4.0,-4.0,-7.0,-6.0,-3.0,-2.0,1650849847844859.0
0.0,-2.0,-4.0,-3.0,-7.0,12.0,1.0,-1.0,1650849847844859.0
-3.0,-7.0,-3.0,3.0,-6.0,-12.0,-2.0,0.0,1650849847859843.0
-2.0,10.0,8.0,2.0,11.0,1.0,3.0,-1.0,1650849847859843.0
-1.0,0.0,-1.0,2.0,9.0,23.0,3.0,1.0,1650849847861843.0
0.0,-2.0,2.0,0.0,0.0,-9.0,-2.0,-2.0,1650849847861843.0
2.0,1.0,-2.0,-2.0,-7.0,-4.0,-2.0,-1.0,1650849847882759.0
0.0,-5.0,-10.0,-5.0,-10.0,-15.0,-5.0,-1.0,1650849847882759.0
0.0,0.0,3.0,0.0,-1.0,-7.0,-3.0,-3.0,1650849847883780.0
0.0,-1.0,4.0,2.0,4.0,13.0,2.0,1.0,1650849847883780.0
0.0,-1.0,-8.0,-2.0,-3.0,4.0,-1.0,0.0,1650849847896566.0
0.0,1.0,9.0,3.0,7.0,-2.0,0.0,1.0,1650849847896566.0
-1.0,0.0,0.0,4.0,-4.0,-4.0,-1.0,-1.0,1650849847904761.0
-2.0,-5.0,2.0,2.0,4.0,-1.0,-1.0,-1.0,1650849847904761.0
-1.0,1.0,-3.0,-4.0,-5.0,0.0,0.0,-2.0,1650849847919692.0
0.0,-2.0,-6.0,-2.0,-1.0,-5.0,-3.0,0.0,1650849847919692.0
-1.0,1.0,-3.0,1.0,-1.0,-9.0,-2.0,-1.0,1650849847921708.0
2.0,1.0,4.0,-2.0,-1.0,20.0,7.0,0.0,1650849847921708.0
-1.0,2.0,-2.0,4.0,-2.0,-3.0,1.0,-2.0,1650849847942637.0
-1.0,-3.0,0.0,-2.0,7.0,7.0,1.0,0.0,1650849847942637.0
0.0,-1.0,1.0,4.0,5.0,1.0,0.0,0.0,1650849847943629.0
-1.0,-2.0,-3.0,-3.0,-6.0,-18.0,-5.0,-1.0,1650849847943629.0
-2.0,-2.0,-2.0,-7.0,0.0,-2.0,0.0,-1.0,1650849847955624.0
-2.0,-5.0,-2.0,-5.0,-10.0,-6.0,0.0,-2.0,1650849847955624.0
-2.0,3.0,0.0,5.0,0.0,15.0,0.0,-1.0,1650849847964742.0
-2.0,2.0,9.0,6.0,15.0,7.0,1.0,1.0,1650849847964742.0
0.0,1.0,-6.0,-4.0,-6.0,-4.0,-2.0,1.0,1650849847979764.0
-2.0,-4.0,-3.0,-4.0,-12.0,-11.0,-3.0,-2.0,1650849847979764.0
0.0,-1.0,0.0,-3.0,1.0,-2.0,0.0,1.0,1650849847981697.0
0.0,0.0,-2.0,-2.0,-1.0,-7.0,-2.0,-2.0,1650849847981697.0
-4.0,0.0,0.0,2.0,2.0,-7.0,-2.0,-1.0,1650849848002908.0
1.0,-4.0,-2.0,-6.0,6.0,17.0,2.0,1.0,1650849848002908.0
1.0,4.0,-1.0,0.0,-12.0,-4.0,2.0,-1.0,1650849848003891.0
0.0,-1.0,5.0,5.0,8.0,9.0,2.0,-1.0,1650849848003891.0
3.0,2.0,0.0,3.0,9.0,2.0,0.0,1.0,1650849848024905.0
0.0,0.0,-2.0,-4.0,-10.0,-25.0,-6.0,-2.0,1650849848024905.0
1.0,-2.0,-1.0,1.0,10.0,30.0,7.0,1.0,1650849848026873.0
0.0,2.0,-6.0,-9.0,-11.0,-14.0,-5.0,-2.0,1650849848026873.0
-2.0,-13.0,-8.0,1.0,-2.0,-2.0,-1.0,-2.0,1650849848039836.0
0.0,9.0,12.0,6.0,9.0,2.0,0.0,0.0,1650849848039836.0
0.0,-2.0,0.0,-3.0,0.0,6.0,-3.0,-2.0,1650849848041832.0
0.0,2.0,0.0,-5.0,-20.0,-15.0,-3.0,1.0,1650849848041832.0
1.0,-2.0,1.0,1.0,17.0,11.0,2.0,1.0,1650849848063027.0
1.0,-2.0,-7.0,4.0,-5.0,-12.0,-3.0,-1.0,1650849848063027.0
-2.0,-1.0,2.0,-4.0,0.0,-1.0,-3.0,-1.0,1650849848064032.0
1.0,-8.0,-4.0,11.0,4.0,0.0,1.0,1.0,1650849848064032.0
-3.0,-9.0,0.0,-10.0,-12.0,4.0,0.0,0.0,1650849848085120.0
-1.0,16.0,-4.0,1.0,-5.0,3.0,0.0,-2.0,1650849848085120.0
-2.0,-4.0,11.0,0.0,-4.0,-15.0,-2.0,0.0,1650849848087088.0
-2.0,1.0,-12.0,-4.0,5.0,-1.0,-2.0,0.0,1650849848087088.0
-1.0,3.0,12.0,1.0,-5.0,-1.0,0.0,-1.0,1650849848099075.0
-1.0,1.0,-2.0,3.0,5.0,1.0,0.0,0.0,1650849848099075.0
-2.0,-9.0,-2.0,-3.0,-5.0,-12.0,-2.0,1.0,1650849848106036.0
0.0,3.0,-1.0,11.0,-4.0,4.0,4.0,-1.0,1650849848106036.0
2.0,-1.0,1.0,2.0,7.0,-2.0,-1.0,-1.0,1650849848122991.0
0.0,-16.0,-6.0,-16.0,0.0,25.0,2.0,1.0,1650849848122991.0
0.0,24.0,-7.0,-3.0,-12.0,-20.0,-2.0,-1.0,1650849848123988.0
0.0,-4.0,17.0,5.0,14.0,3.0,0.0,2.0,1650849848123988.0
-1.0,-3.0,-33.0,-1.0,-4.0,-7.0,-2.0,-1.0,1650849848145000.0
0.0,5.0,19.0,17.0,-4.0,-9.0,-2.0,-2.0,1650849848145000.0
-2.0,-14.0,-6.0,-4.0,-8.0,-13.0,-2.0,-2.0,1650849848146954.0
-2.0,12.0,19.0,1.0,5.0,12.0,1.0,0.0,1650849848146954.0
-1.0,11.0,0.0,-16.0,-7.0,1.0,0.0,1.0,1650849848158895.0
-3.0,-14.0,6.0,4.0,1.0,-3.0,-1.0,0.0,1650849848158895.0
0.0,6.0,-23.0,5.0,-10.0,-12.0,-2.0,-1.0,1650849848165921.0
-1.0,4.0,18.0,6.0,16.0,11.0,1.0,-1.0,1650849848165921.0
-1.0,-2.0,-4.0,6.0,1.0,-3.0,0.0,1.0,1650849848182875.0
0.0,1.0,-17.0,-26.0,-5.0,2.0,-1.0,2.0,1650849848182875.0
1.0,-7.0,17.0,23.0,5.0,5.0,4.0,1.0,1650849848183872.0
-1.0,5.0,-8.0,-23.0,-25.0,-28.0,-5.0,-1.0,1650849848183872.0
-1.0,3.0,-5.0,1.0,18.0,16.0,0.0,-2.0,1650849848204849.0
2.0,-5.0,12.0,16.0,10.0,15.0,2.0,3.0,1650849848204849.0
-2.0,12.0,27.0,-3.0,-3.0,-9.0,-6.0,-6.0,1650849848206832.0
-3.0,-17.0,-46.0,-7.0,-2.0,1.0,-1.0,-1.0,1650849848206832.0
0.0,11.0,36.0,9.0,0.0,-19.0,-1.0,-4.0,1650849848218807.0
-1.0,-4.0,-2.0,-2.0,0.0,14.0,2.0,0.0,1650849848218807.0
0.0,-2.0,-12.0,-5.0,6.0,7.0,2.0,0.0,1650849848227769.0
1.0,0.0,3.0,-2.0,-8.0,-5.0,0.0,0.0,1650849848227769.0
-3.0,-3.0,-8.0,-9.0,-4.0,2.0,-2.0,0.0,1650849848242715.0
0.0,-3.0,-1.0,-1.0,-1.0,-6.0,-2.0,-3.0,1650849848242715.0
1.0,-2.0,9.0,11.0,8.0,11.0,4.0,3.0,1650849848243714.0
-1.0,0.0,-32.0,-23.0,-13.0,-13.0,-5.0,-4.0,1650849848243714.0
0.0,-1.0,11.0,16.0,-8.0,-3.0,-1.0,0.0,1650849848272833.0
-2.0,1.0,7.0,4.0,11.0,7.0,1.0,-1.0,1650849848272833.0
0.0,1.0,-5.0,-24.0,-13.0,-16.0,-2.0,-1.0,1650849848273803.0
-3.0,-11.0,-7.0,11.0,-9.0,-5.0,-5.0,-3.0,1650849848273803.0
1.0,6.0,5.0,6.0,19.0,27.0,4.0,0.0,1650849848279838.0
0.0,-5.0,-11.0,0.0,4.0,-4.0,2.0,1.0,1650849848279838.0
1.0,2.0,-11.0,-9.0,2.0,13.0,1.0,-1.0,1650849848285793.0
2.0,4.0,19.0,-1.0,4.0,-12.0,-3.0,1.0,1650849848285793.0
-2.0,-8.0,-4.0,0.0,-16.0,-11.0,-3.0,-2.0,1650849848302753.0
-1.0,-4.0,-10.0,0.0,1.0,-6.0,-2.0,-2.0,1650849848302753.0
-2.0,-9.0,-18.0,0.0,0.0,-5.0,-1.0,-1.0,1650849848303723.0
5.0,19.0,29.0,10.0,17.0,18.0,5.0,2.0,1650849848303723.0
-5.0,-21.0,-33.0,-7.0,-6.0,-6.0,-2.0,0.0,1650849848324694.0
-3.0,3.0,1.0,-4.0,-8.0,-6.0,-1.0,-1.0,1650849848324694.0
0.0,-11.0,-1.0,-1.0,-1.0,1.0,0.0,1.0,1650849848326662.0
-4.0,4.0,-5.0,3.0,6.0,7.0,0.0,-2.0,1650849848326662.0
1.0,3.0,0.0,-6.0,-2.0,1.0,2.0,0.0,1650849848339654.0
0.0,-1.0,12.0,9.0,2.0,-10.0,-1.0,-2.0,1650849848339654.0
-1.0,-2.0,-9.0,-8.0,-2.0,11.0,1.0,0.0,1650849848346671.0
0.0,0.0,1.0,-4.0,3.0,3.0,-1.0,0.0,1650849848346671.0
0.0,2.0,0.0,-4.0,-8.0,-16.0,-2.0,-2.0,1650849848361569.0
-1.0,5.0,-12.0,-6.0,-11.0,3.0,5.0,0.0,1650849848361569.0
1.0,-3.0,4.0,15.0,16.0,4.0,-1.0,0.0,1650849848362565.0
-2.0,-1.0,12.0,0.0,-3.0,3.0,0.0,-1.0,1650849848362565.0
1.0,0.0,1.0,2.0,5.0,12.0,2.0,0.0,1650849848384551.0
-2.0,-4.0,-3.0,0.0,0.0,-7.0,-2.0,-1.0,1650849848384551.0
-1.0,-1.0,-17.0,-11.0,-7.0,-6.0,-2.0,-2.0,1650849848391516.0
1.0,-11.0,-3.0,-9.0,-10.0,-15.0,-1.0,-2.0,1650849848391516.0
1.0,9.0,9.0,11.0,3.0,5.0,0.0,-1.0,1650849848398470.0
0.0,1.0,0.0,-2.0,-3.0,1.0,-1.0,0.0,1650849848398470.0
1.0,2.0,6.0,5.0,2.0,2.0,0.0,2.0,1650849848406476.0
-2.0,-9.0,-19.0,-7.0,-10.0,-1.0,-3.0,-2.0,1650849848406476.0
-1.0,-1.0,6.0,-2.0,0.0,0.0,2.0,-1.0,1650849848421883.0
0.0,3.0,-7.0,0.0,5.0,0.0,-1.0,1.0,1650849848421883.0
2.0,0.0,4.0,4.0,-4.0,-4.0,-1.0,0.0,1650849848422881.0
-2.0,-7.0,-6.0,-6.0,7.0,4.0,1.0,1.0,1650849848422881.0
0.0,5.0,24.0,3.0,-12.0,-22.0,-4.0,-2.0,1650849848444810.0
-4.0,-8.0,-18.0,-11.0,-14.0,6.0,-2.0,0.0,1650849848444810.0
-1.0,4.0,4.0,-2.0,17.0,13.0,4.0,1.0,1650849848444810.0
-1.0,1.0,-2.0,8.0,-4.0,-15.0,-3.0,-3.0,1650849848444810.0
1.0,-1.0,-3.0,-2.0,10.0,18.0,-1.0,-1.0,1650849848458804.0
0.0,3.0,10.0,-10.0,-7.0,-17.0,2.0,0.0,1650849848458804.0
-2.0,-1.0,-3.0,0.0,-3.0,12.0,-1.0,-4.0,1650849848466753.0
1.0,5.0,20.0,17.0,2.0,-3.0,-1.0,0.0,1650849848466753.0
-4.0,-12.0,-16.0,0.0,-1.0,-14.0,-6.0,-2.0,1650849848481781.0
1.0,2.0,16.0,8.0,-2.0,0.0,-1.0,-1.0,1650849848481781.0
0.0,14.0,-11.0,-8.0,9.0,4.0,3.0,0.0,1650849848482711.0
-1.0,-2.0,8.0,-1.0,-13.0,-6.0,-2.0,-3.0,1650849848482711.0
2.0,-6.0,-7.0,-4.0,3.0,4.0,0.0,1.0,1650849848503686.0
-3.0,3.0,0.0,-15.0,-5.0,0.0,-2.0,-3.0,1650849848503686.0
-6.0,0.0,2.0,4.0,-3.0,-6.0,-2.0,-3.0,1650849848511661.0
1.0,-3.0,-6.0,4.0,2.0,-6.0,-2.0,3.0,1650849848511661.0
15.0,8.0,-2.0,-12.0,4.0,24.0,6.0,6.0,1650849848518643.0
6.0,1.0,-6.0,0.0,1.0,2.0,0.0,2.0,1650849848518643.0
-9.0,-9.0,5.0,-4.0,-8.0,-16.0,-8.0,-4.0,1650849848526593.0
-6.0,3.0,10.0,-4.0,-5.0,3.0,0.0,-4.0,1650849848526593.0
-5.0,-15.0,-18.0,-5.0,-8.0,-4.0,-3.0,-4.0,1650849848541581.0
-1.0,15.0,7.0,3.0,-2.0,-14.0,-4.0,-2.0,1650849848541581.0
-1.0,-16.0,9.0,2.0,-2.0,-8.0,-2.0,-3.0,1650849848542552.0
2.0,4.0,6.0,11.0,18.0,22.0,4.0,2.0,1650849848542552.0
2.0,1.0,-3.0,1.0,4.0,16.0,4.0,2.0,1650849848564682.0
0.0,-2.0,-10.0,-4.0,-7.0,-2.0,-2.0,0.0,1650849848564682.0
0.0,-1.0,-1.0,-13.0,-4.0,-15.0,-2.0,-1.0,1650849848564682.0
-1.0,-2.0,5.0,5.0,-2.0,-1.0,0.0,-2.0,1650849848564682.0
-1.0,1.0,2.0,-1.0,-4.0,-9.0,-2.0,-2.0,1650849848578713.0
-2.0,11.0,11.0,8.0,3.0,-1.0,1.0,0.0,1650849848578713.0
-2.0,-15.0,-10.0,-3.0,-4.0,6.0,-2.0,-1.0,1650849848586646.0
3.0,1.0,-8.0,-3.0,1.0,-6.0,0.0,0.0,1650849848586646.0
-2.0,5.0,-6.0,0.0,-3.0,-2.0,-2.0,-3.0,1650849848601904.0
-4.0,-9.0,-2.0,-4.0,4.0,5.0,2.0,-1.0,1650849848601904.0
0.0,13.0,6.0,-4.0,-9.0,-1.0,-2.0,-2.0,1650849848602874.0
0.0,-12.0,-14.0,-6.0,10.0,11.0,1.0,2.0,1650849848602874.0
1.0,0.0,9.0,4.0,-7.0,-19.0,-2.0,1.0,1650849848623847.0
-5.0,-1.0,2.0,6.0,4.0,1.0,-1.0,-3.0,1650849848623847.0
6.0,6.0,-1.0,2.0,0.0,3.0,1.0,4.0,1650849848631864.0
17.0,4.0,-14.0,7.0,0.0,8.0,2.0,5.0,1650849848631864.0
1.0,-2.0,20.0,-10.0,-6.0,-3.0,0.0,3.0,1650849848638806.0
-5.0,-6.0,-7.0,-4.0,10.0,1.0,-4.0,-4.0,1650849848638806.0
-9.0,6.0,15.0,6.0,-8.0,-15.0,-3.0,-3.0,1650849848646824.0
-10.0,-7.0,-2.0,9.0,-7.0,12.0,1.0,-5.0,1650849848646824.0
0.0,-7.0,-13.0,-3.0,11.0,-11.0,1.0,3.0,1650849848662742.0
3.0,16.0,11.0,8.0,3.0,21.0,0.0,-1.0,1650849848662742.0
-1.0,-12.0,-16.0,-17.0,-1.0,4.0,1.0,-1.0,1650849848669724.0
1.0,10.0,9.0,-1.0,-1.0,-19.0,-3.0,-1.0,1650849848669724.0
-1.0,3.0,3.0,-1.0,-8.0,17.0,1.0,0.0,1650849848684655.0
-3.0,-10.0,-8.0,-1.0,-5.0,-20.0,-1.0,1.0,1650849848684655.0
7.0,7.0,6.0,16.0,16.0,6.0,2.0,1.0,1650849848684655.0
6.0,16.0,-14.0,-18.0,-5.0,2.0,-2.0,0.0,1650849848684655.0
0.0,-10.0,0.0,4.0,-3.0,-10.0,-2.0,0.0,1650849848707895.0
-3.0,8.0,7.0,-14.0,-8.0,-4.0,-4.0,-3.0,1650849848707895.0
0.0,7.0,8.0,-1.0,7.0,6.0,0.0,1.0,1650849848707895.0
-3.0,-11.0,-37.0,0.0,-1.0,9.0,2.0,0.0,1650849848707895.0
-5.0,10.0,20.0,28.0,19.0,1.0,0.0,-1.0,1650849848721830.0
-3.0,-13.0,-4.0,-2.0,0.0,5.0,4.0,2.0,1650849848721830.0
9.0,-5.0,-18.0,-12.0,-9.0,-1.0,0.0,4.0,1650849848722827.0
-4.0,6.0,19.0,5.0,9.0,-7.0,-3.0,-2.0,1650849848722827.0
-3.0,5.0,-5.0,-12.0,-8.0,-4.0,-4.0,-5.0,1650849848744778.0
-1.0,-13.0,-9.0,-3.0,-14.0,-28.0,-5.0,-1.0,1650849848744778.0
-10.0,7.0,10.0,16.0,2.0,6.0,-5.0,-8.0,1650849848744778.0
-2.0,-11.0,-3.0,-7.0,22.0,55.0,18.0,5.0,1650849848744778.0
7.0,18.0,8.0,11.0,-5.0,-4.0,1.0,3.0,1650849848767896.0
1.0,-11.0,-4.0,-3.0,2.0,-1.0,0.0,2.0,1650849848767896.0
4.0,2.0,6.0,0.0,-5.0,-19.0,-2.0,1.0,1650849848767896.0
-3.0,-9.0,-17.0,-10.0,-21.0,-20.0,-8.0,-4.0,1650849848767896.0
-9.0,10.0,12.0,-1.0,4.0,8.0,-1.0,-5.0,1650849848789918.0
2.0,-16.0,-31.0,-10.0,-4.0,0.0,-1.0,0.0,1650849848789918.0
1.0,-2.0,9.0,6.0,5.0,7.0,2.0,0.0,1650849848790889.0
-5.0,-2.0,16.0,10.0,0.0,-1.0,-4.0,-1.0,1650849848790889.0
0.0,-7.0,-13.0,-17.0,0.0,-1.0,2.0,-1.0,1650849848803883.0
5.0,8.0,16.0,5.0,-6.0,-10.0,-4.0,-2.0,1650849848803883.0
-3.0,1.0,-29.0,-6.0,3.0,13.0,1.0,0.0,1650849848804852.0
-4.0,-6.0,4.0,-8.0,-9.0,-13.0,-1.0,-2.0,1650849848804852.0
4.0,7.0,-4.0,-9.0,-12.0,-13.0,0.0,3.0,1650849848827790.0
5.0,8.0,25.0,26.0,18.0,15.0,2.0,1.0,1650849848827790.0
-2.0,-10.0,-11.0,4.0,8.0,7.0,3.0,-1.0,1650849848827790.0
-6.0,-9.0,-7.0,-14.0,0.0,1.0,-2.0,-2.0,1650849848827790.0
-4.0,-4.0,-11.0,-18.0,-16.0,-11.0,-7.0,-6.0,1650849848841780.0
1.0,7.0,2.0,10.0,-2.0,-8.0,1.0,0.0,1650849848841780.0
6.0,-3.0,1.0,-11.0,4.0,9.0,5.0,5.0,1650849848842749.0
1.0,1.0,5.0,12.0,-5.0,-9.0,-8.0,-3.0,1650849848842749.0
-6.0,-7.0,-7.0,-13.0,4.0,7.0,-6.0,-6.0,1650849848864739.0
-6.0,0.0,-5.0,4.0,-5.0,1.0,7.0,0.0,1650849848864739.0
2.0,0.0,8.0,-7.0,-4.0,-12.0,-2.0,2.0,1650849848864739.0
3.0,-3.0,-13.0,1.0,1.0,-2.0,1.0,1.0,1650849848864739.0
2.0,20.0,14.0,4.0,-5.0,-2.0,-4.0,-1.0,1650849848886653.0
-6.0,-17.0,-24.0,-30.0,-3.0,5.0,-5.0,-5.0,1650849848886653.0
0.0,-4.0,22.0,54.0,28.0,12.0,5.0,3.0,1650849848887659.0
-1.0,9.0,-15.0,-24.0,-11.0,-12.0,-5.0,-3.0,1650849848887659.0
2.0,1.0,12.0,3.0,-8.0,-2.0,3.0,1.0,1650849848901641.0
1.0,3.0,-3.0,4.0,10.0,5.0,-4.0,-3.0,1650849848901641.0
-3.0,-5.0,14.0,7.0,-17.0,-7.0,3.0,6.0,1650849848909619.0
4.0,1.0,9.0,0.0,2.0,-5.0,-2.0,-1.0,1650849848909619.0
-4.0,-4.0,5.0,14.0,-3.0,10.0,3.0,0.0,1650849848924701.0
3.0,5.0,0.0,-11.0,14.0,12.0,1.0,1.0,1650849848924701.0
-1.0,-13.0,-4.0,-9.0,-15.0,-6.0,-3.0,-2.0,1650849848924701.0
-8.0,15.0,-2.0,-6.0,-9.0,-18.0,-6.0,-5.0,1650849848924701.0
0.0,-32.0,-14.0,4.0,12.0,1.0,-2.0,-1.0,1650849848946721.0
9.0,12.0,11.0,-2.0,-8.0,0.0,5.0,4.0,1650849848946721.0
4.0,34.0,17.0,7.0,5.0,14.0,2.0,-1.0,1650849848947721.0
-5.0,-25.0,4.0,-11.0,-13.0,1.0,0.0,0.0,1650849848947721.0
0.0,7.0,2.0,14.0,5.0,0.0,4.0,3.0,1650849848961684.0
4.0,17.0,14.0,12.0,17.0,-3.0,-2.0,2.0,1650849848961684.0
-7.0,-15.0,-47.0,-7.0,-11.0,-14.0,-8.0,-9.0,1650849848962689.0
-2.0,0.0,-8.0,-7.0,16.0,10.0,-2.0,-3.0,1650849848962689.0
-4.0,2.0,-7.0,-9.0,-14.0,0.0,0.0,0.0,1650849848984743.0
-7.0,0.0,40.0,19.0,-15.0,-10.0,-5.0,-4.0,1650849848984743.0
0.0,-18.0,13.0,-11.0,-15.0,1.0,3.0,4.0,1650849848984743.0
2.0,55.0,-21.0,-11.0,7.0,-1.0,-2.0,-1.0,1650849848984743.0
3.0,-19.0,-11.0,-12.0,1.0,-6.0,1.0,1.0,1650849849006684.0
-8.0,-5.0,-3.0,-25.0,-20.0,-1.0,-6.0,-5.0,1650849849006684.0
3.0,11.0,29.0,35.0,21.0,3.0,3.0,2.0,1650849849007682.0
2.0,-19.0,-7.0,5.0,-22.0,-11.0,-1.0,1.0,1650849849007682.0
7.0,6.0,-4.0,-7.0,26.0,-1.0,-4.0,2.0,1650849849021672.0
6.0,22.0,8.0,19.0,3.0,14.0,11.0,2.0,1650849849021672.0
-12.0,-15.0,-6.0,-32.0,-11.0,-4.0,-4.0,-7.0,1650849849022642.0
5.0,7.0,14.0,18.0,13.0,11.0,8.0,3.0,1650849849022642.0
-11.0,-47.0,-5.0,-10.0,-9.0,-10.0,0.0,0.0,1650849849044596.0
-3.0,-4.0,-40.0,-6.0,-7.0,-3.0,-4.0,-3.0,1650849849044596.0
13.0,11.0,3.0,-21.0,-7.0,-11.0,-4.0,1.0,1650849849045582.0
2.0,-19.0,-27.0,19.0,5.0,1.0,6.0,4.0,1650849849045582.0
1.0,19.0,15.0,9.0,5.0,7.0,1.0,0.0,1650849849067607.0
-5.0,-18.0,14.0,-5.0,6.0,9.0,-3.0,-4.0,1650849849067607.0
-13.0,-16.0,-48.0,-16.0,-12.0,-3.0,0.0,-1.0,1650849849067607.0
1.0,13.0,21.0,-10.0,-1.0,-2.0,-2.0,0.0,1650849849067607.0
1.0,11.0,17.0,56.0,46.0,10.0,3.0,-1.0,1650849849081636.0
-7.0,-6.0,-10.0,-10.0,-13.0,-12.0,-6.0,-3.0,1650849849081636.0
9.0,0.0,-10.0,-22.0,-5.0,-6.0,-3.0,0.0,1650849849082573.0
-3.0,-19.0,14.0,9.0,-13.0,1.0,0.0,2.0,1650849849082573.0
-8.0,-5.0,-13.0,-12.0,-9.0,-7.0,-5.0,-7.0,1650849849104507.0
0.0,16.0,-1.0,-42.0,-13.0,-16.0,0.0,0.0,1650849849104507.0
0.0,-23.0,-14.0,-7.0,-6.0,12.0,-2.0,-1.0,1650849849105505.0
1.0,-12.0,4.0,26.0,6.0,1.0,-3.0,-1.0,1650849849105505.0
4.0,6.0,-1.0,2.0,5.0,9.0,2.0,0.0,1650849849126480.0
7.0,23.0,26.0,22.0,19.0,6.0,5.0,7.0,1650849849126480.0
-6.0,-14.0,6.0,-16.0,-9.0,-9.0,-4.0,-4.0,1650849849127447.0
-6.0,26.0,1.0,-20.0,-18.0,-15.0,-5.0,-7.0,1650849849127447.0
1.0,-9.0,30.0,19.0,3.0,20.0,5.0,3.0,1650849849141438.0
0.0,-10.0,-31.0,0.0,-5.0,0.0,1.0,2.0,1650849849141438.0
0.0,29.0,14.0,-8.0,5.0,-5.0,-9.0,-9.0,1650849849142408.0
5.0,14.0,24.0,29.0,12.0,-10.0,1.0,4.0,1650849849142408.0
-5.0,-9.0,-27.0,-18.0,-5.0,6.0,3.0,2.0,1650849849164418.0
1.0,-11.0,12.0,15.0,4.0,11.0,14.0,6.0,1650849849164418.0
0.0,14.0,13.0,16.0,7.0,2.0,0.0,-2.0,1650849849165346.0
-1.0,-2.0,3.0,-15.0,9.0,7.0,-2.0,-3.0,1650849849165346.0
2.0,16.0,1.0,-4.0,-23.0,-20.0,-5.0,-4.0,1650849849186792.0
-3.0,-18.0,-14.0,4.0,8.0,-4.0,-7.0,-3.0,1650849849186792.0
-2.0,-5.0,7.0,15.0,10.0,13.0,2.0,-1.0,1650849849187790.0
-3.0,-9.0,6.0,-16.0,-11.0,-5.0,-1.0,-1.0,1650849849187790.0
3.0,12.0,-14.0,1.0,-22.0,-17.0,-2.0,1.0,1650849849201780.0
3.0,2.0,-11.0,-32.0,3.0,17.0,-2.0,1.0,1650849849201780.0
4.0,5.0,20.0,61.0,42.0,0.0,2.0,4.0,1650849849202750.0
-4.0,-3.0,-32.0,-50.0,-13.0,-4.0,2.0,-2.0,1650849849202750.0
-10.0,-27.0,5.0,14.0,-16.0,-7.0,-9.0,-7.0,1650849849224802.0
-6.0,-27.0,-35.0,-14.0,-4.0,-5.0,-3.0,-3.0,1650849849224802.0
3.0,20.0,-8.0,-13.0,-21.0,-7.0,3.0,3.0,1650849849225773.0
9.0,0.0,14.0,33.0,48.0,28.0,6.0,8.0,1650849849225773.0
6.0,9.0,0.0,-22.0,-7.0,-8.0,-3.0,0.0,1650849849246718.0
-1.0,-5.0,11.0,16.0,-7.0,11.0,2.0,-1.0,1650849849246718.0
-5.0,-19.0,-19.0,-14.0,-6.0,-6.0,2.0,-1.0,1650849849247714.0
-2.0,12.0,10.0,1.0,-16.0,-3.0,2.0,2.0,1650849849247714.0
4.0,2.0,1.0,-20.0,-2.0,-13.0,-6.0,-2.0,1650849849261679.0
-3.0,-2.0,12.0,28.0,3.0,-6.0,-5.0,-3.0,1650849849261679.0
4.0,21.0,41.0,6.0,-1.0,6.0,1.0,1.0,1650849849262675.0
-8.0,-34.0,-46.0,-18.0,-6.0,-8.0,-3.0,-5.0,1650849849262675.0
-1.0,-8.0,-33.0,-6.0,5.0,-2.0,4.0,0.0,1650849849284617.0
5.0,21.0,20.0,-12.0,-10.0,6.0,0.0,-1.0,1650849849284617.0
-3.0,-15.0,-4.0,22.0,25.0,9.0,4.0,1.0,1650849849284617.0
2.0,-11.0,1.0,-2.0,-11.0,-7.0,-9.0,-5.0,1650849849284617.0
5.0,12.0,9.0,11.0,16.0,7.0,6.0,4.0,1650849849306556.0
2.0,-3.0,-14.0,-19.0,-22.0,-9.0,2.0,0.0,1650849849306556.0
-8.0,-5.0,14.0,2.0,10.0,3.0,-3.0,-4.0,1650849849307559.0
2.0,10.0,25.0,22.0,-2.0,1.0,2.0,0.0,1650849849307559.0
-8.0,-14.0,-18.0,-16.0,-15.0,-20.0,-5.0,-6.0,1650849849321517.0
-3.0,17.0,-10.0,17.0,12.0,16.0,-2.0,0.0,1650849849321517.0
-3.0,-10.0,-10.0,-27.0,-15.0,-11.0,-9.0,-3.0,1650849849322514.0
5.0,19.0,16.0,5.0,8.0,7.0,7.0,5.0,1650849849322514.0
5.0,10.0,-17.0,11.0,-4.0,5.0,-1.0,0.0,1650849849344455.0
7.0,16.0,28.0,16.0,16.0,-6.0,2.0,2.0,1650849849344455.0
-4.0,-9.0,-45.0,-14.0,-8.0,-8.0,-6.0,-3.0,1650849849345464.0
0.0,0.0,8.0,-4.0,4.0,3.0,3.0,-1.0,1650849849345464.0
-1.0,-3.0,21.0,10.0,-8.0,-3.0,0.0,1.0,1650849849366399.0
-5.0,-11.0,22.0,8.0,-6.0,-18.0,-3.0,-1.0,1650849849366399.0
0.0,8.0,-26.0,1.0,8.0,35.0,9.0,-2.0,1650849849367394.0
4.0,-6.0,-4.0,-20.0,-10.0,-19.0,-4.0,2.0,1650849849367394.0
3.0,-7.0,-42.0,-2.0,7.0,20.0,4.0,3.0,1650849849383351.0
-1.0,-1.0,0.0,0.0,-2.0,-17.0,-4.0,-4.0,1650849849383351.0
2.0,1.0,7.0,-13.0,2.0,7.0,1.0,4.0,1650849849384349.0
-4.0,-16.0,17.0,27.0,3.0,0.0,-3.0,-3.0,1650849849384349.0
3.0,18.0,18.0,0.0,7.0,6.0,1.0,2.0,1650849849404295.0
-1.0,0.0,-7.0,1.0,-7.0,1.0,-4.0,-2.0,1650849849404295.0
4.0,22.0,-7.0,-24.0,-15.0,-27.0,1.0,4.0,1650849849405293.0
-7.0,-3.0,2.0,24.0,26.0,27.0,5.0,-1.0,1650849849405293.0
2.0,7.0,17.0,-7.0,3.0,5.0,-2.0,0.0,1650849849427233.0
2.0,-11.0,6.0,-2.0,-5.0,-14.0,-1.0,0.0,1650849849427233.0
1.0,22.0,23.0,-37.0,-25.0,2.0,3.0,7.0,1650849849427233.0
-5.0,-16.0,-35.0,53.0,43.0,7.0,0.0,-2.0,1650849849427233.0
-1.0,-5.0,30.0,5.0,2.0,3.0,6.0,3.0,1650849849442194.0
10.0,5.0,-3.0,3.0,6.0,4.0,5.0,7.0,1650849849442194.0
0.0,16.0,-3.0,-4.0,-13.0,-15.0,-7.0,-6.0,1650849849442194.0
-9.0,-23.0,2.0,-34.0,-33.0,-9.0,-5.0,-4.0,1650849849442194.0
-3.0,-5.0,-12.0,-6.0,-2.0,3.0,-5.0,-8.0,1650849849464138.0
-6.0,16.0,-2.0,-1.0,11.0,1.0,-4.0,-4.0,1650849849464138.0
1.0,-7.0,-3.0,30.0,7.0,-2.0,2.0,2.0,1650849849465132.0
-4.0,10.0,4.0,-21.0,-12.0,-4.0,-4.0,-6.0,1650849849465132.0
-2.0,-26.0,-23.0,4.0,4.0,-5.0,-1.0,0.0,1650849849487073.0
3.0,-13.0,-27.0,-17.0,-6.0,4.0,3.0,1.0,1650849849487073.0
-4.0,-4.0,-10.0,-4.0,-10.0,-10.0,-7.0,-5.0,1650849849487073.0
2.0,20.0,24.0,2.0,-8.0,-11.0,-6.0,-1.0,1650849849487073.0
-10.0,-17.0,-38.0,-33.0,-16.0,-2.0,1.0,-2.0,1650849849517998.0
1.0,-22.0,-19.0,22.0,27.0,22.0,-1.0,1.0,1650849849517998.0
5.0,4.0,52.0,34.0,17.0,1.0,6.0,4.0,1650849849517998.0
7.0,15.0,0.0,-7.0,-3.0,-2.0,-2.0,0.0,1650849849517998.0
-1.0,7.0,18.0,-7.0,-4.0,-9.0,-3.0,2.0,1650849849524972.0
-8.0,-13.0,-25.0,-14.0,-12.0,-12.0,1.0,-4.0,1650849849524972.0
