EMG_s0,EMG_s1,EMG_s2,EMG_s3,EMG_s4,EMG_s5,EMG_s6,EMG_s7,timestamp
1.0,1.0,1.0,2.0,10.0,6.0,-1.0,0.0,1650849541530938.0
0.0,-3.0,0.0,-8.0,-2.0,-8.0,-2.0,-1.0,1650849541530938.0
-2.0,0.0,0.0,3.0,-4.0,-5.0,-2.0,-2.0,1650849541531934.0
-2.0,1.0,-1.0,0.0,-5.0,-16.0,-4.0,-1.0,1650849541531934.0
-1.0,-3.0,-2.0,-6.0,1.0,8.0,3.0,1.0,1650849541532931.0
0.0,2.0,1.0,-1.0,-20.0,-3.0,3.0,3.0,1650849541532931.0
0.0,3.0,3.0,9.0,20.0,10.0,2.0,4.0,1650849541533929.0
1.0,2.0,4.0,-4.0,2.0,-6.0,0.0,0.0,1650849541533929.0
1.0,2.0,-1.0,0.0,3.0,8.0,0.0,0.0,1650849541540911.0
1.0,0.0,-1.0,3.0,0.0,-8.0,-3.0,0.0,1650849541540911.0
2.0,-3.0,-1.0,-4.0,-9.0,11.0,0.0,-1.0,1650849541553876.0
0.0,-3.0,-2.0,-2.0,-1.0,-5.0,0.0,0.0,1650849541553876.0
1.0,1.0,2.0,2.0,1.0,-3.0,0.0,0.0,1650849541560857.0
-2.0,0.0,-2.0,0.0,0.0,-4.0,-2.0,0.0,1650849541560857.0
1.0,0.0,0.0,-5.0,-1.0,0.0,0.0,-1.0,1650849541567839.0
0.0,1.0,0.0,0.0,5.0,11.0,0.0,0.0,1650849541567839.0
-1.0,-1.0,-2.0,1.0,-4.0,-3.0,1.0,1.0,1650849541585794.0
1.0,-1.0,0.0,0.0,3.0,3.0,-1.0,0.0,1650849541585794.0
0.0,-1.0,0.0,-2.0,-3.0,-8.0,-2.0,-1.0,1650849541598762.0
-1.0,1.0,-2.0,1.0,1.0,1.0,-2.0,0.0,1650849541598762.0
-1.0,1.0,2.0,2.0,3.0,4.0,1.0,0.0,1650849541637818.0
-2.0,1.0,-1.0,6.0,5.0,-7.0,-3.0,-1.0,1650849541637818.0
0.0,-4.0,-2.0,-4.0,5.0,-2.0,0.0,0.0,1650849541638848.0
-1.0,-1.0,-2.0,-7.0,-4.0,1.0,-2.0,-1.0,1650849541638848.0
-1.0,1.0,-1.0,4.0,-24.0,-2.0,0.0,1.0,1650849541638848.0
1.0,-1.0,1.0,0.0,18.0,5.0,2.0,0.0,1650849541638848.0
-1.0,2.0,0.0,-3.0,-3.0,-5.0,-1.0,-1.0,1650849541641807.0
0.0,0.0,-1.0,4.0,3.0,-4.0,0.0,-2.0,1650849541641807.0
-2.0,0.0,-1.0,-3.0,-4.0,-9.0,-2.0,-2.0,1650849541648796.0
-1.0,-4.0,0.0,-4.0,-5.0,12.0,2.0,0.0,1650849541648796.0
1.0,-1.0,-1.0,2.0,1.0,0.0,0.0,0.0,1650849541657763.0
-1.0,1.0,0.0,0.0,-4.0,1.0,2.0,0.0,1650849541657763.0
0.0,-2.0,-1.0,-2.0,3.0,-4.0,-1.0,0.0,1650849541663748.0
1.0,1.0,1.0,0.0,8.0,-1.0,0.0,0.0,1650849541663748.0
0.0,1.0,0.0,1.0,-3.0,-11.0,-3.0,-2.0,1650849541679763.0
-1.0,-3.0,0.0,-1.0,3.0,9.0,-2.0,-2.0,1650849541679763.0
1.0,0.0,0.0,-3.0,6.0,15.0,4.0,1.0,1650849541686705.0
0.0,-1.0,-1.0,-3.0,-9.0,-13.0,-2.0,-1.0,1650849541686705.0
-1.0,2.0,0.0,0.0,-10.0,-5.0,-1.0,0.0,1650849541710894.0
1.0,1.0,1.0,1.0,3.0,-5.0,0.0,0.0,1650849541710894.0
-1.0,-2.0,1.0,2.0,15.0,0.0,0.0,-3.0,1650849541711892.0
0.0,0.0,-1.0,0.0,-2.0,6.0,-1.0,-2.0,1650849541711892.0
-1.0,-2.0,-2.0,-6.0,-12.0,-16.0,-3.0,-2.0,1650849541724896.0
-1.0,0.0,0.0,-1.0,-10.0,7.0,1.0,0.0,1650849541724896.0
1.0,0.0,-1.0,2.0,3.0,1.0,-1.0,0.0,1650849541731839.0
-2.0,-1.0,-2.0,1.0,-1.0,0.0,-1.0,0.0,1650849541731839.0
1.0,-1.0,1.0,0.0,3.0,4.0,1.0,-2.0,1650849541748794.0
-1.0,-2.0,0.0,-1.0,-1.0,-6.0,-2.0,0.0,1650849541748794.0
-1.0,1.0,-2.0,-2.0,-11.0,-21.0,-3.0,-2.0,1650849541753780.0
-1.0,0.0,0.0,-1.0,3.0,18.0,1.0,1.0,1650849541753780.0
-1.0,-1.0,1.0,0.0,-2.0,1.0,1.0,1.0,1650849541770735.0
0.0,2.0,0.0,-1.0,7.0,14.0,1.0,0.0,1650849541770735.0
0.0,-2.0,-2.0,-1.0,-4.0,-7.0,-2.0,-1.0,1650849541771732.0
-2.0,0.0,0.0,-2.0,-14.0,-20.0,-7.0,-3.0,1650849541771732.0
0.0,1.0,0.0,3.0,1.0,6.0,-1.0,0.0,1650849541784870.0
-1.0,-1.0,-1.0,-1.0,8.0,0.0,-1.0,-1.0,1650849541784870.0
-1.0,0.0,-1.0,-1.0,-2.0,-7.0,-3.0,-2.0,1650849541791783.0
-3.0,-1.0,1.0,0.0,2.0,4.0,1.0,0.0,1650849541791783.0
-1.0,-2.0,-1.0,1.0,-4.0,4.0,-1.0,-1.0,1650849541807923.0
1.0,0.0,2.0,1.0,8.0,-1.0,-1.0,1.0,1650849541807923.0
0.0,-1.0,-1.0,-3.0,1.0,11.0,0.0,0.0,1650849541809883.0
0.0,-1.0,0.0,-1.0,-20.0,-10.0,-1.0,1.0,1650849541809883.0
0.0,-1.0,-1.0,0.0,23.0,1.0,-3.0,-1.0,1650849541830046.0
-1.0,-2.0,-1.0,0.0,-3.0,10.0,3.0,0.0,1650849541830046.0
1.0,-2.0,0.0,-1.0,2.0,-2.0,-1.0,-1.0,1650849541832042.0
1.0,0.0,-1.0,-1.0,3.0,1.0,2.0,-1.0,1650849541832042.0
-1.0,-1.0,-3.0,-3.0,-9.0,-10.0,-4.0,-1.0,1650849541845035.0
-2.0,1.0,-2.0,1.0,-6.0,-10.0,-4.0,-1.0,1650849541845035.0
-1.0,0.0,0.0,-1.0,6.0,9.0,2.0,0.0,1650849541852055.0
-2.0,-1.0,-1.0,0.0,-1.0,-7.0,-2.0,-1.0,1650849541852055.0
0.0,0.0,0.0,0.0,-3.0,-8.0,-2.0,0.0,1650849541868012.0
-3.0,-1.0,-1.0,-1.0,-1.0,21.0,7.0,2.0,1650849541868012.0
0.0,0.0,0.0,-1.0,6.0,5.0,-1.0,-1.0,1650849541869967.0
-1.0,-1.0,0.0,-3.0,-5.0,-5.0,0.0,-4.0,1650849541869967.0
0.0,-1.0,0.0,1.0,6.0,6.0,2.0,0.0,1650849541891003.0
0.0,-1.0,-1.0,-3.0,-6.0,-12.0,-4.0,-1.0,1650849541891003.0
-1.0,-1.0,-2.0,0.0,-4.0,-3.0,-1.0,-1.0,1650849541891991.0
0.0,-1.0,-3.0,-1.0,-2.0,-1.0,-3.0,0.0,1650849541891991.0
0.0,-3.0,1.0,-1.0,-5.0,-3.0,-2.0,-2.0,1650849541905063.0
-1.0,0.0,-2.0,-1.0,2.0,-5.0,-3.0,-2.0,1650849541905063.0
0.0,0.0,2.0,1.0,3.0,13.0,3.0,2.0,1650849541912046.0
1.0,0.0,0.0,2.0,14.0,8.0,1.0,0.0,1650849541912046.0
0.0,2.0,0.0,-3.0,-7.0,1.0,1.0,-1.0,1650849541928032.0
0.0,-2.0,-2.0,1.0,-10.0,-17.0,-4.0,-1.0,1650849541928032.0
-2.0,-2.0,-1.0,-1.0,-1.0,-7.0,-5.0,-1.0,1650849541930021.0
1.0,0.0,-2.0,-2.0,-4.0,4.0,1.0,-4.0,1650849541930021.0
0.0,1.0,0.0,-1.0,-1.0,-7.0,-1.0,0.0,1650849541950984.0
0.0,-1.0,-1.0,2.0,7.0,21.0,4.0,-1.0,1650849541950984.0
0.0,-2.0,0.0,-3.0,2.0,-5.0,-2.0,-2.0,1650849541951943.0
-1.0,-1.0,0.0,-3.0,-14.0,-8.0,-2.0,1.0,1650849541951943.0
-1.0,0.0,0.0,5.0,21.0,12.0,1.0,0.0,1650849541964918.0
0.0,0.0,-1.0,-5.0,-7.0,-14.0,-4.0,-1.0,1650849541964918.0
-1.0,0.0,-1.0,-2.0,-6.0,-14.0,-5.0,-2.0,1650849541971916.0
1.0,1.0,0.0,2.0,10.0,35.0,7.0,2.0,1650849541971916.0
-1.0,-2.0,0.0,-3.0,-9.0,-2.0,0.0,0.0,1650849541988956.0
-2.0,0.0,0.0,4.0,7.0,3.0,0.0,-1.0,1650849541988956.0
0.0,0.0,0.0,-2.0,-2.0,-9.0,-2.0,-1.0,1650849541989938.0
-2.0,-1.0,-1.0,-1.0,0.0,-12.0,-3.0,-3.0,1650849541989938.0
0.0,-2.0,-2.0,-2.0,-2.0,9.0,0.0,1.0,1650849542010868.0
0.0,0.0,-2.0,-2.0,-12.0,-10.0,0.0,-1.0,1650849542010868.0
-1.0,1.0,0.0,5.0,7.0,12.0,2.0,1.0,1650849542011867.0
0.0,-1.0,-1.0,-3.0,0.0,-12.0,-3.0,0.0,1650849542011867.0
-1.0,-1.0,0.0,0.0,2.0,10.0,1.0,-2.0,1650849542033523.0
1.0,0.0,-1.0,-1.0,3.0,-7.0,0.0,0.0,1650849542033523.0
-2.0,-2.0,0.0,-1.0,-7.0,-5.0,-2.0,-3.0,1650849542034523.0
-2.0,0.0,0.0,-1.0,2.0,1.0,-1.0,0.0,1650849542034523.0
-1.0,-1.0,0.0,0.0,-6.0,-11.0,-3.0,-2.0,1650849542048485.0
0.0,-1.0,0.0,-1.0,0.0,-2.0,-1.0,-2.0,1650849542048485.0
1.0,2.0,0.0,-2.0,-5.0,-10.0,-1.0,-2.0,1650849542049490.0
0.0,0.0,-1.0,3.0,8.0,18.0,1.0,1.0,1650849542049490.0
0.0,1.0,0.0,0.0,-1.0,-2.0,1.0,0.0,1650849542070453.0
-2.0,-1.0,-1.0,-3.0,-2.0,-2.0,-2.0,-1.0,1650849542070453.0
0.0,-2.0,-1.0,1.0,-3.0,1.0,1.0,-2.0,1650849542072442.0
0.0,-1.0,-1.0,-1.0,-1.0,-16.0,-4.0,-2.0,1650849542072442.0
-1.0,0.0,0.0,3.0,-6.0,11.0,1.0,0.0,1650849542092532.0
1.0,0.0,0.0,-1.0,10.0,6.0,1.0,-1.0,1650849542092532.0
-1.0,0.0,-2.0,-2.0,-6.0,-10.0,-3.0,-1.0,1650849542093503.0
-2.0,2.0,0.0,1.0,-6.0,-4.0,-2.0,0.0,1650849542093503.0
1.0,-1.0,0.0,0.0,10.0,6.0,0.0,0.0,1650849542107557.0
0.0,-2.0,0.0,-2.0,-5.0,-17.0,-5.0,-1.0,1650849542107557.0
0.0,1.0,0.0,-3.0,-5.0,16.0,6.0,2.0,1650849542108554.0
-1.0,1.0,2.0,-1.0,-3.0,5.0,1.0,-1.0,1650849542108554.0
-1.0,-1.0,-2.0,1.0,3.0,2.0,0.0,0.0,1650849542129498.0
0.0,0.0,0.0,-2.0,-2.0,-20.0,-8.0,-1.0,1650849542129498.0
1.0,1.0,-1.0,1.0,6.0,14.0,4.0,-1.0,1650849542130496.0
-1.0,-2.0,-1.0,-2.0,-6.0,-2.0,-1.0,0.0,1650849542130496.0
0.0,-1.0,0.0,-1.0,-5.0,-6.0,-3.0,-1.0,1650849542152504.0
0.0,-1.0,0.0,2.0,2.0,-1.0,1.0,-2.0,1650849542152504.0
1.0,-1.0,0.0,2.0,4.0,10.0,2.0,0.0,1650849542153462.0
1.0,0.0,-2.0,-1.0,1.0,-2.0,0.0,1.0,1650849542153462.0
-2.0,0.0,-1.0,-2.0,-2.0,-5.0,-2.0,-2.0,1650849542167464.0
-1.0,-1.0,-2.0,-1.0,-2.0,5.0,2.0,0.0,1650849542167464.0
0.0,-1.0,-2.0,-1.0,3.0,-6.0,-3.0,-1.0,1650849542168423.0
-1.0,0.0,-1.0,3.0,-7.0,2.0,1.0,-1.0,1650849542168423.0
-1.0,0.0,0.0,-3.0,-1.0,-10.0,-1.0,-1.0,1650849542189458.0
1.0,2.0,2.0,2.0,4.0,14.0,2.0,-1.0,1650849542189458.0
-1.0,-1.0,-1.0,-1.0,-7.0,-1.0,-1.0,1.0,1650849542190464.0
1.0,-2.0,0.0,-2.0,11.0,-6.0,-2.0,-2.0,1650849542190464.0
-1.0,-2.0,-2.0,-2.0,-6.0,-1.0,-2.0,-2.0,1650849542212483.0
0.0,-2.0,0.0,-1.0,-1.0,-2.0,0.0,0.0,1650849542212483.0
-2.0,-2.0,-1.0,-1.0,1.0,-2.0,-1.0,-2.0,1650849542213481.0
-1.0,-2.0,-2.0,-3.0,-7.0,-16.0,-3.0,-1.0,1650849542213481.0
0.0,1.0,0.0,0.0,1.0,13.0,2.0,1.0,1650849542227470.0
-1.0,0.0,-1.0,0.0,3.0,9.0,3.0,1.0,1650849542227470.0
1.0,-1.0,0.0,-2.0,-4.0,0.0,0.0,-1.0,1650849542228441.0
-1.0,0.0,0.0,0.0,3.0,4.0,2.0,0.0,1650849542228441.0
-1.0,-2.0,-1.0,0.0,1.0,-7.0,-2.0,-4.0,1650849542249386.0
-1.0,-2.0,-2.0,-3.0,-6.0,-9.0,-3.0,-3.0,1650849542249386.0
0.0,0.0,-1.0,0.0,5.0,6.0,-1.0,0.0,1650849542250396.0
0.0,-1.0,0.0,-2.0,-6.0,-6.0,-1.0,-2.0,1650849542250396.0
0.0,0.0,0.0,0.0,-5.0,2.0,1.0,1.0,1650849542272387.0
0.0,1.0,0.0,3.0,12.0,17.0,3.0,0.0,1650849542272387.0
-1.0,-2.0,-1.0,-3.0,-4.0,-9.0,-5.0,-1.0,1650849542273321.0
1.0,-1.0,0.0,0.0,1.0,1.0,-1.0,-1.0,1650849542273321.0
-3.0,-2.0,-3.0,-3.0,-5.0,-9.0,-1.0,-1.0,1650849542286900.0
-1.0,-1.0,-1.0,-1.0,-9.0,-5.0,-2.0,-2.0,1650849542286900.0
-1.0,1.0,0.0,1.0,5.0,0.0,1.0,0.0,1650849542287906.0
-1.0,-1.0,-1.0,1.0,3.0,1.0,0.0,0.0,1650849542287906.0
1.0,0.0,-1.0,-1.0,-5.0,-10.0,-1.0,-1.0,1650849542317822.0
1.0,-1.0,-2.0,0.0,1.0,13.0,0.0,1.0,1650849542317822.0
-1.0,0.0,0.0,-2.0,-6.0,-4.0,0.0,-1.0,1650849542318818.0
-1.0,-1.0,1.0,-1.0,0.0,-10.0,-4.0,0.0,1650849542318818.0
1.0,1.0,1.0,3.0,11.0,27.0,7.0,1.0,1650849542332822.0
-2.0,-1.0,0.0,-2.0,2.0,-11.0,-2.0,0.0,1650849542332822.0
-1.0,0.0,-1.0,-1.0,-10.0,-5.0,-1.0,0.0,1650849542332822.0
-2.0,-1.0,-1.0,-1.0,2.0,6.0,-1.0,0.0,1650849542332822.0
0.0,0.0,1.0,3.0,13.0,-1.0,-1.0,0.0,1650849542347739.0
-2.0,-1.0,-1.0,-2.0,-4.0,-8.0,-1.0,-1.0,1650849542347739.0
-1.0,-1.0,-1.0,3.0,10.0,7.0,1.0,-1.0,1650849542347739.0
-1.0,-2.0,-2.0,-2.0,-13.0,-8.0,-1.0,-2.0,1650849542347739.0
1.0,1.0,-1.0,2.0,17.0,6.0,-1.0,0.0,1650849542369749.0
0.0,-2.0,-2.0,-3.0,-9.0,-7.0,-2.0,-3.0,1650849542369749.0
-1.0,-1.0,0.0,-2.0,-5.0,-9.0,-3.0,-1.0,1650849542370680.0
1.0,2.0,-1.0,3.0,8.0,15.0,5.0,1.0,1650849542370680.0
-1.0,0.0,0.0,-2.0,-3.0,1.0,-1.0,0.0,1650849542391911.0
1.0,-1.0,2.0,-3.0,-8.0,-3.0,-1.0,0.0,1650849542391911.0
-1.0,-2.0,-1.0,1.0,-2.0,-5.0,-1.0,-1.0,1650849542392881.0
1.0,-1.0,0.0,0.0,6.0,2.0,-1.0,-1.0,1650849542392881.0
-1.0,-2.0,-2.0,-5.0,-12.0,-20.0,-4.0,-1.0,1650849542406964.0
-1.0,1.0,0.0,4.0,4.0,24.0,7.0,2.0,1650849542406964.0
-1.0,0.0,-1.0,0.0,-1.0,0.0,0.0,-1.0,1650849542407962.0
0.0,0.0,-2.0,-2.0,1.0,0.0,-2.0,0.0,1650849542407962.0
-1.0,1.0,2.0,-2.0,-3.0,1.0,1.0,1.0,1650849542430928.0
-3.0,-1.0,-1.0,-1.0,-8.0,-15.0,-4.0,0.0,1650849542430928.0
1.0,1.0,-1.0,2.0,5.0,8.0,1.0,1.0,1650849542431898.0
0.0,0.0,-1.0,-2.0,-3.0,-3.0,0.0,-2.0,1650849542431898.0
-2.0,0.0,-3.0,-2.0,-4.0,-14.0,-6.0,-2.0,1650849542452806.0
0.0,0.0,0.0,0.0,-4.0,11.0,1.0,-1.0,1650849542452806.0
-1.0,-2.0,1.0,-1.0,-8.0,-4.0,-1.0,0.0,1650849542452806.0
-1.0,-1.0,-2.0,3.0,12.0,4.0,-2.0,1.0,1650849542452806.0
0.0,-1.0,0.0,0.0,-11.0,-4.0,2.0,-1.0,1650849542467768.0
0.0,-2.0,0.0,3.0,15.0,4.0,0.0,0.0,1650849542467768.0
-2.0,-3.0,-1.0,-1.0,-3.0,-6.0,-2.0,-1.0,1650849542467768.0
0.0,0.0,-2.0,-3.0,-11.0,-17.0,-4.0,-2.0,1650849542467768.0
-1.0,-2.0,-2.0,-3.0,-8.0,6.0,-2.0,-2.0,1650849542489739.0
-2.0,-1.0,-3.0,0.0,6.0,15.0,2.0,0.0,1650849542489739.0
-1.0,0.0,0.0,0.0,7.0,-5.0,-2.0,1.0,1650849542490708.0
-2.0,0.0,1.0,-1.0,-1.0,5.0,1.0,-1.0,1650849542490708.0
0.0,0.0,-1.0,-2.0,0.0,-18.0,-3.0,-2.0,1650849542512676.0
0.0,-1.0,-2.0,-1.0,-9.0,-5.0,-4.0,-1.0,1650849542512676.0
2.0,0.0,0.0,0.0,7.0,9.0,3.0,2.0,1650849542512676.0
0.0,-1.0,-3.0,-2.0,-3.0,-2.0,-1.0,-1.0,1650849542512676.0
0.0,-1.0,-1.0,-1.0,-2.0,-1.0,1.0,-1.0,1650849542527637.0
1.0,-2.0,0.0,0.0,-8.0,-9.0,-2.0,0.0,1650849542527637.0
-1.0,0.0,2.0,4.0,17.0,8.0,-1.0,0.0,1650849542527637.0
1.0,0.0,1.0,-2.0,-8.0,-1.0,0.0,0.0,1650849542527637.0
0.0,-1.0,0.0,-1.0,5.0,8.0,0.0,1.0,1650849542549551.0
1.0,1.0,0.0,-2.0,-5.0,0.0,0.0,0.0,1650849542549551.0
0.0,-2.0,-2.0,-4.0,-2.0,-1.0,-1.0,-3.0,1650849542550548.0
-3.0,-1.0,1.0,1.0,-2.0,-7.0,-1.0,0.0,1650849542550548.0
-1.0,0.0,2.0,3.0,0.0,16.0,1.0,-1.0,1650849542572517.0
0.0,0.0,-1.0,0.0,7.0,-9.0,-3.0,-1.0,1650849542572517.0
-2.0,1.0,-2.0,-2.0,-7.0,-5.0,-2.0,-1.0,1650849542573507.0
1.0,-2.0,0.0,-2.0,-9.0,-21.0,-6.0,-2.0,1650849542573507.0
1.0,-2.0,-1.0,3.0,7.0,42.0,9.0,2.0,1650849542587516.0
2.0,0.0,0.0,0.0,5.0,-10.0,-2.0,0.0,1650849542587516.0
0.0,0.0,0.0,1.0,-6.0,-2.0,-2.0,-3.0,1650849542588466.0
0.0,0.0,-1.0,-1.0,4.0,1.0,1.0,-1.0,1650849542588466.0
-1.0,-1.0,-1.0,-3.0,-6.0,-16.0,-3.0,-2.0,1650849542609593.0
-1.0,-1.0,-2.0,-1.0,-2.0,-4.0,-2.0,-2.0,1650849542609593.0
-1.0,0.0,0.0,-1.0,-5.0,1.0,0.0,-1.0,1650849542617639.0
-1.0,-2.0,0.0,1.0,1.0,13.0,2.0,1.0,1650849542617639.0
-1.0,-1.0,0.0,1.0,7.0,1.0,0.0,0.0,1650849542632532.0
-1.0,1.0,1.0,0.0,-9.0,0.0,0.0,-2.0,1650849542632532.0
1.0,0.0,-1.0,-3.0,0.0,-11.0,-1.0,0.0,1650849542633543.0
0.0,0.0,2.0,-1.0,2.0,6.0,1.0,0.0,1650849542633543.0
0.0,0.0,0.0,-1.0,1.0,-4.0,0.0,0.0,1650849542655258.0
-1.0,-2.0,-1.0,-1.0,3.0,4.0,3.0,0.0,1650849542655258.0
-1.0,-1.0,-2.0,-2.0,-6.0,-10.0,-4.0,-3.0,1650849542655528.0
0.0,-1.0,0.0,3.0,0.0,11.0,1.0,-1.0,1650849542655528.0
0.0,-1.0,0.0,-1.0,-10.0,-15.0,-3.0,0.0,1650849542669561.0
-2.0,0.0,1.0,0.0,7.0,-1.0,-1.0,0.0,1650849542669561.0
1.0,0.0,1.0,2.0,0.0,8.0,3.0,1.0,1650849542677593.0
0.0,-1.0,-3.0,-2.0,2.0,-4.0,-1.0,0.0,1650849542677593.0
0.0,-1.0,-1.0,-2.0,-2.0,-7.0,-2.0,-2.0,1650849542692697.0
-2.0,-2.0,0.0,-2.0,-4.0,-6.0,-1.0,-2.0,1650849542692697.0
-1.0,-2.0,1.0,1.0,4.0,15.0,0.0,0.0,1650849542692697.0
-1.0,-1.0,-1.0,-2.0,-11.0,-7.0,0.0,1.0,1650849542692697.0
1.0,1.0,-2.0,0.0,5.0,4.0,2.0,-1.0,1650849542714712.0
0.0,1.0,-1.0,-1.0,-3.0,2.0,0.0,-1.0,1650849542714712.0
0.0,-1.0,-2.0,-1.0,10.0,-1.0,-1.0,-1.0,1650849542715705.0
-3.0,-5.0,-2.0,-4.0,-10.0,-25.0,-7.0,-3.0,1650849542715705.0
-1.0,-1.0,1.0,1.0,9.0,33.0,3.0,2.0,1650849542728675.0
-1.0,-1.0,-1.0,-2.0,-18.0,-10.0,1.0,-1.0,1650849542728675.0
0.0,0.0,1.0,2.0,14.0,4.0,-1.0,0.0,1650849542737938.0
1.0,0.0,1.0,-1.0,8.0,10.0,2.0,0.0,1650849542737938.0
-2.0,0.0,0.0,-1.0,-10.0,-19.0,-6.0,-1.0,1650849542752860.0
-1.0,-2.0,-2.0,0.0,5.0,1.0,-2.0,-1.0,1650849542752860.0
0.0,1.0,-1.0,-2.0,-14.0,-2.0,1.0,0.0,1650849542752860.0
-2.0,-1.0,-2.0,0.0,-1.0,-6.0,-2.0,1.0,1650849542752860.0
0.0,-2.0,-2.0,0.0,10.0,14.0,1.0,-1.0,1650849542774795.0
1.0,0.0,1.0,-1.0,-4.0,-5.0,0.0,-1.0,1650849542774795.0
0.0,0.0,0.0,1.0,-12.0,-4.0,0.0,2.0,1650849542775793.0
0.0,1.0,2.0,3.0,17.0,10.0,1.0,-1.0,1650849542775793.0
0.0,-3.0,1.0,-4.0,-7.0,-16.0,-3.0,-2.0,1650849542788785.0
-1.0,1.0,-1.0,0.0,9.0,17.0,3.0,1.0,1650849542788785.0
0.0,-1.0,-1.0,-3.0,-6.0,-16.0,-5.0,-2.0,1650849542797765.0
-1.0,0.0,-2.0,0.0,-3.0,2.0,1.0,-1.0,1650849542797765.0
-1.0,-3.0,0.0,-1.0,2.0,11.0,1.0,0.0,1650849542811843.0
0.0,0.0,-2.0,1.0,-6.0,-11.0,-3.0,0.0,1650849542811843.0
1.0,0.0,3.0,2.0,-6.0,2.0,2.0,-1.0,1650849542812821.0
1.0,0.0,0.0,4.0,22.0,22.0,2.0,0.0,1650849542812821.0
-2.0,-1.0,-1.0,-3.0,-9.0,-18.0,-3.0,0.0,1650849542834817.0
-1.0,-2.0,-1.0,-1.0,-7.0,-5.0,-2.0,-3.0,1650849542834817.0
-2.0,-1.0,-3.0,-2.0,-4.0,2.0,-1.0,0.0,1650849542835751.0
0.0,0.0,-1.0,-3.0,-8.0,-8.0,-3.0,0.0,1650849542835751.0
-1.0,-1.0,2.0,2.0,-2.0,-14.0,-3.0,0.0,1650849542848743.0
0.0,-1.0,1.0,0.0,14.0,23.0,3.0,0.0,1650849542848743.0
-1.0,0.0,0.0,-4.0,-4.0,-6.0,-1.0,-1.0,1650849542864700.0
-1.0,-2.0,-2.0,1.0,-2.0,0.0,-1.0,-1.0,1650849542864700.0
1.0,0.0,0.0,-3.0,-4.0,-14.0,-3.0,0.0,1650849542872718.0
1.0,-1.0,-1.0,-1.0,0.0,12.0,9.0,1.0,1650849542872718.0
0.0,-1.0,1.0,2.0,7.0,6.0,3.0,0.0,1650849542872718.0
3.0,1.0,0.0,2.0,7.0,10.0,3.0,0.0,1650849542872718.0
0.0,-1.0,-1.0,-3.0,-6.0,-10.0,-2.0,-2.0,1650849542894744.0
-1.0,-2.0,-2.0,-1.0,-4.0,-19.0,-8.0,-2.0,1650849542894744.0
-2.0,0.0,-3.0,1.0,-3.0,13.0,1.0,-1.0,1650849542895712.0
-1.0,2.0,0.0,2.0,0.0,1.0,2.0,1.0,1650849542895712.0
-1.0,-1.0,-1.0,2.0,9.0,5.0,1.0,0.0,1650849542908676.0
-1.0,0.0,0.0,-1.0,-1.0,-7.0,-3.0,-1.0,1650849542908676.0
0.0,-3.0,-1.0,-5.0,-11.0,-16.0,-5.0,0.0,1650849542917654.0
-1.0,1.0,0.0,-4.0,-6.0,10.0,-1.0,0.0,1650849542917654.0
1.0,1.0,-2.0,-1.0,0.0,0.0,2.0,1.0,1650849542932640.0
-1.0,0.0,1.0,0.0,1.0,-11.0,-4.0,-1.0,1650849542932640.0
0.0,0.0,-1.0,0.0,-1.0,4.0,1.0,-1.0,1650849542933611.0
-1.0,-2.0,0.0,-2.0,-5.0,-21.0,-5.0,-4.0,1650849542933611.0
0.0,1.0,-2.0,1.0,5.0,25.0,-1.0,-1.0,1650849542954622.0
0.0,-1.0,0.0,-4.0,-3.0,2.0,3.0,1.0,1650849542954622.0
-1.0,-1.0,-1.0,-2.0,-11.0,-12.0,-4.0,0.0,1650849542955552.0
1.0,1.0,1.0,4.0,1.0,2.0,1.0,1.0,1650849542955552.0
0.0,1.0,1.0,3.0,19.0,2.0,1.0,-1.0,1650849542985980.0
-1.0,0.0,-3.0,-1.0,-3.0,-11.0,-5.0,1.0,1650849542985980.0
-2.0,0.0,-1.0,-2.0,3.0,7.0,-1.0,0.0,1650849542985980.0
0.0,-1.0,-1.0,-1.0,5.0,2.0,0.0,0.0,1650849542985980.0
0.0,-2.0,-1.0,-3.0,-14.0,-8.0,-1.0,-2.0,1650849542991820.0
0.0,0.0,0.0,0.0,5.0,6.0,0.0,0.0,1650849542991820.0
0.0,-2.0,-1.0,-2.0,2.0,-8.0,0.0,-1.0,1650849542992816.0
-2.0,0.0,1.0,-2.0,-12.0,-4.0,-1.0,-1.0,1650849542992816.0
-1.0,1.0,1.0,-1.0,-1.0,0.0,0.0,1.0,1650849543014785.0
-1.0,0.0,-1.0,0.0,4.0,3.0,-1.0,-1.0,1650849543014785.0
0.0,0.0,1.0,-1.0,-2.0,4.0,1.0,-1.0,1650849543015756.0
0.0,-2.0,-2.0,-1.0,7.0,0.0,-1.0,-1.0,1650849543015756.0
0.0,0.0,0.0,-1.0,-5.0,-15.0,-4.0,-2.0,1650849543037886.0
-1.0,0.0,-1.0,0.0,4.0,23.0,-1.0,-2.0,1650849543037886.0
-2.0,0.0,-1.0,-2.0,-10.0,-9.0,0.0,0.0,1650849543038824.0
0.0,-1.0,0.0,0.0,-2.0,3.0,0.0,0.0,1650849543038824.0
1.0,1.0,0.0,-2.0,-4.0,-12.0,-3.0,0.0,1650849543052777.0
0.0,0.0,0.0,1.0,-3.0,-4.0,-3.0,-2.0,1650849543052777.0
0.0,1.0,-2.0,2.0,21.0,13.0,3.0,0.0,1650849543052777.0
-2.0,-2.0,-2.0,-5.0,-18.0,-5.0,-3.0,-2.0,1650849543052777.0
-1.0,0.0,0.0,2.0,1.0,0.0,0.0,0.0,1650849543074718.0
0.0,0.0,1.0,-1.0,-9.0,-13.0,-3.0,-1.0,1650849543074718.0
1.0,-1.0,0.0,2.0,8.0,5.0,0.0,0.0,1650849543075717.0
1.0,0.0,-2.0,-1.0,6.0,1.0,-2.0,0.0,1650849543075717.0
-2.0,-2.0,-4.0,-3.0,-6.0,2.0,2.0,1.0,1650849543096688.0
0.0,-2.0,-2.0,-1.0,4.0,6.0,2.0,0.0,1650849543096688.0
-2.0,-1.0,0.0,1.0,-3.0,-4.0,-4.0,-1.0,1650849543104830.0
0.0,-1.0,-2.0,-2.0,-7.0,-14.0,-4.0,-1.0,1650849543104830.0
0.0,-1.0,-1.0,0.0,0.0,3.0,-5.0,-2.0,1650849543112789.0
-1.0,0.0,-3.0,1.0,7.0,1.0,-1.0,0.0,1650849543112789.0
-1.0,-2.0,-3.0,-4.0,-16.0,0.0,0.0,-1.0,1650849543112789.0
2.0,1.0,2.0,3.0,16.0,10.0,4.0,2.0,1650849543112789.0
-1.0,1.0,-1.0,1.0,-4.0,2.0,2.0,0.0,1650849543142804.0
0.0,-2.0,0.0,-2.0,-1.0,-10.0,-1.0,1.0,1650849543142804.0
-1.0,-2.0,-2.0,-2.0,5.0,-8.0,-1.0,-2.0,1650849543143774.0
-2.0,-1.0,-2.0,-3.0,-14.0,-4.0,-1.0,-3.0,1650849543143774.0
-2.0,-1.0,-2.0,-2.0,-21.0,-10.0,0.0,-1.0,1650849543157762.0
0.0,2.0,1.0,4.0,30.0,18.0,3.0,1.0,1650849543157762.0
0.0,0.0,-2.0,0.0,-1.0,13.0,1.0,2.0,1650849543158732.0
0.0,0.0,-1.0,0.0,3.0,-2.0,0.0,-1.0,1650849543158732.0
-2.0,-2.0,-1.0,-1.0,3.0,-4.0,-3.0,-1.0,1650849543172788.0
-1.0,-2.0,-2.0,-4.0,-15.0,-7.0,2.0,0.0,1650849543172788.0
0.0,-1.0,0.0,0.0,-2.0,-13.0,-2.0,-1.0,1650849543172788.0
-1.0,1.0,1.0,0.0,2.0,17.0,0.0,-1.0,1650849543172788.0
0.0,0.0,1.0,-3.0,3.0,-10.0,-1.0,-2.0,1650849543194664.0
0.0,-1.0,0.0,-1.0,-6.0,-4.0,-2.0,-3.0,1650849543194664.0
1.0,0.0,0.0,1.0,8.0,9.0,2.0,1.0,1650849543195686.0
1.0,-2.0,-1.0,-3.0,-15.0,-11.0,-3.0,0.0,1650849543195686.0
0.0,1.0,2.0,0.0,3.0,11.0,2.0,1.0,1650849543217577.0
-2.0,-1.0,0.0,3.0,8.0,2.0,2.0,-1.0,1650849543217577.0
-2.0,-2.0,0.0,-4.0,-3.0,-8.0,-4.0,-4.0,1650849543218573.0
-3.0,-2.0,-2.0,-2.0,-5.0,-11.0,-3.0,-1.0,1650849543218573.0
0.0,0.0,0.0,2.0,8.0,16.0,3.0,0.0,1650849543232535.0
1.0,-1.0,2.0,3.0,2.0,20.0,9.0,1.0,1650849543232535.0
0.0,-1.0,-1.0,1.0,7.0,-2.0,-1.0,0.0,1650849543233533.0
0.0,0.0,-2.0,-2.0,-2.0,-8.0,-3.0,0.0,1650849543233533.0
-1.0,-1.0,-2.0,-2.0,-5.0,-8.0,-3.0,-2.0,1650849543254565.0
-1.0,-1.0,-1.0,-4.0,-12.0,-9.0,-5.0,-1.0,1650849543254565.0
0.0,1.0,1.0,0.0,6.0,5.0,1.0,-1.0,1650849543255565.0
1.0,-2.0,-2.0,1.0,-1.0,-5.0,0.0,-2.0,1650849543255565.0
0.0,0.0,1.0,1.0,-4.0,6.0,0.0,0.0,1650849543277535.0
0.0,1.0,1.0,-1.0,0.0,-8.0,-3.0,0.0,1650849543277535.0
-2.0,0.0,-1.0,1.0,0.0,1.0,-2.0,0.0,1650849543278530.0
-2.0,-1.0,-1.0,-1.0,-1.0,0.0,2.0,0.0,1650849543278530.0
-1.0,-2.0,0.0,-1.0,-2.0,-1.0,0.0,-1.0,1650849543300445.0
0.0,-1.0,-1.0,0.0,3.0,-2.0,0.0,0.0,1650849543300445.0
1.0,-2.0,-1.0,1.0,-1.0,-4.0,-1.0,-2.0,1650849543301443.0
-1.0,0.0,-2.0,-4.0,3.0,-17.0,-6.0,-2.0,1650849543301443.0
-2.0,-3.0,0.0,-1.0,-10.0,35.0,6.0,1.0,1650849543314435.0
0.0,1.0,-1.0,3.0,-1.0,-8.0,0.0,0.0,1650849543314435.0
0.0,0.0,1.0,-1.0,11.0,3.0,0.0,-1.0,1650849543315406.0
0.0,0.0,-1.0,-1.0,-10.0,-5.0,0.0,-1.0,1650849543315406.0
-1.0,0.0,-1.0,-1.0,4.0,-12.0,-3.0,-1.0,1650849543338411.0
-2.0,-3.0,0.0,-3.0,-11.0,-8.0,-5.0,-2.0,1650849543338411.0
-1.0,0.0,1.0,1.0,-5.0,3.0,1.0,0.0,1650849543339361.0
0.0,-1.0,1.0,-1.0,5.0,2.0,0.0,0.0,1650849543339361.0
0.0,-1.0,-1.0,1.0,-3.0,-3.0,1.0,0.0,1650849543352308.0
-1.0,-2.0,-1.0,0.0,6.0,-1.0,-2.0,-1.0,1650849543352308.0
-2.0,-1.0,-3.0,-3.0,-4.0,-4.0,-1.0,-1.0,1650849543353304.0
0.0,0.0,1.0,1.0,4.0,13.0,2.0,-1.0,1650849543353304.0
2.0,-1.0,-1.0,-1.0,-1.0,-5.0,-2.0,-1.0,1650849543375247.0
-1.0,1.0,-1.0,0.0,0.0,1.0,1.0,-2.0,1650849543375247.0
0.0,0.0,0.0,0.0,-6.0,-5.0,-2.0,-1.0,1650849543375247.0
-2.0,-1.0,0.0,2.0,4.0,-2.0,-1.0,-1.0,1650849543375247.0
0.0,1.0,-1.0,2.0,4.0,10.0,4.0,0.0,1650849543398213.0
2.0,3.0,-1.0,-1.0,-1.0,-17.0,-5.0,-2.0,1650849543398213.0
-1.0,1.0,-1.0,-2.0,4.0,25.0,7.0,2.0,1650849543399201.0
-2.0,-1.0,0.0,1.0,-7.0,0.0,0.0,-2.0,1650849543399201.0
-1.0,0.0,1.0,-2.0,7.0,-4.0,-2.0,0.0,1650849543412175.0
-1.0,-2.0,-1.0,-2.0,-13.0,-5.0,-4.0,-1.0,1650849543412175.0
1.0,-3.0,-1.0,1.0,0.0,-5.0,0.0,-1.0,1650849543413155.0
-1.0,-2.0,-3.0,-4.0,0.0,0.0,-3.0,-1.0,1650849543413155.0
-1.0,-2.0,-3.0,-2.0,-5.0,-10.0,-3.0,-2.0,1650849543435236.0
0.0,1.0,0.0,0.0,5.0,11.0,3.0,2.0,1650849543435236.0
1.0,-1.0,1.0,2.0,7.0,10.0,2.0,1.0,1650849543435236.0
0.0,-1.0,1.0,1.0,-4.0,-1.0,0.0,-1.0,1650849543435236.0
1.0,0.0,-2.0,1.0,4.0,6.0,3.0,0.0,1650849543457894.0
-1.0,-4.0,-1.0,-2.0,-7.0,-13.0,-2.0,-1.0,1650849543457894.0
0.0,-1.0,-2.0,-2.0,-4.0,-9.0,-4.0,-3.0,1650849543457894.0
0.0,0.0,0.0,1.0,-2.0,-4.0,-2.0,-3.0,1650849543457894.0
1.0,0.0,-1.0,0.0,-5.0,-2.0,3.0,0.0,1650849543472861.0
-1.0,2.0,0.0,0.0,6.0,10.0,2.0,0.0,1650849543472861.0
-1.0,-2.0,-1.0,0.0,-10.0,-15.0,-3.0,0.0,1650849543472861.0
0.0,1.0,0.0,1.0,4.0,14.0,1.0,1.0,1650849543472861.0
-2.0,-1.0,-1.0,-3.0,-5.0,-11.0,-4.0,-1.0,1650849543494822.0
-1.0,-1.0,-3.0,3.0,6.0,12.0,1.0,1.0,1650849543494822.0
0.0,0.0,-2.0,-1.0,-3.0,-17.0,-4.0,-2.0,1650849543495793.0
-2.0,-2.0,-2.0,-6.0,-7.0,6.0,1.0,-1.0,1650849543495793.0
-2.0,0.0,1.0,2.0,3.0,8.0,0.0,-1.0,1650849543517741.0
0.0,-1.0,1.0,-2.0,-2.0,-8.0,0.0,-1.0,1650849543517741.0
0.0,0.0,-1.0,-1.0,-11.0,-1.0,-1.0,-1.0,1650849543517741.0
0.0,2.0,0.0,2.0,12.0,5.0,4.0,0.0,1650849543517741.0
0.0,0.0,-2.0,1.0,4.0,-3.0,-4.0,-1.0,1650849543532693.0
1.0,-1.0,0.0,-2.0,-4.0,-4.0,-3.0,-3.0,1650849543532693.0
0.0,-2.0,-1.0,-3.0,-1.0,-3.0,-3.0,-2.0,1650849543532693.0
-1.0,-1.0,-1.0,0.0,-3.0,-10.0,-3.0,0.0,1650849543532693.0
-1.0,-1.0,-1.0,0.0,3.0,11.0,6.0,1.0,1650849543554701.0
-1.0,1.0,-1.0,-3.0,-13.0,-7.0,0.0,-1.0,1650849543554701.0
0.0,-1.0,2.0,2.0,7.0,-6.0,1.0,0.0,1650849543555632.0
2.0,0.0,2.0,4.0,23.0,26.0,1.0,3.0,1650849543555632.0
-1.0,0.0,-1.0,-2.0,-5.0,-16.0,-3.0,-2.0,1650849543577782.0
1.0,-1.0,0.0,-2.0,-16.0,-1.0,-1.0,-2.0,1650849543577782.0
-1.0,-1.0,-1.0,-1.0,-1.0,-7.0,-1.0,-1.0,1650849543577782.0
0.0,0.0,0.0,0.0,-8.0,13.0,3.0,-1.0,1650849543577782.0
1.0,-3.0,-1.0,-1.0,12.0,1.0,-2.0,0.0,1650849543591686.0
-3.0,-1.0,-2.0,-1.0,-5.0,-5.0,-2.0,-1.0,1650849543591686.0
-1.0,-1.0,-3.0,0.0,-1.0,0.0,-2.0,-1.0,1650849543599665.0
0.0,-2.0,0.0,-1.0,-3.0,-9.0,-3.0,-1.0,1650849543599665.0
-1.0,-2.0,1.0,1.0,0.0,6.0,-1.0,0.0,1650849543614628.0
1.0,-1.0,0.0,-2.0,-1.0,-12.0,-4.0,-1.0,1650849543614628.0
0.0,1.0,0.0,0.0,-3.0,15.0,7.0,2.0,1650849543615603.0
-1.0,0.0,0.0,1.0,0.0,0.0,1.0,-1.0,1650849543615603.0
1.0,1.0,0.0,0.0,6.0,6.0,2.0,0.0,1650849543637604.0
-2.0,-2.0,-2.0,-1.0,4.0,-8.0,-3.0,0.0,1650849543637604.0
-2.0,-3.0,0.0,0.0,4.0,0.0,-2.0,-1.0,1650849543638533.0
-1.0,-2.0,-2.0,-3.0,-11.0,-11.0,-1.0,-1.0,1650849543638533.0
-1.0,-1.0,-1.0,-2.0,-4.0,-6.0,-3.0,1.0,1650849543651526.0
-1.0,-1.0,-1.0,-2.0,0.0,1.0,-1.0,-1.0,1650849543651526.0
0.0,0.0,0.0,0.0,-8.0,-5.0,-2.0,-2.0,1650849543659508.0
0.0,2.0,2.0,4.0,10.0,17.0,5.0,2.0,1650849543659508.0
0.0,0.0,3.0,1.0,12.0,2.0,1.0,-2.0,1650849543674605.0
0.0,0.0,-1.0,-1.0,3.0,6.0,3.0,1.0,1650849543674605.0
-1.0,0.0,0.0,-4.0,-21.0,-9.0,-2.0,-3.0,1650849543675574.0
-1.0,-1.0,-1.0,2.0,8.0,-9.0,-3.0,-2.0,1650849543675574.0
-2.0,-1.0,-3.0,-1.0,-10.0,-4.0,-1.0,0.0,1650849543697515.0
1.0,0.0,1.0,1.0,2.0,4.0,0.0,1.0,1650849543697515.0
0.0,0.0,-1.0,1.0,7.0,5.0,1.0,1.0,1650849543698513.0
-2.0,-2.0,0.0,-4.0,-15.0,-20.0,-4.0,-1.0,1650849543698513.0
-2.0,-1.0,0.0,0.0,3.0,8.0,-2.0,-2.0,1650849543711507.0
0.0,0.0,0.0,0.0,0.0,3.0,4.0,1.0,1650849543711507.0
-1.0,-1.0,-1.0,-3.0,0.0,-3.0,-1.0,1.0,1650849543719457.0
0.0,-2.0,-3.0,-1.0,-3.0,-6.0,0.0,-1.0,1650849543719457.0
0.0,0.0,0.0,0.0,1.0,2.0,-2.0,-2.0,1650849543734417.0
-3.0,-1.0,1.0,-2.0,-2.0,-2.0,0.0,-1.0,1650849543734417.0
1.0,0.0,0.0,2.0,2.0,11.0,4.0,1.0,1650849543735415.0
1.0,1.0,0.0,2.0,10.0,0.0,1.0,0.0,1650849543735415.0
-1.0,-1.0,1.0,-3.0,-22.0,-16.0,-2.0,1.0,1650849543757511.0
1.0,0.0,1.0,2.0,25.0,17.0,2.0,2.0,1650849543757511.0
-1.0,-1.0,-1.0,-1.0,-3.0,-4.0,0.0,0.0,1650849543758467.0
-2.0,0.0,-3.0,-3.0,-5.0,-4.0,-2.0,-3.0,1650849543758467.0
-2.0,-1.0,-1.0,-2.0,-2.0,-5.0,-2.0,-1.0,1650849543771407.0
0.0,0.0,0.0,0.0,-2.0,5.0,0.0,0.0,1650849543771407.0
-2.0,-1.0,0.0,-1.0,1.0,-21.0,-6.0,-2.0,1650849543779411.0
1.0,1.0,-1.0,1.0,2.0,33.0,9.0,1.0,1650849543779411.0
0.0,0.0,0.0,0.0,1.0,-16.0,-1.0,0.0,1650849543795342.0
1.0,0.0,-2.0,3.0,9.0,16.0,3.0,0.0,1650849543795342.0
1.0,-1.0,1.0,-2.0,-3.0,-6.0,0.0,-1.0,1650849543795342.0
-1.0,-1.0,0.0,-2.0,-12.0,-9.0,-2.0,0.0,1650849543795342.0
2.0,1.0,0.0,0.0,7.0,0.0,0.0,1.0,1650849543817309.0
-2.0,-1.0,-2.0,-2.0,-7.0,-11.0,-2.0,-2.0,1650849543817309.0
0.0,-1.0,-2.0,-2.0,6.0,2.0,-3.0,0.0,1650849543818280.0
0.0,0.0,0.0,0.0,-8.0,2.0,1.0,0.0,1650849543818280.0
1.0,1.0,-1.0,1.0,-6.0,-1.0,1.0,0.0,1650849543831272.0
-1.0,-1.0,1.0,5.0,8.0,1.0,1.0,0.0,1650849543831272.0
1.0,-1.0,-1.0,0.0,11.0,15.0,2.0,1.0,1650849543840286.0
-3.0,0.0,-1.0,-3.0,1.0,-13.0,-3.0,-1.0,1650849543840286.0
-1.0,-1.0,-2.0,0.0,-5.0,-8.0,-2.0,0.0,1650849543854584.0
-1.0,-2.0,-2.0,-3.0,-11.0,-3.0,-3.0,-2.0,1650849543854584.0
-1.0,0.0,2.0,0.0,2.0,-1.0,-2.0,-1.0,1650849543855696.0
-1.0,-1.0,1.0,1.0,-7.0,20.0,8.0,3.0,1650849543855696.0
-1.0,0.0,-1.0,1.0,17.0,9.0,2.0,0.0,1650849543877667.0
-1.0,-1.0,-2.0,-2.0,-5.0,-5.0,-1.0,0.0,1650849543877667.0
-3.0,0.0,-1.0,1.0,4.0,-9.0,-2.0,-1.0,1650849543877667.0
-1.0,-1.0,-2.0,-2.0,0.0,-9.0,-6.0,-1.0,1650849543877667.0
-1.0,-2.0,-2.0,-4.0,-11.0,-1.0,-3.0,1.0,1650849543891263.0
1.0,0.0,-1.0,-1.0,-8.0,-5.0,0.0,-1.0,1650849543891263.0
0.0,1.0,0.0,1.0,-5.0,11.0,5.0,-1.0,1650849543900241.0
0.0,0.0,1.0,1.0,4.0,-11.0,0.0,2.0,1650849543900241.0
0.0,0.0,1.0,2.0,10.0,14.0,1.0,1.0,1650849543915216.0
-2.0,-2.0,0.0,-1.0,-1.0,-9.0,-4.0,-1.0,1650849543915216.0
-1.0,-3.0,-3.0,-3.0,-9.0,-3.0,-1.0,-1.0,1650849543915216.0
0.0,-1.0,-2.0,-2.0,-8.0,-14.0,-5.0,-2.0,1650849543915216.0
-2.0,-1.0,-2.0,-1.0,0.0,5.0,0.0,-1.0,1650849543937198.0
0.0,-1.0,1.0,-1.0,3.0,11.0,1.0,0.0,1650849543937198.0
0.0,0.0,-2.0,-1.0,-1.0,-8.0,-3.0,-1.0,1650849543938161.0
0.0,0.0,-2.0,-1.0,0.0,7.0,6.0,2.0,1650849543938161.0
-1.0,-1.0,2.0,1.0,-6.0,-7.0,-2.0,-2.0,1650849543960097.0
1.0,-1.0,0.0,0.0,6.0,1.0,-1.0,0.0,1650849543960097.0
1.0,-2.0,0.0,-1.0,1.0,3.0,1.0,0.0,1650849543961067.0
-2.0,0.0,0.0,-1.0,-3.0,-8.0,-4.0,-1.0,1650849543961067.0
0.0,-1.0,0.0,-1.0,-4.0,0.0,1.0,1.0,1650849543975056.0
-2.0,0.0,-1.0,-3.0,-7.0,-4.0,0.0,-2.0,1650849543975056.0
-1.0,-1.0,-1.0,-3.0,-2.0,-3.0,-1.0,-1.0,1650849543976026.0
-1.0,-2.0,-1.0,-2.0,-11.0,-15.0,-4.0,-1.0,1650849543976026.0
1.0,1.0,1.0,3.0,10.0,28.0,6.0,2.0,1650849543997995.0
2.0,-1.0,0.0,4.0,4.0,1.0,2.0,1.0,1650849543997995.0
0.0,2.0,-1.0,0.0,3.0,1.0,-2.0,2.0,1650849543998965.0
-1.0,-2.0,1.0,-3.0,0.0,-2.0,-3.0,-3.0,1650849543998965.0
-1.0,-2.0,-3.0,-3.0,-12.0,-19.0,-3.0,-2.0,1650849544020906.0
-2.0,0.0,-3.0,0.0,0.0,-4.0,-2.0,-3.0,1650849544020906.0
-1.0,0.0,1.0,-2.0,-6.0,10.0,3.0,-2.0,1650849544020906.0
1.0,0.0,1.0,3.0,14.0,-8.0,-3.0,-1.0,1650849544020906.0
0.0,0.0,1.0,0.0,-1.0,14.0,5.0,0.0,1650849544034868.0
-1.0,2.0,-1.0,-2.0,-11.0,-10.0,-4.0,0.0,1650849544034868.0
1.0,-3.0,1.0,1.0,6.0,9.0,0.0,1.0,1650849544035876.0
1.0,0.0,0.0,2.0,4.0,7.0,1.0,0.0,1650849544035876.0
-1.0,-3.0,0.0,-1.0,0.0,-8.0,-4.0,-1.0,1650849544056912.0
-1.0,-2.0,-1.0,-3.0,-6.0,-13.0,-3.0,-2.0,1650849544056912.0
-1.0,0.0,0.0,0.0,0.0,14.0,2.0,-1.0,1650849544057912.0
-1.0,-1.0,-2.0,-2.0,1.0,-2.0,-3.0,-3.0,1650849544057912.0
0.0,-2.0,-1.0,-1.0,3.0,8.0,-3.0,-1.0,1650849544080879.0
-1.0,0.0,-1.0,-4.0,-11.0,-8.0,0.0,0.0,1650849544080879.0
-2.0,-1.0,-1.0,2.0,-5.0,-17.0,-6.0,-2.0,1650849544080879.0
1.0,1.0,1.0,4.0,24.0,35.0,7.0,2.0,1650849544080879.0
-1.0,0.0,-2.0,-3.0,-14.0,-16.0,-1.0,-1.0,1650849544094840.0
0.0,-1.0,-1.0,2.0,5.0,2.0,-2.0,-2.0,1650849544094840.0
0.0,-1.0,-2.0,-3.0,-9.0,-12.0,0.0,-1.0,1650849544095837.0
-1.0,0.0,1.0,-1.0,8.0,10.0,1.0,1.0,1650849544095837.0
0.0,-1.0,-2.0,-1.0,-4.0,-9.0,-3.0,-1.0,1650849544117779.0
0.0,0.0,0.0,-1.0,4.0,7.0,2.0,3.0,1650849544117779.0
-1.0,-2.0,-1.0,-2.0,-3.0,-4.0,-1.0,0.0,1650849544117779.0
-1.0,-1.0,0.0,-3.0,-16.0,-32.0,-7.0,-3.0,1650849544117779.0
0.0,1.0,-1.0,2.0,7.0,26.0,1.0,-1.0,1650849544140690.0
2.0,0.0,1.0,2.0,7.0,3.0,4.0,0.0,1650849544140690.0
-1.0,-1.0,-1.0,0.0,-9.0,-4.0,-2.0,0.0,1650849544141714.0
1.0,-1.0,-1.0,-1.0,9.0,3.0,-1.0,-1.0,1650849544141714.0
-1.0,-3.0,-1.0,-2.0,-8.0,-19.0,-4.0,0.0,1650849544154672.0
-1.0,-1.0,0.0,-1.0,6.0,5.0,0.0,-2.0,1650849544154672.0
-3.0,0.0,-1.0,0.0,3.0,1.0,2.0,1.0,1650849544155650.0
-2.0,-1.0,-2.0,-1.0,-4.0,-3.0,0.0,-1.0,1650849544155650.0
-1.0,1.0,0.0,-3.0,0.0,-5.0,1.0,-2.0,1650849544177612.0
-1.0,-1.0,1.0,0.0,-6.0,-9.0,-4.0,-2.0,1650849544177612.0
0.0,2.0,1.0,3.0,15.0,26.0,3.0,0.0,1650849544177612.0
-4.0,-1.0,-3.0,-6.0,-18.0,-21.0,-6.0,-1.0,1650849544177612.0
0.0,1.0,0.0,-1.0,3.0,28.0,5.0,2.0,1650849544200058.0
1.0,1.0,1.0,2.0,2.0,-2.0,3.0,1.0,1650849544200058.0
0.0,-1.0,-1.0,0.0,3.0,-11.0,-3.0,-1.0,1650849544201045.0
0.0,0.0,-2.0,-1.0,-4.0,0.0,-1.0,-2.0,1650849544201045.0
-1.0,-3.0,-1.0,-1.0,1.0,-10.0,-4.0,-3.0,1650849544214998.0
-2.0,-2.0,-5.0,-4.0,-6.0,-5.0,-4.0,-1.0,1650849544214998.0
0.0,-1.0,-3.0,-2.0,-9.0,-7.0,-1.0,-2.0,1650849544215995.0
1.0,0.0,0.0,2.0,5.0,12.0,4.0,1.0,1650849544215995.0
0.0,1.0,2.0,2.0,8.0,-8.0,1.0,0.0,1650849544237110.0
1.0,0.0,-2.0,-1.0,0.0,-1.0,0.0,-1.0,1650849544237110.0
-1.0,-2.0,0.0,-3.0,-11.0,-15.0,-5.0,-2.0,1650849544238040.0
1.0,1.0,-1.0,3.0,20.0,31.0,9.0,1.0,1650849544238040.0
-1.0,-1.0,-2.0,-6.0,-12.0,-22.0,-4.0,-2.0,1650849544261035.0
-1.0,-2.0,1.0,4.0,6.0,17.0,2.0,0.0,1650849544261035.0
0.0,-1.0,-2.0,1.0,1.0,-9.0,-2.0,1.0,1650849544261035.0
0.0,-2.0,-1.0,-2.0,-13.0,0.0,-5.0,-1.0,1650849544261035.0
-2.0,-1.0,-1.0,1.0,-2.0,-7.0,2.0,0.0,1650849544274996.0
-1.0,0.0,2.0,0.0,4.0,-1.0,-1.0,0.0,1650849544274996.0
1.0,-1.0,0.0,-1.0,-1.0,2.0,2.0,-1.0,1650849544275993.0
-1.0,0.0,1.0,-3.0,0.0,-8.0,-4.0,-1.0,1650849544275993.0
0.0,0.0,-2.0,-1.0,-2.0,2.0,-2.0,-1.0,1650849544297248.0
0.0,0.0,-2.0,-3.0,-17.0,-2.0,0.0,1.0,1650849544297248.0
0.0,1.0,0.0,2.0,12.0,12.0,3.0,2.0,1650849544298178.0
0.0,-2.0,1.0,1.0,-6.0,-9.0,-1.0,0.0,1650849544298178.0
-1.0,1.0,0.0,0.0,1.0,2.0,-2.0,-1.0,1650849544320601.0
0.0,0.0,-1.0,-3.0,-8.0,-31.0,-6.0,-2.0,1650849544320601.0
0.0,0.0,-1.0,1.0,11.0,55.0,8.0,0.0,1650849544321594.0
-1.0,-2.0,-1.0,-2.0,1.0,-4.0,0.0,0.0,1650849544321594.0
-2.0,-1.0,-1.0,-3.0,-8.0,-11.0,-4.0,-1.0,1650849544334586.0
0.0,-1.0,-1.0,-1.0,-17.0,-4.0,-1.0,-2.0,1650849544334586.0
-1.0,1.0,0.0,3.0,20.0,-11.0,-2.0,-3.0,1650849544335556.0
1.0,-1.0,0.0,-1.0,-2.0,0.0,-1.0,-1.0,1650849544335556.0
-1.0,1.0,-1.0,0.0,2.0,5.0,2.0,2.0,1650849544357564.0
-2.0,0.0,0.0,-2.0,2.0,0.0,-1.0,1.0,1650849544357564.0
-1.0,0.0,0.0,-4.0,-10.0,-12.0,0.0,-1.0,1650849544358515.0
-2.0,-1.0,0.0,-1.0,-8.0,1.0,0.0,-1.0,1650849544358515.0
2.0,0.0,-1.0,-1.0,11.0,-2.0,-2.0,-2.0,1650849544380659.0
-1.0,-1.0,0.0,-2.0,3.0,8.0,1.0,1.0,1650849544380659.0
0.0,-2.0,0.0,0.0,-7.0,-4.0,-1.0,1.0,1650849544381672.0
0.0,0.0,-1.0,2.0,1.0,-1.0,0.0,0.0,1650849544381672.0
2.0,-1.0,0.0,0.0,-11.0,-4.0,-2.0,-2.0,1650849544394790.0
0.0,-3.0,-2.0,3.0,7.0,5.0,1.0,1.0,1650849544394790.0
-1.0,1.0,-1.0,0.0,2.0,-1.0,-1.0,-1.0,1650849544395720.0
-1.0,0.0,0.0,-6.0,-9.0,-30.0,-6.0,-1.0,1650849544395720.0
-1.0,-2.0,-1.0,0.0,1.0,12.0,0.0,-1.0,1650849544416993.0
0.0,2.0,1.0,4.0,16.0,41.0,9.0,1.0,1650849544416993.0
-2.0,0.0,-1.0,-4.0,-6.0,-15.0,-4.0,0.0,1650849544417930.0
2.0,0.0,1.0,0.0,-7.0,0.0,-1.0,-1.0,1650849544417930.0
-1.0,-2.0,-1.0,-1.0,0.0,-13.0,-3.0,-1.0,1650849544439932.0
-1.0,-2.0,-1.0,0.0,1.0,-11.0,-3.0,-1.0,1650849544439932.0
-1.0,-1.0,-1.0,-1.0,-7.0,5.0,0.0,1.0,1650849544446874.0
-1.0,0.0,0.0,-1.0,1.0,4.0,0.0,-1.0,1650849544446874.0
0.0,-1.0,3.0,0.0,2.0,-1.0,-1.0,0.0,1650849544455278.0
0.0,0.0,-1.0,-1.0,2.0,6.0,1.0,-2.0,1650849544455278.0
2.0,-2.0,-1.0,-1.0,-1.0,-4.0,-2.0,-1.0,1650849544455866.0
-2.0,-1.0,-3.0,-2.0,-5.0,-25.0,-8.0,-3.0,1650849544455866.0
1.0,1.0,-1.0,3.0,7.0,46.0,5.0,0.0,1650849544476817.0
1.0,0.0,0.0,-3.0,-6.0,-14.0,0.0,-1.0,1650849544476817.0
0.0,1.0,0.0,-2.0,-8.0,-6.0,-1.0,-1.0,1650849544477810.0
-1.0,-1.0,1.0,-1.0,4.0,1.0,0.0,1.0,1650849544477810.0
-1.0,-1.0,-2.0,0.0,0.0,-16.0,-4.0,0.0,1650849544500875.0
-1.0,0.0,-1.0,-3.0,-4.0,-5.0,-4.0,0.0,1650849544500875.0
0.0,-1.0,0.0,-2.0,-5.0,0.0,0.0,-1.0,1650849544500875.0
-1.0,-1.0,0.0,1.0,13.0,9.0,2.0,0.0,1650849544500875.0
-2.0,-2.0,0.0,-1.0,-5.0,-6.0,1.0,-1.0,1650849544513840.0
0.0,-1.0,-3.0,-2.0,-14.0,-4.0,0.0,-1.0,1650849544513840.0
-1.0,1.0,0.0,3.0,7.0,3.0,1.0,0.0,1650849544522856.0
1.0,0.0,-1.0,1.0,3.0,6.0,0.0,0.0,1650849544522856.0
0.0,-1.0,-2.0,-2.0,0.0,-11.0,0.0,0.0,1650849544537749.0
-1.0,-3.0,0.0,1.0,6.0,22.0,1.0,0.0,1650849544537749.0
1.0,-1.0,0.0,-3.0,-5.0,-3.0,0.0,0.0,1650849544537749.0
-1.0,-1.0,-1.0,1.0,-6.0,-4.0,-3.0,1.0,1650849544537749.0
0.0,-1.0,-1.0,1.0,2.0,2.0,-2.0,-1.0,1650849544560805.0
-2.0,-1.0,0.0,-5.0,-4.0,-14.0,-4.0,-2.0,1650849544560805.0
-1.0,0.0,-3.0,2.0,-4.0,-3.0,-3.0,0.0,1650849544560805.0
0.0,-1.0,1.0,-2.0,3.0,11.0,3.0,-2.0,1650849544560805.0
0.0,-1.0,-2.0,-3.0,-7.0,-17.0,-2.0,-1.0,1650849544573869.0
-1.0,-1.0,-2.0,-1.0,-4.0,1.0,-2.0,-2.0,1650849544573869.0
0.0,1.0,-1.0,1.0,10.0,8.0,3.0,2.0,1650849544581849.0
1.0,0.0,-1.0,-1.0,1.0,0.0,0.0,-3.0,1650849544581849.0
0.0,0.0,0.0,1.0,8.0,7.0,1.0,1.0,1650849544597806.0
-1.0,-2.0,0.0,-1.0,-9.0,-17.0,-1.0,-2.0,1650849544597806.0
-1.0,-2.0,-1.0,0.0,6.0,12.0,1.0,-1.0,1650849544597806.0
0.0,-1.0,2.0,1.0,-2.0,2.0,3.0,2.0,1650849544597806.0
-1.0,1.0,3.0,0.0,-2.0,4.0,0.0,1.0,1650849544620745.0
1.0,1.0,0.0,0.0,8.0,9.0,2.0,1.0,1650849544620745.0
-2.0,0.0,-2.0,-4.0,-11.0,-22.0,-6.0,-3.0,1650849544621778.0
-2.0,-2.0,-4.0,-1.0,1.0,3.0,-1.0,-1.0,1650849544621778.0
0.0,-1.0,-2.0,-2.0,-5.0,-1.0,2.0,0.0,1650849544633738.0
0.0,0.0,0.0,1.0,-4.0,-7.0,-1.0,0.0,1650849544633738.0
-1.0,-2.0,-1.0,0.0,2.0,-7.0,-2.0,-2.0,1650849544642687.0
-2.0,1.0,-1.0,1.0,4.0,29.0,6.0,2.0,1650849544642687.0
-2.0,0.0,2.0,-4.0,-4.0,-7.0,-1.0,-2.0,1650849544657504.0
0.0,1.0,0.0,0.0,-9.0,-3.0,-6.0,-6.0,1650849544657504.0
1.0,-5.0,-1.0,3.0,11.0,7.0,9.0,8.0,1650849544658433.0
0.0,4.0,-4.0,-3.0,4.0,-6.0,-4.0,2.0,1650849544658433.0
-1.0,-1.0,-2.0,-3.0,-8.0,-6.0,3.0,5.0,1650849544680462.0
0.0,-1.0,0.0,3.0,6.0,7.0,2.0,-2.0,1650849544680462.0
0.0,3.0,3.0,5.0,0.0,6.0,-3.0,-4.0,1650849544681481.0
-5.0,0.0,-2.0,-12.0,-16.0,-23.0,-1.0,-3.0,1650849544681481.0
3.0,-9.0,-7.0,0.0,10.0,25.0,4.0,3.0,1650849544694452.0
-3.0,-4.0,-1.0,-1.0,-7.0,-15.0,-5.0,-2.0,1650849544694452.0
-3.0,4.0,3.0,1.0,4.0,2.0,-4.0,-5.0,1650849544702404.0
-1.0,-7.0,1.0,4.0,1.0,13.0,7.0,-2.0,1650849544702404.0
3.0,16.0,4.0,2.0,2.0,-5.0,-8.0,2.0,1650849544717392.0
3.0,4.0,-2.0,-3.0,4.0,7.0,2.0,0.0,1650849544717392.0
-3.0,-5.0,-1.0,-2.0,-10.0,-14.0,-2.0,-1.0,1650849544725388.0
-6.0,-9.0,-8.0,1.0,-2.0,-5.0,-14.0,-16.0,1650849544725388.0
-3.0,54.0,37.0,3.0,-3.0,1.0,-2.0,-14.0,1650849544740418.0
6.0,-42.0,-41.0,2.0,9.0,8.0,32.0,32.0,1650849544740418.0
13.0,31.0,4.0,-2.0,-3.0,-2.0,-3.0,7.0,1650849544741347.0
9.0,1.0,5.0,-4.0,-7.0,-11.0,14.0,14.0,1650849544741347.0
2.0,-13.0,-19.0,0.0,1.0,-11.0,-19.0,-7.0,1650849544754313.0
-10.0,5.0,11.0,-4.0,-8.0,-3.0,-10.0,-16.0,1650849544754313.0
-6.0,2.0,0.0,2.0,15.0,30.0,3.0,-6.0,1650849544762319.0
-6.0,-15.0,3.0,5.0,0.0,1.0,-1.0,-1.0,1650849544762319.0
1.0,-5.0,-18.0,-5.0,1.0,-11.0,-1.0,-3.0,1650849544777400.0
-3.0,11.0,20.0,3.0,4.0,-2.0,-1.0,-3.0,1650849544777400.0
-7.0,-23.0,-12.0,-8.0,-10.0,-9.0,-4.0,-4.0,1650849544778391.0
3.0,2.0,1.0,3.0,-1.0,-2.0,7.0,4.0,1650849544778391.0
6.0,16.0,22.0,6.0,-1.0,4.0,15.0,16.0,1650849544808357.0
-9.0,-45.0,-9.0,-9.0,-3.0,0.0,-17.0,-13.0,1650849544808357.0
-4.0,8.0,-22.0,-9.0,-6.0,2.0,-1.0,-6.0,1650849544808357.0
-7.0,-14.0,-7.0,2.0,0.0,-6.0,-19.0,-9.0,1650849544808357.0
17.0,26.0,12.0,17.0,6.0,-4.0,18.0,21.0,1650849544814295.0
11.0,10.0,10.0,5.0,5.0,3.0,24.0,27.0,1650849544814295.0
-11.0,-2.0,14.0,-3.0,-12.0,-5.0,-25.0,-21.0,1650849544822257.0
2.0,33.0,3.0,-6.0,4.0,-4.0,6.0,-10.0,1650849544822257.0
-8.0,-54.0,-26.0,-22.0,-8.0,18.0,10.0,11.0,1650849544837213.0
-14.0,26.0,11.0,8.0,1.0,-1.0,-17.0,-21.0,1650849544837213.0
11.0,-5.0,13.0,12.0,4.0,-21.0,-7.0,7.0,1650849544838212.0
-1.0,15.0,-23.0,-1.0,4.0,25.0,-13.0,-23.0,1650849544838212.0
-3.0,1.0,-1.0,-6.0,-10.0,-21.0,-1.0,-10.0,1650849544860151.0
-1.0,9.0,-23.0,-22.0,-19.0,-1.0,-2.0,7.0,1650849544860151.0
-16.0,-72.0,-10.0,3.0,8.0,5.0,-13.0,-2.0,1650849544861155.0
11.0,14.0,4.0,1.0,1.0,-5.0,9.0,6.0,1650849544861155.0
-10.0,-42.0,-5.0,-3.0,-1.0,-4.0,3.0,31.0,1650849544883201.0
14.0,35.0,15.0,8.0,6.0,9.0,4.0,-13.0,1650849544883201.0
-7.0,-18.0,-7.0,-3.0,-1.0,-5.0,2.0,-4.0,1650849544884171.0
4.0,48.0,27.0,6.0,1.0,2.0,4.0,-1.0,1650849544884171.0
-6.0,-26.0,-9.0,7.0,10.0,18.0,17.0,16.0,1650849544897135.0
-12.0,-10.0,0.0,3.0,7.0,0.0,-11.0,-35.0,1650849544897135.0
8.0,28.0,4.0,-8.0,-15.0,-25.0,-33.0,-11.0,1650849544898133.0
25.0,-21.0,-15.0,-4.0,-1.0,4.0,11.0,30.0,1650849544898133.0
-17.0,14.0,-1.0,-3.0,-9.0,-18.0,3.0,-8.0,1650849544919252.0
-2.0,-24.0,-1.0,-2.0,2.0,5.0,-11.0,6.0,1650849544919252.0
-28.0,23.0,14.0,-1.0,-3.0,0.0,11.0,-16.0,1650849544927270.0
20.0,44.0,-5.0,2.0,-2.0,1.0,1.0,15.0,1650849544927270.0
-11.0,-49.0,-19.0,-7.0,-10.0,-14.0,-31.0,-40.0,1650849544943228.0
15.0,12.0,7.0,8.0,9.0,-6.0,-1.0,31.0,1650849544943228.0
-14.0,-7.0,-5.0,-1.0,5.0,7.0,-27.0,-37.0,1650849544944186.0
-16.0,-10.0,4.0,3.0,-5.0,5.0,20.0,11.0,1650849544944186.0
-2.0,21.0,19.0,-1.0,-4.0,1.0,-13.0,-24.0,1650849544957190.0
0.0,-13.0,-10.0,-6.0,-1.0,-5.0,18.0,10.0,1650849544957190.0
28.0,17.0,6.0,4.0,-2.0,-7.0,30.0,49.0,1650849544958121.0
-23.0,-27.0,-9.0,-9.0,-2.0,-8.0,-24.0,-30.0,1650849544958121.0
-7.0,-53.0,-34.0,-3.0,-2.0,6.0,1.0,-6.0,1650849544980886.0
-5.0,6.0,0.0,-5.0,-3.0,-9.0,0.0,6.0,1650849544980886.0
15.0,-3.0,1.0,5.0,1.0,6.0,9.0,7.0,1650849544981883.0
0.0,2.0,12.0,10.0,9.0,2.0,-8.0,-6.0,1650849544981883.0
14.0,38.0,2.0,3.0,-1.0,7.0,25.0,25.0,1650849545002855.0
-9.0,18.0,6.0,-9.0,-12.0,-18.0,-20.0,-12.0,1650849545002855.0
3.0,2.0,1.0,0.0,7.0,29.0,16.0,3.0,1650849545003826.0
-11.0,-16.0,-6.0,-18.0,-16.0,-14.0,-7.0,-6.0,1650849545003826.0
-4.0,8.0,7.0,12.0,16.0,7.0,-31.0,-14.0,1650849545017787.0
8.0,7.0,21.0,18.0,17.0,5.0,22.0,-13.0,1650849545017787.0
9.0,-14.0,-15.0,-6.0,-5.0,2.0,-7.0,19.0,1650849545017787.0
-3.0,-31.0,-7.0,6.0,14.0,2.0,8.0,-11.0,1650849545017787.0
-5.0,32.0,14.0,2.0,-5.0,-12.0,-21.0,-17.0,1650849545047707.0
-14.0,-38.0,-15.0,-16.0,-10.0,3.0,-21.0,-28.0,1650849545047707.0
-12.0,8.0,-13.0,-1.0,0.0,3.0,18.0,16.0,1650849545048707.0
27.0,-1.0,24.0,8.0,4.0,-1.0,-2.0,25.0,1650849545048707.0
9.0,6.0,-4.0,-9.0,-4.0,-11.0,-13.0,-13.0,1650849545062695.0
-12.0,16.0,1.0,5.0,0.0,3.0,-2.0,-9.0,1650849545062695.0
-1.0,-5.0,-8.0,-2.0,-6.0,-20.0,15.0,-9.0,1650849545063666.0
-8.0,5.0,16.0,-2.0,-1.0,18.0,12.0,3.0,1650849545063666.0
5.0,-9.0,-2.0,-9.0,-6.0,-8.0,3.0,13.0,1650849545085634.0
-7.0,-4.0,1.0,0.0,-10.0,-2.0,0.0,4.0,1650849545085634.0
0.0,11.0,1.0,-4.0,1.0,-9.0,0.0,6.0,1650849545086624.0
-1.0,12.0,1.0,-4.0,-3.0,-9.0,-2.0,0.0,1650849545086624.0
-3.0,12.0,13.0,9.0,2.0,5.0,-5.0,-10.0,1650849545100574.0
-1.0,-49.0,-19.0,8.0,19.0,5.0,9.0,4.0,1650849545100574.0
9.0,1.0,-17.0,-8.0,0.0,2.0,-23.0,-3.0,1650849545101563.0
-9.0,-9.0,12.0,9.0,-11.0,-8.0,19.0,-2.0,1650849545101563.0
1.0,-10.0,-19.0,-11.0,-8.0,-7.0,-6.0,10.0,1650849545123516.0
-1.0,29.0,3.0,1.0,-6.0,0.0,7.0,16.0,1650849545123516.0
3.0,26.0,22.0,6.0,3.0,2.0,1.0,-10.0,1650849545123516.0
-9.0,-11.0,-19.0,-4.0,3.0,8.0,-13.0,2.0,1650849545123516.0
13.0,42.0,-1.0,-4.0,2.0,2.0,33.0,13.0,1650849545137468.0
-8.0,8.0,14.0,-5.0,-7.0,1.0,1.0,16.0,1650849545137468.0
5.0,-10.0,-18.0,7.0,-1.0,-3.0,-11.0,-39.0,1650849545138486.0
-16.0,-12.0,1.0,5.0,8.0,-25.0,-32.0,-29.0,1650849545138486.0
-3.0,17.0,8.0,-5.0,-6.0,44.0,21.0,-4.0,1650849545160406.0
39.0,-7.0,-3.0,11.0,18.0,10.0,8.0,35.0,1650849545160406.0
-3.0,30.0,19.0,3.0,9.0,-1.0,-1.0,6.0,1650849545161403.0
-4.0,-2.0,-13.0,-3.0,-8.0,-7.0,-4.0,-10.0,1650849545161403.0
-19.0,-27.0,12.0,8.0,4.0,-19.0,-15.0,-11.0,1650849545183445.0
-13.0,-10.0,-29.0,-19.0,-22.0,-6.0,-52.0,-60.0,1650849545183445.0
18.0,-13.0,4.0,4.0,10.0,12.0,83.0,75.0,1650849545183445.0
3.0,7.0,4.0,2.0,6.0,4.0,-28.0,5.0,1650849545183445.0
14.0,-10.0,-7.0,1.0,4.0,0.0,40.0,16.0,1650849545205373.0
-7.0,14.0,11.0,-4.0,-10.0,-3.0,-34.0,-24.0,1650849545205373.0
2.0,28.0,-5.0,13.0,10.0,2.0,10.0,-12.0,1650849545206380.0
-5.0,-45.0,-5.0,-3.0,7.0,12.0,13.0,23.0,1650849545206380.0
-14.0,-12.0,-6.0,-4.0,-8.0,-1.0,-21.0,-11.0,1650849545220361.0
1.0,7.0,-9.0,6.0,2.0,-5.0,25.0,18.0,1650849545220361.0
-8.0,6.0,12.0,-15.0,-16.0,-13.0,-50.0,-46.0,1650849545221342.0
7.0,-1.0,-12.0,-10.0,-5.0,13.0,9.0,-7.0,1650849545221342.0
1.0,12.0,14.0,12.0,5.0,3.0,11.0,34.0,1650849545243272.0
8.0,19.0,6.0,-2.0,-3.0,-8.0,8.0,-1.0,1650849545243272.0
-19.0,-31.0,-51.0,-18.0,-8.0,-6.0,-27.0,-26.0,1650849545243272.0
13.0,11.0,12.0,-10.0,-13.0,0.0,19.0,22.0,1650849545243272.0
-4.0,1.0,6.0,3.0,2.0,-7.0,-31.0,-24.0,1650849545256905.0
13.0,18.0,10.0,26.0,24.0,12.0,37.0,38.0,1650849545256905.0
-8.0,-8.0,19.0,-2.0,-6.0,7.0,-1.0,1.0,1650849545257905.0
-9.0,-2.0,-16.0,-9.0,-15.0,-17.0,-7.0,-11.0,1650849545257905.0
-3.0,-23.0,-9.0,-13.0,-12.0,-12.0,-12.0,-20.0,1650849545280569.0
-1.0,26.0,14.0,-3.0,5.0,2.0,-18.0,-15.0,1650849545280569.0
-10.0,-57.0,-14.0,2.0,2.0,3.0,-10.0,-10.0,1650849545281587.0
3.0,-9.0,-7.0,4.0,10.0,19.0,17.0,4.0,1650849545281587.0
11.0,29.0,12.0,2.0,-12.0,-20.0,13.0,21.0,1650849545302695.0
-8.0,-30.0,9.0,-3.0,12.0,8.0,-4.0,-6.0,1650849545302695.0
3.0,11.0,14.0,-1.0,-5.0,6.0,34.0,45.0,1650849545303665.0
14.0,34.0,1.0,3.0,-14.0,-12.0,-19.0,-9.0,1650849545303665.0
2.0,12.0,9.0,4.0,25.0,24.0,7.0,1.0,1650849545316775.0
-16.0,-75.0,-33.0,-10.0,-13.0,-20.0,7.0,6.0,1650849545316775.0
6.0,36.0,19.0,2.0,-14.0,-8.0,-13.0,1.0,1650849545317758.0
-13.0,-12.0,0.0,3.0,8.0,6.0,2.0,4.0,1650849545317758.0
-4.0,-1.0,-7.0,0.0,1.0,-5.0,-25.0,-32.0,1650849545340691.0
28.0,27.0,-7.0,-2.0,7.0,13.0,40.0,44.0,1650849545340691.0
0.0,-15.0,4.0,-8.0,0.0,2.0,-2.0,11.0,1650849545341708.0
-13.0,-7.0,0.0,3.0,-6.0,-8.0,6.0,-3.0,1650849545341708.0
-5.0,-3.0,1.0,-3.0,2.0,-2.0,-27.0,-19.0,1650849545362652.0
8.0,26.0,4.0,0.0,-2.0,-1.0,-7.0,-3.0,1650849545362652.0
-10.0,-30.0,-9.0,-2.0,-13.0,-4.0,2.0,-15.0,1650849545363627.0
10.0,42.0,19.0,21.0,19.0,-4.0,-2.0,3.0,1650849545363627.0
1.0,-39.0,-14.0,-6.0,9.0,2.0,-32.0,-9.0,1650849545377585.0
4.0,26.0,6.0,-2.0,-7.0,22.0,41.0,9.0,1650849545377585.0
4.0,-17.0,5.0,3.0,-1.0,-9.0,-7.0,-1.0,1650849545384596.0
-10.0,15.0,-11.0,-6.0,5.0,3.0,-10.0,-9.0,1650849545384596.0
5.0,-16.0,8.0,9.0,5.0,0.0,17.0,25.0,1650849545400523.0
-15.0,-16.0,-20.0,-31.0,-24.0,-16.0,-42.0,-43.0,1650849545400523.0
5.0,3.0,5.0,16.0,16.0,-2.0,30.0,36.0,1650849545401521.0
2.0,-4.0,2.0,1.0,3.0,24.0,4.0,-4.0,1650849545401521.0
-4.0,10.0,-1.0,-9.0,-12.0,-7.0,-2.0,-8.0,1650849545423463.0
-8.0,-17.0,-3.0,3.0,13.0,13.0,-1.0,-10.0,1650849545423463.0
9.0,22.0,5.0,1.0,-3.0,-4.0,-6.0,1.0,1650849545423463.0
-6.0,-14.0,-4.0,-5.0,0.0,-5.0,-9.0,-9.0,1650849545423463.0
14.0,15.0,-11.0,0.0,-5.0,-7.0,12.0,13.0,1650849545437424.0
-12.0,-26.0,6.0,-4.0,-17.0,-11.0,-1.0,-4.0,1650849545437424.0
0.0,20.0,-4.0,3.0,15.0,7.0,-41.0,-49.0,1650849545438424.0
7.0,-41.0,-4.0,-7.0,-8.0,-7.0,32.0,34.0,1650849545438424.0
-10.0,-10.0,-3.0,7.0,10.0,1.0,-10.0,-31.0,1650849545460364.0
5.0,13.0,3.0,11.0,11.0,15.0,12.0,13.0,1650849545460364.0
7.0,-10.0,-4.0,-5.0,-2.0,2.0,11.0,18.0,1650849545461366.0
-3.0,9.0,6.0,-20.0,-22.0,-15.0,-11.0,-6.0,1650849545461366.0
2.0,15.0,-2.0,14.0,12.0,5.0,1.0,1.0,1650849545483398.0
3.0,-34.0,-7.0,-5.0,-10.0,-10.0,-1.0,12.0,1650849545483398.0
-9.0,23.0,17.0,7.0,0.0,4.0,-2.0,-15.0,1650849545483398.0
2.0,15.0,8.0,-4.0,0.0,-4.0,-12.0,-8.0,1650849545483398.0
-10.0,-9.0,-4.0,-7.0,-15.0,-5.0,12.0,6.0,1650849545496363.0
9.0,37.0,9.0,9.0,10.0,-3.0,-13.0,-6.0,1650849545496363.0
-15.0,-27.0,-20.0,-22.0,-15.0,-7.0,-6.0,-10.0,1650849545504356.0
-9.0,-10.0,-11.0,-2.0,-9.0,-10.0,11.0,1.0,1650849545504356.0
13.0,19.0,7.0,5.0,10.0,21.0,9.0,15.0,1650849545520328.0
-9.0,-24.0,-8.0,-5.0,1.0,-10.0,-15.0,-11.0,1650849545520328.0
-9.0,5.0,-12.0,1.0,3.0,0.0,-11.0,-13.0,1650849545521297.0
12.0,26.0,16.0,1.0,-5.0,-6.0,21.0,11.0,1650849545521297.0
11.0,-24.0,-2.0,1.0,-3.0,-4.0,12.0,24.0,1650849545543354.0
5.0,9.0,-2.0,-4.0,1.0,1.0,-5.0,-2.0,1650849545543354.0
-6.0,11.0,8.0,0.0,0.0,-5.0,11.0,4.0,1650849545543354.0
12.0,17.0,1.0,5.0,4.0,-9.0,-25.0,-12.0,1650849545543354.0
-9.0,3.0,9.0,-9.0,-16.0,25.0,-6.0,-10.0,1650849545556323.0
5.0,-20.0,0.0,11.0,17.0,-2.0,30.0,25.0,1650849545556323.0
-10.0,4.0,-2.0,0.0,3.0,-2.0,-4.0,-15.0,1650849545565299.0
-2.0,-6.0,-7.0,4.0,0.0,-4.0,-4.0,2.0,1650849545565299.0
-5.0,-16.0,-6.0,-6.0,5.0,-11.0,-4.0,-4.0,1650849545580374.0
10.0,16.0,8.0,-12.0,-22.0,-6.0,-16.0,-10.0,1650849545580374.0
1.0,5.0,-11.0,23.0,33.0,14.0,4.0,1.0,1650849545581369.0
-11.0,-16.0,-4.0,-14.0,-8.0,2.0,-6.0,-1.0,1650849545581369.0
0.0,5.0,-1.0,-1.0,-9.0,-11.0,-5.0,-14.0,1650849545603408.0
-10.0,1.0,-4.0,-16.0,-10.0,-5.0,-9.0,-5.0,1650849545603408.0
9.0,12.0,3.0,3.0,-8.0,0.0,11.0,9.0,1650849545603408.0
9.0,5.0,1.0,-1.0,8.0,6.0,0.0,7.0,1650849545603408.0
-4.0,-49.0,-2.0,13.0,6.0,4.0,21.0,11.0,1650849545616394.0
-4.0,19.0,10.0,2.0,3.0,-3.0,-10.0,-11.0,1650849545616394.0
7.0,-15.0,-1.0,-12.0,-16.0,-4.0,-2.0,9.0,1650849545625349.0
-5.0,4.0,-22.0,-4.0,1.0,1.0,-21.0,-33.0,1650849545625349.0
-1.0,5.0,12.0,-3.0,-4.0,-6.0,9.0,5.0,1650849545640330.0
-4.0,6.0,0.0,4.0,4.0,0.0,13.0,34.0,1650849545640330.0
9.0,18.0,13.0,1.0,2.0,5.0,-12.0,-17.0,1650849545641306.0
-2.0,-24.0,-8.0,-5.0,-8.0,1.0,7.0,8.0,1650849545641306.0
-1.0,-7.0,3.0,10.0,16.0,0.0,-19.0,-6.0,1650849545663247.0
-11.0,10.0,-2.0,-5.0,-9.0,-7.0,-3.0,-16.0,1650849545663247.0
9.0,-13.0,-10.0,8.0,-2.0,-4.0,27.0,28.0,1650849545664254.0
-5.0,-13.0,19.0,29.0,48.0,17.0,0.0,-1.0,1650849545664254.0
5.0,39.0,1.0,-12.0,-21.0,24.0,4.0,-4.0,1650849545676234.0
4.0,8.0,-1.0,9.0,12.0,-3.0,-13.0,-11.0,1650849545676234.0
-18.0,-28.0,-13.0,-34.0,-25.0,-15.0,-14.0,-8.0,1650849545685195.0
-1.0,-1.0,2.0,9.0,-13.0,-18.0,-3.0,-7.0,1650849545685195.0
10.0,31.0,27.0,18.0,23.0,-3.0,19.0,33.0,1650849545700901.0
0.0,-15.0,-12.0,-4.0,-1.0,16.0,-11.0,-9.0,1650849545700901.0
5.0,23.0,-1.0,3.0,6.0,3.0,20.0,5.0,1650849545700901.0
8.0,-24.0,7.0,-1.0,-8.0,-1.0,-21.0,5.0,1650849545700901.0
-1.0,17.0,0.0,2.0,3.0,-4.0,9.0,-1.0,1650849545722997.0
-5.0,-4.0,-1.0,-9.0,-14.0,-9.0,-20.0,-14.0,1650849545722997.0
-18.0,-17.0,-8.0,-6.0,-17.0,-10.0,11.0,4.0,1650849545723974.0
20.0,6.0,-12.0,10.0,8.0,13.0,4.0,11.0,1650849545723974.0
-8.0,-1.0,-12.0,-12.0,-2.0,-5.0,2.0,-4.0,1650849545736965.0
8.0,-20.0,-1.0,-1.0,-5.0,-2.0,22.0,21.0,1650849545736965.0
3.0,44.0,8.0,17.0,30.0,17.0,-27.0,-18.0,1650849545744916.0
-19.0,-33.0,-8.0,-17.0,-16.0,-5.0,2.0,-15.0,1650849545744916.0
-11.0,-3.0,-11.0,-10.0,-11.0,-8.0,-13.0,-17.0,1650849545760908.0
-7.0,28.0,30.0,25.0,12.0,3.0,-16.0,-14.0,1650849545760908.0
16.0,-51.0,-6.0,-16.0,-9.0,-4.0,34.0,30.0,1650849545760908.0
-3.0,2.0,3.0,8.0,-5.0,4.0,11.0,3.0,1650849545760908.0
3.0,12.0,-2.0,-1.0,10.0,-4.0,-18.0,-14.0,1650849545782908.0
-11.0,9.0,-19.0,-11.0,-14.0,-4.0,-12.0,-15.0,1650849545782908.0
1.0,-14.0,-10.0,-4.0,-8.0,-10.0,-17.0,-4.0,1650849545783881.0
-10.0,-3.0,22.0,-4.0,0.0,-2.0,-6.0,-17.0,1650849545783881.0
-2.0,-23.0,-10.0,-10.0,-13.0,-21.0,-9.0,-3.0,1650849545796884.0
0.0,15.0,1.0,7.0,11.0,23.0,14.0,12.0,1650849545796884.0
6.0,-8.0,-13.0,7.0,6.0,1.0,-15.0,-18.0,1650849545804863.0
-7.0,19.0,-2.0,-15.0,-2.0,3.0,-4.0,-8.0,1650849545804863.0
11.0,-1.0,-4.0,-2.0,-17.0,-17.0,-5.0,22.0,1650849545820782.0
0.0,-25.0,10.0,23.0,40.0,9.0,5.0,-1.0,1650849545820782.0
13.0,20.0,-17.0,-10.0,-1.0,9.0,25.0,15.0,1650849545820782.0
-8.0,15.0,12.0,-3.0,-6.0,-6.0,-3.0,-3.0,1650849545820782.0
-6.0,-29.0,-19.0,-16.0,-14.0,-14.0,-5.0,-9.0,1650849545842743.0
2.0,23.0,18.0,-2.0,-21.0,9.0,-5.0,-9.0,1650849545842743.0
-7.0,-32.0,2.0,11.0,17.0,-2.0,-6.0,4.0,1650849545843732.0
1.0,19.0,-17.0,-10.0,-13.0,-24.0,-13.0,-1.0,1650849545843732.0
2.0,12.0,9.0,2.0,7.0,26.0,1.0,-13.0,1650849545865960.0
13.0,-10.0,-20.0,-11.0,-14.0,-14.0,49.0,60.0,1650849545865960.0
-22.0,9.0,22.0,6.0,9.0,3.0,-44.0,-46.0,1650849545865960.0
21.0,19.0,-13.0,11.0,7.0,20.0,55.0,55.0,1650849545865960.0
-3.0,-46.0,-10.0,-1.0,-5.0,-11.0,-11.0,-10.0,1650849545879964.0
-7.0,7.0,13.0,-2.0,0.0,-7.0,-8.0,-12.0,1650849545879964.0
-1.0,4.0,-14.0,-20.0,-23.0,-8.0,-15.0,4.0,1650849545880949.0
-7.0,-8.0,1.0,5.0,0.0,-15.0,-8.0,-14.0,1650849545880949.0
1.0,13.0,0.0,19.0,16.0,29.0,16.0,15.0,1650849545902891.0
6.0,12.0,13.0,7.0,12.0,0.0,16.0,16.0,1650849545902891.0
3.0,5.0,4.0,-14.0,-9.0,-1.0,1.0,2.0,1650849545903860.0
-6.0,-31.0,-7.0,-3.0,1.0,-4.0,-23.0,-13.0,1650849545903860.0
-1.0,19.0,-12.0,5.0,0.0,4.0,14.0,4.0,1650849545925930.0
-7.0,-26.0,3.0,-6.0,-8.0,-6.0,-37.0,-37.0,1650849545925930.0
-7.0,-10.0,-6.0,4.0,-1.0,-6.0,19.0,14.0,1650849545925930.0
6.0,-6.0,-22.0,-4.0,2.0,7.0,18.0,14.0,1650849545925930.0
15.0,26.0,13.0,4.0,5.0,-2.0,6.0,2.0,1650849545939897.0
-4.0,-27.0,-20.0,-7.0,-8.0,-14.0,-10.0,-4.0,1650849545939897.0
-2.0,13.0,28.0,4.0,-1.0,11.0,3.0,-3.0,1650849545940894.0
-2.0,-14.0,-7.0,-2.0,-2.0,-15.0,-5.0,-1.0,1650849545940894.0
-2.0,14.0,-5.0,-1.0,2.0,35.0,2.0,-2.0,1650849545963009.0
-4.0,8.0,-4.0,2.0,4.0,-10.0,-23.0,-7.0,1650849545963009.0
6.0,0.0,2.0,2.0,-5.0,5.0,21.0,3.0,1650849545963943.0
4.0,7.0,15.0,22.0,26.0,10.0,-1.0,6.0,1650849545963943.0
-6.0,-3.0,-9.0,-18.0,-22.0,-25.0,-9.0,-6.0,1650849545985029.0
0.0,-2.0,-8.0,6.0,15.0,6.0,-11.0,-11.0,1650849545985029.0
8.0,7.0,8.0,6.0,2.0,7.0,23.0,37.0,1650849545986028.0
-6.0,-8.0,1.0,1.0,4.0,6.0,-7.0,-10.0,1650849545986028.0
-8.0,8.0,16.0,6.0,8.0,-10.0,24.0,12.0,1650849546000058.0
17.0,-8.0,-25.0,-15.0,-20.0,-6.0,0.0,9.0,1650849546000058.0
-5.0,10.0,-4.0,1.0,10.0,2.0,-8.0,-4.0,1650849546000998.0
3.0,1.0,14.0,-6.0,-7.0,-7.0,-3.0,-7.0,1650849546000998.0
-6.0,9.0,3.0,-2.0,-12.0,-3.0,-18.0,-8.0,1650849546023085.0
-6.0,-12.0,-1.0,1.0,-1.0,-6.0,10.0,-2.0,1650849546023085.0
4.0,5.0,4.0,3.0,15.0,19.0,3.0,3.0,1650849546024098.0
-1.0,2.0,-8.0,-2.0,-7.0,2.0,-1.0,1.0,1650849546024098.0
0.0,-18.0,-5.0,-7.0,-3.0,-5.0,-2.0,-5.0,1650849546045980.0
0.0,12.0,3.0,1.0,-3.0,-16.0,23.0,22.0,1650849546045980.0
0.0,-18.0,-7.0,2.0,-10.0,-6.0,-8.0,-4.0,1650849546045980.0
-7.0,9.0,4.0,-4.0,4.0,13.0,-8.0,-5.0,1650849546045980.0
1.0,-6.0,2.0,2.0,2.0,-11.0,-3.0,-2.0,1650849546058867.0
-2.0,12.0,13.0,1.0,0.0,2.0,-3.0,-8.0,1650849546058867.0
-4.0,-5.0,-11.0,-6.0,-3.0,-4.0,-2.0,-2.0,1650849546067897.0
3.0,4.0,1.0,-5.0,-1.0,-6.0,2.0,-1.0,1650849546067897.0
0.0,-12.0,12.0,3.0,-4.0,15.0,2.0,3.0,1650849546082934.0
0.0,-6.0,-19.0,0.0,11.0,10.0,-5.0,-6.0,1650849546082934.0
0.0,6.0,12.0,2.0,-9.0,-9.0,-2.0,-2.0,1650849546084930.0
-5.0,-6.0,-5.0,-5.0,-2.0,-8.0,-17.0,-12.0,1650849546084930.0
8.0,4.0,1.0,-1.0,-3.0,-2.0,21.0,15.0,1650849546105874.0
-9.0,-7.0,2.0,-5.0,-7.0,-14.0,-11.0,-9.0,1650849546105874.0
0.0,0.0,4.0,2.0,2.0,30.0,-1.0,-5.0,1650849546106872.0
1.0,13.0,-8.0,-3.0,-4.0,-9.0,-5.0,3.0,1650849546106872.0
-6.0,-4.0,0.0,-1.0,7.0,4.0,-1.0,-3.0,1650849546118868.0
1.0,-3.0,-5.0,1.0,-7.0,4.0,1.0,-3.0,1650849546118868.0
4.0,3.0,6.0,4.0,3.0,-14.0,-4.0,1.0,1650849546127860.0
-4.0,-6.0,-5.0,-6.0,-8.0,-6.0,-9.0,-3.0,1650849546127860.0
-4.0,-8.0,-11.0,-5.0,5.0,5.0,1.0,-4.0,1650849546143477.0
0.0,6.0,4.0,0.0,-4.0,-6.0,11.0,2.0,1650849546143477.0
0.0,-9.0,5.0,3.0,0.0,13.0,2.0,4.0,1650849546144816.0
2.0,13.0,2.0,1.0,2.0,9.0,3.0,0.0,1650849546144816.0
-1.0,-5.0,-1.0,-1.0,-1.0,-11.0,-8.0,1.0,1650849546165760.0
-4.0,-5.0,4.0,1.0,-7.0,-11.0,-11.0,-7.0,1650849546165760.0
-1.0,-2.0,-12.0,-6.0,10.0,-5.0,-9.0,-5.0,1650849546166757.0
1.0,-3.0,4.0,1.0,-9.0,11.0,23.0,6.0,1650849546166757.0
1.0,3.0,-8.0,-1.0,13.0,18.0,9.0,-2.0,1650849546178698.0
1.0,3.0,14.0,3.0,-6.0,4.0,-7.0,-3.0,1650849546178698.0
-3.0,-4.0,1.0,6.0,7.0,-16.0,-8.0,-4.0,1650849546187673.0
-1.0,0.0,-3.0,-6.0,-7.0,-8.0,-8.0,-2.0,1650849546187673.0
-1.0,-6.0,4.0,-2.0,-10.0,-6.0,1.0,-3.0,1650849546210627.0
-2.0,-5.0,-3.0,2.0,1.0,6.0,-2.0,-1.0,1650849546210627.0
-2.0,4.0,2.0,4.0,-4.0,-19.0,0.0,3.0,1650849546212616.0
1.0,-3.0,-3.0,1.0,12.0,19.0,3.0,0.0,1650849546212616.0
0.0,-3.0,-3.0,-2.0,-6.0,-8.0,-7.0,-4.0,1650849546225640.0
1.0,1.0,-9.0,-9.0,-6.0,4.0,0.0,-2.0,1650849546225640.0
-2.0,6.0,10.0,2.0,-8.0,-25.0,-7.0,-3.0,1650849546227573.0
1.0,4.0,3.0,8.0,11.0,40.0,11.0,4.0,1650849546227573.0
-1.0,-4.0,7.0,0.0,13.0,-3.0,-7.0,-1.0,1650849546239535.0
0.0,-3.0,-25.0,-10.0,-3.0,-1.0,3.0,-1.0,1650849546239535.0
0.0,-2.0,-2.0,-4.0,-9.0,-6.0,-5.0,-2.0,1650849546248511.0
-4.0,-5.0,9.0,0.0,-6.0,-15.0,4.0,1.0,1650849546248511.0
-1.0,-3.0,-8.0,1.0,0.0,-1.0,-8.0,-3.0,1650849546264469.0
-1.0,15.0,20.0,2.0,-1.0,-3.0,0.0,-2.0,1650849546264469.0
0.0,-1.0,-18.0,-8.0,2.0,15.0,6.0,0.0,1650849546266463.0
-3.0,-5.0,4.0,1.0,-4.0,-18.0,-12.0,-3.0,1650849546266463.0
0.0,-2.0,24.0,10.0,-1.0,7.0,0.0,0.0,1650849546285881.0
0.0,2.0,-24.0,-7.0,-12.0,-4.0,-3.0,3.0,1650849546285881.0
-1.0,-6.0,6.0,-1.0,9.0,16.0,31.0,3.0,1650849546286879.0
-2.0,4.0,-8.0,-2.0,-8.0,-15.0,-10.0,-4.0,1650849546286879.0
-1.0,-1.0,-9.0,-4.0,-1.0,-5.0,-4.0,-2.0,1650849546298846.0
2.0,-1.0,24.0,10.0,12.0,7.0,-1.0,1.0,1650849546298846.0
1.0,1.0,7.0,-6.0,-7.0,0.0,-5.0,1.0,1650849546315802.0
1.0,-13.0,-33.0,-2.0,-9.0,-4.0,0.0,-1.0,1650849546315802.0
1.0,6.0,1.0,-9.0,4.0,-3.0,0.0,0.0,1650849546322784.0
-4.0,0.0,-12.0,-1.0,-2.0,-9.0,-5.0,-2.0,1650849546322784.0
7.0,1.0,14.0,5.0,-3.0,1.0,-6.0,-2.0,1650849546324779.0
12.0,4.0,20.0,6.0,13.0,7.0,12.0,2.0,1650849546324779.0
-41.0,-6.0,-9.0,-6.0,-8.0,1.0,-6.0,1.0,1650849546352702.0
11.0,0.0,11.0,6.0,8.0,10.0,6.0,2.0,1650849546352702.0
4.0,-6.0,6.0,-11.0,-14.0,-32.0,-12.0,-4.0,1650849546354698.0
-25.0,-4.0,-29.0,4.0,0.0,13.0,-1.0,-1.0,1650849546354698.0
9.0,0.0,1.0,7.0,-2.0,0.0,2.0,-1.0,1650849546358687.0
-1.0,-6.0,-4.0,-5.0,-6.0,-4.0,-2.0,0.0,1650849546358687.0
-6.0,1.0,15.0,9.0,3.0,-2.0,-2.0,0.0,1650849546367663.0
7.0,7.0,21.0,1.0,5.0,4.0,4.0,3.0,1650849546367663.0
12.0,4.0,-14.0,-5.0,10.0,1.0,-1.0,-2.0,1650849546382623.0
-18.0,-9.0,-23.0,-2.0,2.0,4.0,3.0,2.0,1650849546382623.0
4.0,-4.0,0.0,-9.0,-17.0,-6.0,-5.0,-4.0,1650849546384617.0
7.0,0.0,1.0,-4.0,7.0,1.0,1.0,0.0,1650849546384617.0
-1.0,3.0,-16.0,7.0,0.0,-5.0,-2.0,-1.0,1650849546405561.0
4.0,-10.0,30.0,4.0,-22.0,-28.0,-4.0,-1.0,1650849546405561.0
-7.0,7.0,-14.0,1.0,35.0,57.0,6.0,3.0,1650849546407570.0
-3.0,-1.0,6.0,-1.0,-5.0,-14.0,-1.0,0.0,1650849546407570.0
5.0,15.0,0.0,-12.0,-12.0,-7.0,-5.0,-4.0,1650849546419528.0
0.0,-7.0,-8.0,9.0,10.0,6.0,3.0,0.0,1650849546419528.0
-4.0,-7.0,-4.0,-6.0,-11.0,-18.0,-6.0,-2.0,1650849546435812.0
2.0,-3.0,-4.0,-3.0,-1.0,0.0,0.0,1.0,1650849546435812.0
3.0,-1.0,-13.0,-3.0,-2.0,1.0,-1.0,2.0,1650849546442795.0
-1.0,3.0,42.0,12.0,8.0,2.0,2.0,0.0,1650849546442795.0
-8.0,-7.0,-41.0,-5.0,-4.0,-8.0,-5.0,-4.0,1650849546444788.0
5.0,3.0,-1.0,-9.0,7.0,11.0,3.0,2.0,1650849546444788.0
-1.0,-11.0,-1.0,-7.0,-17.0,-12.0,-3.0,-1.0,1650849546472788.0
2.0,8.0,-1.0,-2.0,2.0,10.0,2.0,-1.0,1650849546472788.0
-2.0,-2.0,7.0,11.0,3.0,-1.0,1.0,-2.0,1650849546474781.0
-3.0,-4.0,4.0,7.0,-5.0,-10.0,-3.0,1.0,1650849546474781.0
0.0,-3.0,6.0,6.0,2.0,-1.0,2.0,0.0,1650849546478770.0
4.0,2.0,-1.0,-9.0,0.0,1.0,2.0,2.0,1650849546478770.0
-2.0,9.0,0.0,-7.0,-10.0,-10.0,-5.0,-3.0,1650849546487923.0
2.0,5.0,-1.0,3.0,5.0,16.0,2.0,0.0,1650849546487923.0
0.0,-8.0,10.0,0.0,5.0,0.0,0.0,2.0,1650849546502772.0
-5.0,-10.0,-24.0,-13.0,-9.0,-17.0,-5.0,-3.0,1650849546502772.0
4.0,-1.0,-4.0,6.0,5.0,26.0,11.0,3.0,1650849546504728.0
-1.0,-3.0,18.0,9.0,-13.0,-13.0,-2.0,-3.0,1650849546504728.0
3.0,7.0,2.0,3.0,10.0,5.0,-1.0,0.0,1650849546525811.0
-2.0,-1.0,9.0,-8.0,-3.0,3.0,1.0,-2.0,1650849546525811.0
1.0,-2.0,-26.0,-10.0,-3.0,-14.0,-4.0,0.0,1650849546526822.0
-1.0,1.0,0.0,-3.0,-4.0,2.0,-1.0,0.0,1650849546526822.0
0.0,-2.0,19.0,12.0,-3.0,0.0,-1.0,-1.0,1650849546539775.0
0.0,3.0,-3.0,-4.0,7.0,7.0,-2.0,-1.0,1650849546539775.0
-1.0,-4.0,-1.0,-3.0,-11.0,-5.0,-1.0,1.0,1650849546547836.0
-3.0,-4.0,-12.0,-12.0,-23.0,-11.0,1.0,-2.0,1650849546547836.0
3.0,4.0,2.0,10.0,32.0,22.0,5.0,3.0,1650849546562714.0
1.0,-10.0,-10.0,2.0,-3.0,3.0,2.0,0.0,1650849546562714.0
22.0,2.0,11.0,-4.0,2.0,1.0,-4.0,0.0,1650849546564709.0
-13.0,-1.0,-15.0,-17.0,-7.0,-7.0,-4.0,-3.0,1650849546564709.0
0.0,-3.0,-5.0,0.0,-22.0,-21.0,-6.0,-2.0,1650849546592944.0
-4.0,7.0,13.0,24.0,27.0,31.0,7.0,-2.0,1650849546592944.0
11.0,-6.0,1.0,-1.0,-7.0,-7.0,0.0,3.0,1650849546594878.0
4.0,13.0,-1.0,-4.0,0.0,-19.0,-5.0,-2.0,1650849546594878.0
-5.0,-14.0,-4.0,-7.0,2.0,29.0,8.0,2.0,1650849546598890.0
0.0,-5.0,-12.0,2.0,-2.0,-4.0,-2.0,1.0,1650849546598890.0
-10.0,3.0,8.0,5.0,-1.0,-8.0,-3.0,0.0,1650849546607865.0
3.0,1.0,6.0,3.0,0.0,3.0,0.0,-1.0,1650849546607865.0
-3.0,0.0,-3.0,-3.0,-3.0,-8.0,-3.0,-1.0,1650849546622585.0
4.0,4.0,-7.0,-6.0,-2.0,-12.0,-2.0,0.0,1650849546622585.0
-7.0,-7.0,-3.0,3.0,-1.0,21.0,3.0,0.0,1650849546630573.0
2.0,11.0,13.0,9.0,9.0,1.0,2.0,2.0,1650849546630573.0
1.0,-3.0,-2.0,-5.0,-3.0,-6.0,-3.0,-2.0,1650849546645677.0
1.0,2.0,2.0,-1.0,-2.0,-1.0,-2.0,-2.0,1650849546645677.0
-5.0,-5.0,-1.0,3.0,-2.0,-10.0,-2.0,-3.0,1650849546646677.0
-2.0,5.0,6.0,-4.0,4.0,-2.0,-2.0,-4.0,1650849546646677.0
0.0,-5.0,-9.0,-3.0,-9.0,-7.0,-2.0,-3.0,1650849546659642.0
-1.0,3.0,3.0,-1.0,7.0,13.0,1.0,0.0,1650849546659642.0
-4.0,5.0,6.0,-4.0,2.0,8.0,2.0,1.0,1650849546667883.0
-1.0,-13.0,-4.0,3.0,10.0,-2.0,-3.0,-2.0,1650849546667883.0
1.0,10.0,-5.0,-10.0,-6.0,-9.0,-4.0,0.0,1650849546682913.0
-2.0,-10.0,-1.0,-5.0,-14.0,-12.0,-7.0,-2.0,1650849546682913.0
0.0,2.0,-2.0,1.0,-2.0,-6.0,-1.0,-1.0,1650849546684874.0
1.0,-2.0,0.0,-3.0,-6.0,-2.0,0.0,0.0,1650849546684874.0
-2.0,3.0,6.0,3.0,7.0,7.0,0.0,1.0,1650849546705123.0
-1.0,-6.0,-11.0,-6.0,-2.0,4.0,2.0,1.0,1650849546705123.0
-3.0,2.0,4.0,-2.0,4.0,1.0,0.0,0.0,1650849546707121.0
3.0,2.0,-1.0,3.0,-6.0,-2.0,0.0,1.0,1650849546707121.0
0.0,-21.0,-8.0,1.0,0.0,-5.0,-3.0,-2.0,1650849546719154.0
1.0,11.0,8.0,3.0,7.0,4.0,1.0,1.0,1650849546719154.0
-3.0,9.0,1.0,1.0,0.0,-9.0,-3.0,-1.0,1650849546728063.0
-1.0,-2.0,-1.0,-4.0,-7.0,3.0,-1.0,-1.0,1650849546728063.0
1.0,-1.0,-1.0,5.0,9.0,6.0,2.0,1.0,1650849546743091.0
-1.0,-5.0,-7.0,-6.0,2.0,4.0,-1.0,-1.0,1650849546743091.0
-1.0,0.0,2.0,3.0,-11.0,-21.0,-4.0,0.0,1650849546751006.0
-1.0,-5.0,-1.0,-9.0,0.0,6.0,4.0,-1.0,1650849546751006.0
0.0,7.0,3.0,7.0,7.0,14.0,2.0,0.0,1650849546765112.0
-1.0,-2.0,-2.0,-1.0,-5.0,-6.0,2.0,0.0,1650849546765112.0
-1.0,5.0,5.0,2.0,-5.0,-5.0,-3.0,-1.0,1650849546767109.0
-2.0,-6.0,-5.0,0.0,1.0,-8.0,-2.0,-2.0,1650849546767109.0
-2.0,1.0,-1.0,-4.0,-14.0,-4.0,-2.0,-2.0,1650849546788389.0
1.0,1.0,-5.0,-5.0,12.0,-1.0,0.0,0.0,1650849546788389.0
0.0,-8.0,-3.0,-4.0,-8.0,1.0,-4.0,-3.0,1650849546789375.0
0.0,0.0,9.0,13.0,4.0,-2.0,4.0,6.0,1650849546789375.0
-2.0,2.0,4.0,1.0,7.0,10.0,2.0,1.0,1650849546803351.0
-1.0,-1.0,-5.0,-3.0,-6.0,-4.0,-2.0,-3.0,1650849546803351.0
-1.0,-5.0,-4.0,-7.0,-1.0,1.0,-1.0,-1.0,1650849546804327.0
-3.0,-10.0,-6.0,-1.0,-5.0,-9.0,-4.0,-4.0,1650849546804327.0
-2.0,8.0,0.0,-6.0,-1.0,-19.0,-5.0,-2.0,1650849546825939.0
3.0,1.0,2.0,8.0,-4.0,31.0,8.0,3.0,1650849546825939.0
-1.0,-1.0,-5.0,-3.0,4.0,-10.0,-2.0,0.0,1650849546826870.0
4.0,1.0,2.0,-3.0,10.0,21.0,0.0,1.0,1650849546826870.0
-1.0,-6.0,-8.0,-6.0,-14.0,-20.0,-4.0,-2.0,1650849546847882.0
-1.0,-22.0,-3.0,-1.0,5.0,-1.0,-3.0,-2.0,1650849546847882.0
1.0,31.0,11.0,6.0,1.0,0.0,2.0,1.0,1650849546849837.0
0.0,-9.0,-6.0,2.0,-2.0,-4.0,0.0,-2.0,1650849546849837.0
0.0,-1.0,-5.0,-9.0,1.0,2.0,0.0,-2.0,1650849546870938.0
0.0,-3.0,-7.0,-5.0,-13.0,-16.0,-3.0,-2.0,1650849546870938.0
-1.0,-10.0,1.0,4.0,12.0,20.0,2.0,0.0,1650849546871913.0
-1.0,2.0,4.0,-3.0,-9.0,-6.0,-1.0,-1.0,1650849546871913.0
-1.0,1.0,0.0,4.0,11.0,1.0,1.0,0.0,1650849546885904.0
-2.0,6.0,3.0,-1.0,-6.0,-9.0,-1.0,-2.0,1650849546885904.0
-2.0,-5.0,-5.0,-3.0,-4.0,-13.0,-3.0,0.0,1650849546886875.0
2.0,5.0,0.0,1.0,12.0,40.0,12.0,2.0,1650849546886875.0
-2.0,-8.0,-1.0,1.0,-5.0,-7.0,-2.0,-1.0,1650849546907817.0
-1.0,13.0,8.0,-5.0,-17.0,-9.0,-2.0,1.0,1650849546907817.0
-2.0,-4.0,-5.0,0.0,17.0,-3.0,0.0,0.0,1650849546909813.0
-1.0,-3.0,3.0,1.0,-3.0,-8.0,-5.0,0.0,1650849546909813.0
1.0,2.0,-3.0,-3.0,-14.0,-10.0,-1.0,-2.0,1650849546922777.0
0.0,2.0,4.0,4.0,9.0,12.0,2.0,1.0,1650849546922777.0
1.0,-4.0,-6.0,1.0,3.0,7.0,3.0,0.0,1650849546928829.0
-1.0,-7.0,-5.0,-5.0,-3.0,2.0,-3.0,-1.0,1650849546928829.0
0.0,-13.0,-7.0,-1.0,0.0,-1.0,0.0,0.0,1650849546945832.0
-1.0,13.0,6.0,-2.0,-9.0,-8.0,-3.0,0.0,1650849546945832.0
1.0,-3.0,8.0,0.0,-3.0,-3.0,0.0,-1.0,1650849546946808.0
-2.0,-1.0,-10.0,-5.0,4.0,-17.0,-6.0,-2.0,1650849546946808.0
2.0,3.0,2.0,3.0,0.0,13.0,2.0,1.0,1650849546967781.0
-2.0,-4.0,-2.0,0.0,0.0,18.0,3.0,0.0,1650849546967781.0
0.0,-7.0,-3.0,-1.0,-2.0,2.0,1.0,-1.0,1650849546969769.0
-1.0,3.0,3.0,6.0,2.0,-11.0,-2.0,0.0,1650849546969769.0
-1.0,3.0,0.0,-5.0,1.0,-3.0,-2.0,0.0,1650849546982737.0
-2.0,-6.0,-7.0,-1.0,8.0,-7.0,-5.0,-1.0,1650849546982737.0
-1.0,1.0,6.0,-1.0,-12.0,0.0,1.0,-2.0,1650849546988726.0
-1.0,-2.0,-4.0,-4.0,-7.0,-6.0,-3.0,-1.0,1650849546988726.0
1.0,5.0,6.0,4.0,6.0,4.0,0.0,0.0,1650849547005052.0
1.0,0.0,0.0,5.0,14.0,17.0,7.0,2.0,1650849547005052.0
-1.0,-2.0,1.0,1.0,4.0,-1.0,-1.0,-2.0,1650849547007021.0
0.0,-3.0,-8.0,-3.0,-6.0,-1.0,1.0,0.0,1650849547007021.0
-1.0,1.0,4.0,3.0,-7.0,-8.0,-2.0,-1.0,1650849547028031.0
0.0,-3.0,-1.0,-5.0,-4.0,-19.0,-5.0,-2.0,1650849547028031.0
-2.0,0.0,0.0,4.0,-5.0,13.0,4.0,1.0,1650849547029985.0
-1.0,1.0,6.0,3.0,19.0,-2.0,-1.0,-1.0,1650849547029985.0
1.0,11.0,-4.0,-11.0,-3.0,19.0,10.0,2.0,1650849547041932.0
-4.0,-7.0,-4.0,-2.0,-6.0,-14.0,-4.0,-2.0,1650849547041932.0
0.0,-7.0,-5.0,5.0,5.0,0.0,0.0,1.0,1650849547048907.0
0.0,14.0,5.0,1.0,-5.0,-4.0,-2.0,-2.0,1650849547048907.0
-2.0,-9.0,-6.0,2.0,3.0,-7.0,-2.0,-3.0,1650849547065890.0
0.0,2.0,4.0,0.0,-4.0,-10.0,-4.0,0.0,1650849547065890.0
-1.0,-3.0,0.0,-5.0,-10.0,4.0,-1.0,-2.0,1650849547066861.0
-1.0,-2.0,-2.0,1.0,-3.0,7.0,4.0,2.0,1650849547066861.0
0.0,3.0,4.0,5.0,8.0,6.0,0.0,1.0,1650849547087831.0
1.0,-4.0,-6.0,0.0,1.0,3.0,2.0,0.0,1650849547087831.0
-1.0,7.0,3.0,-1.0,4.0,-13.0,-6.0,-1.0,1650849547089799.0
1.0,0.0,-1.0,1.0,-12.0,-3.0,-2.0,-2.0,1650849547089799.0
-1.0,-2.0,-2.0,-2.0,1.0,5.0,-2.0,0.0,1650849547102763.0
-1.0,-6.0,6.0,2.0,4.0,0.0,1.0,-1.0,1650849547102763.0
-2.0,-4.0,-9.0,-5.0,-4.0,1.0,1.0,2.0,1650849547108748.0
-2.0,-4.0,-4.0,-1.0,3.0,3.0,-2.0,-1.0,1650849547108748.0
-2.0,6.0,3.0,-3.0,-8.0,-11.0,-4.0,-1.0,1650849547125710.0
0.0,1.0,1.0,2.0,4.0,3.0,1.0,-1.0,1650849547125710.0
-2.0,3.0,1.0,-3.0,-5.0,-1.0,-1.0,-2.0,1650849547126730.0
-2.0,-2.0,-1.0,-3.0,-22.0,-9.0,-1.0,0.0,1650849547126730.0
1.0,-4.0,1.0,4.0,19.0,15.0,3.0,1.0,1650849547147759.0
0.0,1.0,0.0,-4.0,-7.0,2.0,0.0,1.0,1650849547147759.0
-1.0,-3.0,-1.0,-2.0,3.0,2.0,0.0,-1.0,1650849547149727.0
0.0,-3.0,-8.0,-3.0,-6.0,-13.0,-3.0,-2.0,1650849547149727.0
1.0,-1.0,-2.0,0.0,-5.0,2.0,1.0,-2.0,1650849547162759.0
1.0,3.0,2.0,5.0,14.0,16.0,1.0,0.0,1650849547162759.0
0.0,-2.0,4.0,2.0,0.0,-5.0,-1.0,-1.0,1650849547168706.0
0.0,2.0,-1.0,0.0,14.0,-5.0,-3.0,-1.0,1650849547168706.0
0.0,-2.0,-2.0,0.0,-10.0,7.0,4.0,0.0,1650849547185658.0
-1.0,-1.0,-3.0,-5.0,-4.0,1.0,1.0,1.0,1650849547185658.0
0.0,-2.0,-3.0,4.0,7.0,0.0,0.0,-1.0,1650849547186648.0
1.0,-2.0,0.0,-4.0,-3.0,-1.0,2.0,1.0,1650849547186648.0
-1.0,-1.0,4.0,7.0,-6.0,-17.0,-4.0,-1.0,1650849547208128.0
-1.0,0.0,-1.0,-1.0,5.0,5.0,0.0,-1.0,1650849547208128.0
0.0,0.0,0.0,-5.0,-3.0,9.0,3.0,0.0,1650849547209118.0
-2.0,0.0,0.0,3.0,9.0,9.0,0.0,-2.0,1650849547209118.0
-2.0,-2.0,-2.0,-9.0,-13.0,-7.0,-2.0,-4.0,1650849547222109.0
1.0,2.0,1.0,-2.0,0.0,-19.0,0.0,3.0,1650849547222109.0
0.0,0.0,-4.0,9.0,2.0,7.0,-3.0,1.0,1650849547229128.0
0.0,-3.0,4.0,1.0,7.0,12.0,4.0,1.0,1650849547229128.0
-1.0,0.0,1.0,-3.0,-5.0,-9.0,-3.0,-1.0,1650849547245975.0
0.0,-1.0,-5.0,-2.0,4.0,1.0,-1.0,-1.0,1650849547245975.0
-3.0,-2.0,0.0,-4.0,-6.0,-9.0,-4.0,-2.0,1650849547247314.0
0.0,0.0,-1.0,-2.0,-6.0,-4.0,-2.0,0.0,1650849547247314.0
-1.0,0.0,4.0,6.0,7.0,5.0,1.0,0.0,1650849547268374.0
-2.0,-2.0,-8.0,-6.0,-9.0,-5.0,-1.0,-1.0,1650849547268374.0
0.0,-2.0,-2.0,-7.0,-1.0,-5.0,1.0,1.0,1650849547270368.0
-1.0,-3.0,3.0,5.0,-2.0,5.0,0.0,-1.0,1650849547270368.0
1.0,2.0,3.0,3.0,4.0,-1.0,1.0,2.0,1650849547281402.0
-1.0,-2.0,1.0,4.0,-7.0,-5.0,-2.0,-2.0,1650849547281402.0
1.0,0.0,-2.0,-5.0,2.0,-4.0,-1.0,0.0,1650849547290315.0
-1.0,-1.0,7.0,2.0,0.0,2.0,2.0,-2.0,1650849547290315.0
-1.0,0.0,-3.0,1.0,11.0,4.0,-1.0,0.0,1650849547305302.0
0.0,-2.0,-5.0,-8.0,-8.0,4.0,-1.0,0.0,1650849547305302.0
0.0,0.0,-2.0,0.0,-8.0,-14.0,-3.0,0.0,1650849547307271.0
0.0,1.0,-1.0,9.0,6.0,1.0,0.0,1.0,1650849547307271.0
2.0,-3.0,-1.0,-5.0,-2.0,7.0,-1.0,1.0,1650849547328283.0
1.0,3.0,2.0,2.0,4.0,-1.0,-1.0,0.0,1650849547328283.0
-2.0,-4.0,-1.0,-2.0,-7.0,2.0,0.0,-1.0,1650849547329239.0
-1.0,2.0,-2.0,-3.0,-11.0,-1.0,-1.0,-2.0,1650849547329239.0
-2.0,-2.0,-4.0,2.0,15.0,-3.0,-2.0,-1.0,1650849547341181.0
-2.0,-2.0,-4.0,-5.0,-16.0,-19.0,-4.0,-2.0,1650849547341181.0
2.0,1.0,4.0,5.0,7.0,25.0,11.0,3.0,1650849547350155.0
0.0,1.0,-1.0,-5.0,15.0,21.0,6.0,2.0,1650849547350155.0
-1.0,-3.0,-2.0,1.0,-12.0,-14.0,-6.0,-2.0,1650849547365115.0
1.0,4.0,4.0,2.0,18.0,11.0,3.0,2.0,1650849547365115.0
-1.0,-3.0,-3.0,-1.0,-7.0,-9.0,-5.0,-1.0,1650849547367110.0
-1.0,-2.0,3.0,11.0,-3.0,-4.0,-2.0,-3.0,1650849547367110.0
0.0,0.0,-1.0,-1.0,-10.0,-9.0,-2.0,-2.0,1650849547388082.0
-1.0,-1.0,-6.0,-8.0,-5.0,2.0,-2.0,0.0,1650849547388082.0
0.0,0.0,1.0,-9.0,3.0,1.0,2.0,0.0,1650849547390061.0
2.0,0.0,0.0,-6.0,-7.0,-3.0,1.0,2.0,1650849547390061.0
1.0,-1.0,1.0,9.0,6.0,0.0,-2.0,1.0,1650849547402016.0
0.0,-1.0,2.0,2.0,-4.0,0.0,-3.0,-1.0,1650849547402016.0
-2.0,1.0,-3.0,0.0,4.0,-4.0,-2.0,0.0,1650849547410993.0
-1.0,-2.0,-4.0,-6.0,-6.0,3.0,3.0,0.0,1650849547410993.0
-1.0,0.0,1.0,-4.0,-5.0,-2.0,0.0,1.0,1650849547424955.0
-1.0,0.0,-3.0,3.0,8.0,6.0,2.0,-1.0,1650849547424955.0
-1.0,-1.0,-4.0,-1.0,-10.0,-24.0,-6.0,-3.0,1650849547426950.0
-1.0,0.0,3.0,0.0,2.0,11.0,-1.0,-1.0,1650849547426950.0
0.0,0.0,7.0,4.0,2.0,3.0,2.0,1.0,1650849547447963.0
-1.0,-3.0,-3.0,0.0,-3.0,-1.0,1.0,-1.0,1650849547447963.0
1.0,1.0,-2.0,3.0,12.0,11.0,1.0,1.0,1650849547449892.0
0.0,-2.0,-5.0,-4.0,-1.0,-16.0,-6.0,-2.0,1650849547449892.0
-1.0,-1.0,-6.0,-3.0,-5.0,-2.0,-1.0,-1.0,1650849547461977.0
0.0,0.0,2.0,-5.0,-8.0,-2.0,-1.0,-1.0,1650849547461977.0
-3.0,-3.0,-2.0,3.0,1.0,-1.0,0.0,-1.0,1650849547470957.0
0.0,2.0,-1.0,-12.0,4.0,1.0,-2.0,0.0,1650849547470957.0
0.0,-2.0,-5.0,6.0,0.0,-3.0,1.0,1.0,1650849547485936.0
0.0,-2.0,8.0,17.0,-14.0,-5.0,0.0,-1.0,1650849547485936.0
0.0,-2.0,4.0,-17.0,6.0,10.0,2.0,-1.0,1650849547486914.0
-2.0,-1.0,-2.0,7.0,5.0,2.0,0.0,-1.0,1650849547486914.0
-1.0,1.0,-2.0,-1.0,-3.0,-5.0,-9.0,-8.0,1650849547507885.0
3.0,1.0,-3.0,-4.0,0.0,-4.0,-5.0,-4.0,1650849547507885.0
-1.0,-2.0,-3.0,-5.0,-13.0,1.0,13.0,9.0,1650849547509862.0
0.0,0.0,-5.0,-18.0,-8.0,-16.0,-6.0,-1.0,1650849547509862.0
-1.0,0.0,-2.0,2.0,8.0,21.0,13.0,10.0,1650849547521848.0
2.0,2.0,6.0,11.0,-4.0,-5.0,0.0,0.0,1650849547521848.0
-2.0,-1.0,1.0,8.0,11.0,-2.0,-9.0,-9.0,1650849547530796.0
-6.0,-5.0,-3.0,0.0,4.0,9.0,-3.0,-6.0,1650849547530796.0
-5.0,1.0,-2.0,-9.0,-6.0,4.0,-13.0,-14.0,1650849547545974.0
-1.0,-10.0,-6.0,-1.0,7.0,5.0,9.0,1.0,1650849547545974.0
3.0,3.0,0.0,-1.0,-7.0,1.0,11.0,9.0,1650849547546785.0
-2.0,-4.0,-1.0,3.0,-7.0,-26.0,-11.0,1.0,1650849547546785.0
2.0,0.0,0.0,-6.0,-2.0,-3.0,-15.0,-1.0,1650849547567873.0
-4.0,0.0,-2.0,-9.0,-3.0,5.0,-5.0,-14.0,1650849547567873.0
9.0,12.0,7.0,10.0,9.0,4.0,21.0,24.0,1650849547569839.0
-10.0,-11.0,-7.0,5.0,3.0,9.0,-18.0,-28.0,1650849547569839.0
0.0,-1.0,0.0,-6.0,-9.0,-7.0,9.0,10.0,1650849547581872.0
12.0,7.0,4.0,-4.0,2.0,3.0,20.0,25.0,1650849547581872.0
-3.0,-1.0,-6.0,2.0,-1.0,-6.0,-23.0,-19.0,1650849547590783.0
0.0,7.0,7.0,1.0,0.0,-2.0,5.0,9.0,1650849547590783.0
-2.0,-7.0,-11.0,-4.0,-1.0,-3.0,-1.0,-9.0,1650849547605907.0
5.0,11.0,4.0,0.0,4.0,8.0,4.0,-2.0,1650849547605907.0
-9.0,-4.0,9.0,8.0,-2.0,8.0,-8.0,-4.0,1650849547606903.0
-17.0,-4.0,-6.0,-1.0,1.0,-1.0,3.0,-3.0,1650849547606903.0
5.0,0.0,1.0,-2.0,-1.0,-8.0,4.0,4.0,1650849547627916.0
1.0,0.0,-7.0,-2.0,-2.0,-2.0,6.0,5.0,1650849547627916.0
-15.0,-2.0,-1.0,4.0,-1.0,-4.0,-6.0,-4.0,1650849547629842.0
1.0,-3.0,1.0,-5.0,4.0,1.0,-7.0,-5.0,1650849547629842.0
9.0,-5.0,-5.0,-5.0,-15.0,-2.0,6.0,-2.0,1650849547641810.0
-8.0,-2.0,-2.0,1.0,13.0,10.0,14.0,15.0,1650849547641810.0
22.0,3.0,0.0,0.0,-1.0,2.0,-6.0,-10.0,1650849547650786.0
4.0,3.0,-2.0,-3.0,-8.0,-26.0,0.0,6.0,1650849547650786.0
-11.0,2.0,1.0,1.0,4.0,42.0,10.0,-6.0,1650849547665774.0
5.0,0.0,-2.0,-2.0,2.0,-12.0,-18.0,-4.0,1650849547665774.0
3.0,-5.0,-3.0,-3.0,-3.0,-8.0,-4.0,-7.0,1650849547666752.0
-18.0,-6.0,1.0,3.0,-3.0,4.0,11.0,9.0,1650849547666752.0
19.0,4.0,0.0,2.0,2.0,-24.0,-7.0,1.0,1650849547687714.0
11.0,-3.0,2.0,-2.0,-3.0,11.0,-7.0,-4.0,1650849547687714.0
-39.0,-7.0,-6.0,-4.0,2.0,9.0,6.0,-4.0,1650849547689685.0
32.0,4.0,0.0,-3.0,-6.0,-2.0,5.0,5.0,1650849547689685.0
-27.0,6.0,7.0,3.0,8.0,-5.0,-1.0,3.0,1650849547710638.0
9.0,-2.0,0.0,0.0,-5.0,-6.0,-5.0,-3.0,1650849547710638.0
-6.0,-3.0,-6.0,-6.0,-1.0,-7.0,0.0,7.0,1650849547712621.0
10.0,9.0,12.0,9.0,2.0,14.0,0.0,-4.0,1650849547712621.0
-16.0,-10.0,-6.0,-4.0,-3.0,-5.0,2.0,-4.0,1650849547725587.0
-38.0,2.0,-5.0,-1.0,0.0,-3.0,-6.0,-6.0,1650849547725587.0
35.0,3.0,3.0,-2.0,-2.0,3.0,2.0,11.0,1650849547726584.0
-18.0,-4.0,-3.0,-8.0,-1.0,1.0,1.0,-1.0,1650849547726584.0
3.0,0.0,1.0,5.0,5.0,0.0,-1.0,0.0,1650849547747685.0
-17.0,-4.0,5.0,3.0,-6.0,-10.0,-10.0,-10.0,1650849547747685.0
34.0,5.0,-2.0,-1.0,-11.0,-4.0,-1.0,0.0,1650849547749613.0
-45.0,-4.0,0.0,7.0,11.0,7.0,3.0,4.0,1650849547749613.0
-2.0,-5.0,-10.0,-9.0,1.0,-5.0,-3.0,-13.0,1650849547770577.0
16.0,0.0,0.0,0.0,-1.0,0.0,0.0,7.0,1650849547770577.0
16.0,1.0,-7.0,-1.0,-13.0,-20.0,-5.0,5.0,1650849547772557.0
-41.0,-1.0,5.0,2.0,11.0,18.0,6.0,-2.0,1650849547772557.0
1.0,5.0,0.0,2.0,4.0,16.0,9.0,8.0,1650849547785545.0
-1.0,-3.0,5.0,3.0,-4.0,-7.0,-2.0,-9.0,1650849547785545.0
-3.0,-5.0,-3.0,-5.0,0.0,-2.0,-2.0,-8.0,1650849547787511.0
13.0,-4.0,-8.0,-5.0,-9.0,-16.0,-4.0,6.0,1650849547787511.0
-6.0,-1.0,4.0,3.0,4.0,-4.0,-8.0,-6.0,1650849547808455.0
-22.0,1.0,5.0,-4.0,1.0,8.0,1.0,4.0,1650849547808455.0
-8.0,2.0,9.0,5.0,2.0,0.0,9.0,-4.0,1650849547809453.0
39.0,-9.0,-9.0,2.0,-2.0,-1.0,5.0,0.0,1650849547809453.0
2.0,7.0,-1.0,-4.0,-5.0,3.0,-6.0,-2.0,1650849547830466.0
25.0,-8.0,-5.0,-3.0,-5.0,-12.0,3.0,9.0,1650849547830466.0
-32.0,3.0,3.0,0.0,-5.0,5.0,2.0,-1.0,1650849547832408.0
20.0,-6.0,8.0,14.0,10.0,11.0,-1.0,-23.0,1650849547832408.0
-9.0,3.0,1.0,-1.0,-4.0,-7.0,-2.0,26.0,1650849547845925.0
2.0,-1.0,-4.0,-5.0,-5.0,-11.0,-1.0,-7.0,1650849547845925.0
-57.0,-9.0,-7.0,-7.0,6.0,7.0,-10.0,-14.0,1650849547847401.0
36.0,12.0,-9.0,-1.0,-1.0,6.0,6.0,5.0,1650849547847401.0
28.0,-1.0,9.0,-5.0,-14.0,-10.0,0.0,4.0,1650849547868488.0
-10.0,-9.0,-22.0,-2.0,8.0,2.0,-4.0,-6.0,1650849547868488.0
-10.0,1.0,10.0,-2.0,-2.0,-8.0,0.0,5.0,1650849547869496.0
-16.0,0.0,0.0,-3.0,-7.0,-4.0,-2.0,-4.0,1650849547869496.0
-14.0,-6.0,2.0,9.0,13.0,3.0,2.0,-3.0,1650849547890429.0
17.0,10.0,6.0,-3.0,-1.0,-4.0,-2.0,7.0,1650849547890429.0
11.0,3.0,-6.0,1.0,3.0,23.0,0.0,-1.0,1650849547892425.0
6.0,-12.0,-4.0,-16.0,-2.0,-7.0,2.0,-1.0,1650849547892425.0
5.0,-1.0,-13.0,-12.0,-10.0,-5.0,-4.0,0.0,1650849547905390.0
22.0,-5.0,16.0,-2.0,5.0,6.0,-1.0,-4.0,1650849547905390.0
-21.0,4.0,24.0,39.0,14.0,0.0,6.0,-1.0,1650849547911440.0
-26.0,8.0,9.0,-9.0,-8.0,-3.0,-6.0,-3.0,1650849547911440.0
-2.0,-2.0,13.0,-2.0,-6.0,-18.0,-1.0,-1.0,1650849547928334.0
-2.0,-1.0,-36.0,-6.0,6.0,20.0,0.0,4.0,1650849547928334.0
40.0,-2.0,-1.0,-6.0,3.0,5.0,-6.0,1.0,1650849547929331.0
-17.0,-7.0,5.0,-1.0,1.0,-1.0,1.0,-17.0,1650849547929331.0
-3.0,-6.0,5.0,3.0,-2.0,-5.0,1.0,-1.0,1650849547950368.0
29.0,10.0,0.0,-1.0,-7.0,-3.0,-4.0,4.0,1650849547950368.0
13.0,2.0,-10.0,-6.0,-2.0,-10.0,2.0,0.0,1650849547952364.0
-19.0,7.0,6.0,7.0,3.0,2.0,2.0,11.0,1650849547952364.0
22.0,-18.0,-15.0,-5.0,0.0,7.0,-2.0,-11.0,1650849547964501.0
-24.0,-3.0,-7.0,9.0,-4.0,-11.0,-7.0,-2.0,1650849547964501.0
5.0,0.0,1.0,-15.0,-4.0,-2.0,9.0,1.0,1650849547979530.0
12.0,6.0,6.0,1.0,1.0,7.0,-2.0,11.0,1650849547979530.0
-4.0,2.0,2.0,16.0,10.0,3.0,1.0,-5.0,1650849547988478.0
-19.0,-2.0,17.0,12.0,-9.0,-9.0,-8.0,-4.0,1650849547988478.0
2.0,0.0,4.0,8.0,20.0,1.0,-4.0,-2.0,1650849547989437.0
-8.0,-9.0,-22.0,-20.0,-18.0,-7.0,4.0,12.0,1650849547989437.0
-7.0,-3.0,-8.0,-9.0,4.0,9.0,1.0,-3.0,1650849548010480.0
25.0,1.0,3.0,-10.0,-3.0,-2.0,4.0,-12.0,1650849548010480.0
-46.0,2.0,16.0,10.0,-5.0,-10.0,-6.0,-4.0,1650849548012483.0
51.0,9.0,-2.0,6.0,8.0,-2.0,-1.0,9.0,1650849548012483.0
-6.0,-9.0,-7.0,-10.0,-3.0,3.0,-2.0,6.0,1650849548024422.0
-26.0,0.0,10.0,-3.0,-3.0,0.0,4.0,-9.0,1650849548024422.0
22.0,-8.0,-25.0,-19.0,-6.0,-1.0,-1.0,14.0,1650849548031466.0
-11.0,-7.0,6.0,9.0,2.0,3.0,-11.0,-1.0,1650849548031466.0
-7.0,2.0,-12.0,-7.0,-6.0,-9.0,19.0,-12.0,1650849548047958.0
14.0,1.0,16.0,13.0,6.0,5.0,-1.0,4.0,1650849548047958.0
-22.0,5.0,6.0,1.0,0.0,7.0,3.0,-1.0,1650849548049914.0
-80.0,-12.0,-22.0,-13.0,-8.0,-15.0,3.0,-8.0,1650849548049914.0
10.0,4.0,-1.0,-4.0,-2.0,5.0,-7.0,4.0,1650849548070974.0
31.0,5.0,-7.0,-7.0,6.0,3.0,6.0,-4.0,1650849548070974.0
29.0,8.0,14.0,22.0,8.0,9.0,-8.0,6.0,1650849548071949.0
10.0,-2.0,13.0,-9.0,-2.0,-5.0,-9.0,-12.0,1650849548071949.0
33.0,9.0,-48.0,-14.0,-13.0,-13.0,-1.0,10.0,1650849548084942.0
-10.0,-3.0,5.0,9.0,-1.0,-3.0,3.0,1.0,1650849548084942.0
11.0,-14.0,-11.0,-20.0,-8.0,2.0,0.0,-3.0,1650849548098965.0
18.0,9.0,13.0,6.0,9.0,3.0,0.0,2.0,1650849548098965.0
-7.0,5.0,36.0,32.0,5.0,10.0,14.0,2.0,1650849548107905.0
-2.0,-2.0,-21.0,-12.0,1.0,-6.0,-13.0,6.0,1650849548107905.0
-28.0,-3.0,-2.0,-10.0,-10.0,-8.0,0.0,-8.0,1650849548109875.0
36.0,9.0,-13.0,-6.0,2.0,3.0,-5.0,9.0,1650849548109875.0
-7.0,-1.0,7.0,1.0,0.0,2.0,11.0,2.0,1650849548145843.0
-26.0,-13.0,-5.0,-1.0,-2.0,0.0,-1.0,-8.0,1650849548145843.0
-5.0,1.0,2.0,3.0,-1.0,2.0,1.0,7.0,1650849548147798.0
14.0,3.0,-4.0,-6.0,-12.0,-12.0,0.0,-3.0,1650849548147798.0
28.0,4.0,0.0,1.0,13.0,13.0,-13.0,9.0,1650849548152758.0
13.0,-4.0,-7.0,2.0,-4.0,-6.0,9.0,-1.0,1650849548152758.0
60.0,4.0,-7.0,-9.0,4.0,8.0,1.0,-1.0,1650849548154753.0
72.0,16.0,4.0,7.0,3.0,0.0,-1.0,1.0,1650849548154753.0
-17.0,-5.0,17.0,16.0,-4.0,-13.0,-12.0,-3.0,1650849548167745.0
5.0,-5.0,-2.0,-6.0,-3.0,10.0,3.0,0.0,1650849548167745.0
-39.0,2.0,-2.0,3.0,-7.0,-8.0,8.0,-4.0,1650849548169733.0
-9.0,-6.0,-20.0,-10.0,1.0,4.0,2.0,-1.0,1650849548169733.0
-12.0,-1.0,10.0,-5.0,2.0,-1.0,-9.0,-7.0,1650849548190660.0
-24.0,8.0,5.0,6.0,-7.0,-5.0,-10.0,0.0,1650849548190660.0
-1.0,-9.0,-9.0,-1.0,-3.0,-7.0,-12.0,-14.0,1650849548191654.0
12.0,1.0,8.0,5.0,5.0,15.0,12.0,18.0,1650849548191654.0
-23.0,-10.0,-6.0,-7.0,-3.0,-5.0,-8.0,-10.0,1650849548204618.0
-17.0,-5.0,6.0,-16.0,-11.0,-10.0,-7.0,-1.0,1650849548204618.0
6.0,2.0,-13.0,-6.0,4.0,-4.0,-8.0,0.0,1650849548211622.0
-13.0,9.0,16.0,23.0,5.0,18.0,9.0,-1.0,1650849548211622.0
23.0,-9.0,0.0,-2.0,5.0,-8.0,-4.0,8.0,1650849548227558.0
19.0,3.0,5.0,-1.0,-5.0,-6.0,1.0,9.0,1650849548227558.0
30.0,1.0,-5.0,-2.0,3.0,4.0,4.0,-2.0,1650849548229553.0
-9.0,-9.0,-1.0,2.0,1.0,-2.0,-2.0,-3.0,1650849548229553.0
1.0,6.0,2.0,3.0,-5.0,3.0,1.0,-2.0,1650849548250507.0
-5.0,1.0,4.0,11.0,4.0,-1.0,4.0,1.0,1650849548250507.0
-2.0,-3.0,-3.0,-7.0,-4.0,-7.0,0.0,0.0,1650849548252490.0
-6.0,-3.0,-6.0,-15.0,1.0,3.0,-4.0,1.0,1650849548252490.0
-2.0,6.0,5.0,12.0,0.0,2.0,-2.0,-5.0,1650849548264546.0
-38.0,-9.0,1.0,6.0,9.0,7.0,-4.0,-19.0,1650849548264546.0
21.0,7.0,1.0,0.0,-6.0,-4.0,4.0,6.0,1650849548273552.0
1.0,-6.0,-1.0,1.0,-4.0,-6.0,-1.0,0.0,1650849548273552.0
-15.0,8.0,-2.0,-11.0,-2.0,-2.0,-1.0,7.0,1650849548288485.0
-61.0,-11.0,-8.0,-6.0,0.0,-5.0,7.0,-9.0,1650849548288485.0
-51.0,-7.0,-5.0,-9.0,3.0,20.0,-5.0,-16.0,1650849548289492.0
70.0,12.0,22.0,36.0,-2.0,-7.0,5.0,17.0,1650849548289492.0
-25.0,-7.0,7.0,8.0,4.0,0.0,-8.0,-7.0,1650849548310427.0
15.0,3.0,-13.0,-33.0,-7.0,1.0,-2.0,1.0,1650849548310427.0
0.0,-1.0,-16.0,-9.0,-5.0,-7.0,-1.0,0.0,1650849548312433.0
-43.0,-3.0,11.0,16.0,6.0,-11.0,-7.0,-7.0,1650849548312433.0
16.0,8.0,-1.0,-2.0,0.0,12.0,8.0,0.0,1650849548324415.0
21.0,1.0,2.0,5.0,-7.0,5.0,2.0,10.0,1650849548324415.0
45.0,-11.0,-5.0,-2.0,6.0,-4.0,3.0,8.0,1650849548333364.0
-19.0,10.0,-5.0,-16.0,-11.0,-11.0,-12.0,-14.0,1650849548333364.0
16.0,-10.0,1.0,1.0,-2.0,5.0,9.0,3.0,1650849548348473.0
-41.0,-4.0,-1.0,8.0,1.0,-5.0,0.0,-5.0,1650849548348473.0
14.0,-3.0,12.0,6.0,-3.0,3.0,-5.0,1.0,1650849548349436.0
12.0,0.0,-11.0,-2.0,-4.0,-17.0,1.0,-1.0,1650849548349436.0
-2.0,5.0,0.0,-2.0,7.0,23.0,3.0,-4.0,1650849548370406.0
19.0,-5.0,-6.0,-14.0,-8.0,-1.0,2.0,4.0,1650849548370406.0
32.0,11.0,17.0,22.0,7.0,-12.0,-1.0,6.0,1650849548372372.0
-18.0,-5.0,-10.0,-4.0,-1.0,9.0,3.0,-2.0,1650849548372372.0
-10.0,-14.0,-7.0,-14.0,2.0,-3.0,-2.0,0.0,1650849548384421.0
67.0,12.0,-1.0,1.0,3.0,4.0,-4.0,1.0,1650849548384421.0
10.0,4.0,0.0,1.0,-17.0,-8.0,2.0,6.0,1650849548393400.0
-41.0,-7.0,7.0,4.0,18.0,11.0,-3.0,-11.0,1650849548393400.0
-13.0,3.0,-9.0,-13.0,-18.0,-7.0,1.0,5.0,1650849548408387.0
-4.0,-3.0,0.0,18.0,21.0,3.0,0.0,8.0,1650849548408387.0
16.0,-3.0,0.0,8.0,-1.0,-3.0,-2.0,-17.0,1650849548414371.0
-14.0,8.0,4.0,-9.0,-8.0,4.0,0.0,12.0,1650849548414371.0
9.0,5.0,-1.0,-1.0,-6.0,-19.0,-10.0,-8.0,1650849548430368.0
-29.0,-6.0,3.0,6.0,8.0,12.0,8.0,-6.0,1650849548430368.0
-49.0,-4.0,-5.0,-11.0,-3.0,8.0,-6.0,1.0,1650849548432320.0
2.0,-5.0,-2.0,-5.0,1.0,4.0,15.0,0.0,1650849548432320.0
3.0,-2.0,3.0,8.0,0.0,-9.0,-8.0,-3.0,1650849548444265.0
-32.0,1.0,-7.0,-12.0,-18.0,-14.0,-2.0,6.0,1650849548444265.0
-16.0,1.0,7.0,11.0,11.0,-2.0,0.0,1.0,1650849548453239.0
2.0,-5.0,5.0,9.0,-6.0,-1.0,-6.0,-4.0,1650849548453239.0
-46.0,-5.0,-9.0,-10.0,0.0,-7.0,2.0,-6.0,1650849548468429.0
21.0,-3.0,2.0,2.0,6.0,17.0,3.0,2.0,1650849548468429.0
-4.0,5.0,-1.0,-6.0,-5.0,-3.0,0.0,-2.0,1650849548469426.0
-23.0,-4.0,-6.0,12.0,3.0,3.0,-1.0,-4.0,1650849548469426.0
-8.0,2.0,-3.0,-11.0,-4.0,-2.0,2.0,-3.0,1650849548490399.0
13.0,2.0,8.0,10.0,3.0,-2.0,-6.0,4.0,1650849548490399.0
-3.0,1.0,4.0,-7.0,1.0,-1.0,0.0,1.0,1650849548492385.0
9.0,2.0,-5.0,-5.0,-6.0,-11.0,-5.0,-3.0,1650849548492385.0
22.0,-13.0,-1.0,2.0,8.0,18.0,7.0,7.0,1650849548504360.0
1.0,6.0,-9.0,-11.0,6.0,5.0,-1.0,-7.0,1650849548504360.0
-14.0,-7.0,11.0,8.0,-1.0,-9.0,-2.0,0.0,1650849548513310.0
9.0,-4.0,-9.0,-3.0,-4.0,-3.0,-7.0,-9.0,1650849548513310.0
-7.0,5.0,8.0,3.0,-9.0,-5.0,3.0,0.0,1650849548528270.0
19.0,1.0,6.0,-4.0,-6.0,-8.0,1.0,3.0,1650849548528270.0
6.0,-2.0,-12.0,-4.0,4.0,15.0,2.0,2.0,1650849548529273.0
0.0,-6.0,-10.0,-10.0,-5.0,-12.0,-7.0,-3.0,1650849548529273.0
-26.0,4.0,2.0,5.0,-10.0,-5.0,-4.0,-6.0,1650849548550210.0
5.0,-1.0,5.0,5.0,13.0,12.0,2.0,-1.0,1650849548550210.0
-14.0,1.0,-13.0,-9.0,-11.0,-15.0,-1.0,0.0,1650849548552205.0
3.0,0.0,1.0,-6.0,7.0,16.0,6.0,0.0,1650849548552205.0
12.0,3.0,3.0,-1.0,1.0,-2.0,0.0,0.0,1650849548564254.0
-27.0,-2.0,-1.0,6.0,-3.0,-10.0,-3.0,-1.0,1650849548564254.0
2.0,-5.0,-2.0,-4.0,2.0,3.0,0.0,0.0,1650849548573234.0
17.0,3.0,0.0,0.0,-4.0,-10.0,-1.0,2.0,1650849548573234.0
18.0,1.0,-2.0,-2.0,6.0,16.0,-2.0,0.0,1650849548588343.0
2.0,-4.0,0.0,-4.0,-8.0,-9.0,6.0,3.0,1650849548588343.0
9.0,3.0,-1.0,4.0,-9.0,-3.0,-1.0,-4.0,1650849548589341.0
13.0,-1.0,6.0,2.0,11.0,3.0,-1.0,3.0,1650849548589341.0
3.0,3.0,2.0,0.0,4.0,-9.0,-3.0,-4.0,1650849548610258.0
0.0,0.0,-4.0,-2.0,-1.0,22.0,13.0,14.0,1650849548610258.0
-10.0,-4.0,0.0,-5.0,-10.0,-9.0,-2.0,-7.0,1650849548612253.0
-5.0,0.0,0.0,-2.0,-2.0,-9.0,-11.0,2.0,1650849548612253.0
6.0,-1.0,-1.0,0.0,4.0,-4.0,-6.0,-7.0,1650849548624220.0
40.0,7.0,6.0,5.0,7.0,2.0,-6.0,-4.0,1650849548624220.0
1.0,0.0,10.0,9.0,-1.0,0.0,17.0,11.0,1650849548633203.0
-1.0,-8.0,-21.0,-10.0,-8.0,-3.0,-4.0,-2.0,1650849548633203.0
26.0,-2.0,3.0,1.0,0.0,-1.0,-3.0,1.0,1650849548648224.0
-3.0,0.0,-1.0,-2.0,-13.0,-17.0,-6.0,-2.0,1650849548648224.0
-6.0,0.0,5.0,1.0,16.0,22.0,-11.0,-8.0,1650849548650151.0
0.0,-1.0,-2.0,-6.0,2.0,2.0,18.0,6.0,1650849548650151.0
12.0,-2.0,-1.0,-1.0,-5.0,2.0,6.0,17.0,1650849548670125.0
-10.0,-1.0,1.0,-1.0,-6.0,-5.0,-5.0,-13.0,1650849548670125.0
-35.0,-10.0,-3.0,0.0,6.0,-6.0,-3.0,-3.0,1650849548672104.0
-9.0,-1.0,-1.0,-4.0,-7.0,-4.0,-10.0,-5.0,1650849548672104.0
-9.0,2.0,-2.0,1.0,-5.0,-9.0,0.0,0.0,1650849548693063.0
-2.0,-3.0,-5.0,-6.0,-2.0,20.0,-3.0,-1.0,1650849548693063.0
-5.0,3.0,8.0,19.0,15.0,-2.0,3.0,6.0,1650849548695031.0
2.0,1.0,5.0,-1.0,-7.0,4.0,-3.0,-3.0,1650849548695031.0
-9.0,-4.0,-8.0,-1.0,-4.0,-9.0,1.0,-4.0,1650849548708024.0
-7.0,-6.0,-5.0,-9.0,-3.0,-11.0,-2.0,3.0,1650849548708024.0
13.0,0.0,-11.0,-5.0,-8.0,1.0,-1.0,-3.0,1650849548710008.0
-2.0,0.0,8.0,8.0,9.0,1.0,1.0,2.0,1650849548710008.0
2.0,2.0,2.0,-5.0,-10.0,-16.0,-6.0,-7.0,1650849548730950.0
-5.0,-1.0,-15.0,3.0,9.0,21.0,2.0,-4.0,1650849548730950.0
4.0,0.0,1.0,2.0,2.0,3.0,2.0,4.0,1650849548731932.0
-3.0,-4.0,-2.0,-7.0,-9.0,-4.0,0.0,0.0,1650849548731932.0
-9.0,0.0,1.0,-6.0,-7.0,0.0,-2.0,-3.0,1650849548752935.0
0.0,2.0,8.0,14.0,6.0,0.0,-1.0,-3.0,1650849548752935.0
3.0,-3.0,-10.0,-7.0,4.0,-3.0,-4.0,-2.0,1650849548754888.0
-3.0,-2.0,-2.0,-4.0,-3.0,0.0,3.0,1.0,1650849548754888.0
2.0,0.0,-12.0,1.0,3.0,7.0,1.0,4.0,1650849548768007.0
-2.0,1.0,3.0,-5.0,-14.0,-33.0,-7.0,-4.0,1650849548768007.0
7.0,1.0,5.0,-3.0,-4.0,29.0,8.0,2.0,1650849548769935.0
-2.0,0.0,-2.0,2.0,11.0,8.0,-1.0,-6.0,1650849548769935.0
0.0,1.0,2.0,4.0,4.0,2.0,4.0,3.0,1650849548790035.0
-1.0,-1.0,7.0,-3.0,1.0,-6.0,-3.0,1.0,1650849548790035.0
-4.0,0.0,-11.0,-4.0,-10.0,-17.0,-5.0,-2.0,1650849548792031.0
-1.0,1.0,4.0,4.0,3.0,4.0,2.0,0.0,1650849548792031.0
-4.0,-5.0,1.0,-2.0,-10.0,-10.0,0.0,-2.0,1650849548813043.0
0.0,-1.0,-1.0,3.0,13.0,18.0,1.0,0.0,1650849548813043.0
1.0,1.0,3.0,-7.0,-11.0,-6.0,-2.0,0.0,1650849548814999.0
1.0,-1.0,-5.0,-3.0,6.0,7.0,3.0,3.0,1650849548814999.0
1.0,1.0,3.0,3.0,2.0,-2.0,-1.0,-1.0,1650849548826936.0
0.0,-3.0,-3.0,2.0,-1.0,-5.0,-1.0,-2.0,1650849548826936.0
0.0,-1.0,-2.0,-5.0,4.0,-1.0,0.0,1.0,1650849548833988.0
-4.0,1.0,11.0,6.0,-4.0,-2.0,-3.0,0.0,1650849548833988.0
1.0,6.0,13.0,10.0,14.0,12.0,6.0,1.0,1650849548850900.0
-5.0,-10.0,-32.0,-20.0,-16.0,-8.0,-4.0,-3.0,1650849548850900.0
1.0,0.0,-1.0,3.0,3.0,-5.0,2.0,-1.0,1650849548851871.0
-2.0,0.0,0.0,-1.0,-2.0,-4.0,-3.0,-2.0,1650849548851871.0
-1.0,-1.0,4.0,2.0,5.0,0.0,-2.0,-2.0,1650849548873231.0
0.0,5.0,9.0,2.0,3.0,16.0,1.0,1.0,1650849548873231.0
0.0,-2.0,-2.0,-4.0,-5.0,-13.0,-3.0,2.0,1650849548874228.0
1.0,0.0,-4.0,-6.0,-5.0,-1.0,2.0,1.0,1650849548874228.0
0.0,0.0,-1.0,-4.0,-2.0,3.0,-1.0,1.0,1650849548887221.0
0.0,-1.0,-6.0,0.0,-1.0,-13.0,-1.0,-1.0,1650849548887221.0
-2.0,0.0,3.0,1.0,9.0,22.0,1.0,0.0,1650849548894174.0
0.0,0.0,4.0,7.0,4.0,-1.0,0.0,-2.0,1650849548894174.0
-2.0,-4.0,0.0,2.0,-3.0,-1.0,0.0,-3.0,1650849548910160.0
-1.0,0.0,-7.0,-4.0,-1.0,-7.0,-2.0,-2.0,1650849548910160.0
1.0,-3.0,-4.0,-3.0,-11.0,-4.0,-1.0,1.0,1650849548912139.0
-2.0,1.0,3.0,1.0,7.0,3.0,0.0,-3.0,1650849548912139.0
1.0,-2.0,-8.0,0.0,3.0,3.0,2.0,2.0,1650849548933190.0
0.0,-1.0,7.0,6.0,0.0,-6.0,-2.0,-2.0,1650849548933190.0
1.0,-2.0,-1.0,-2.0,-1.0,5.0,0.0,0.0,1650849548934210.0
2.0,-2.0,-11.0,-9.0,-8.0,-8.0,-1.0,-1.0,1650849548934210.0
-3.0,-2.0,-1.0,-1.0,-3.0,-3.0,-4.0,-3.0,1650849548947226.0
0.0,0.0,11.0,7.0,10.0,14.0,4.0,2.0,1650849548947226.0
0.0,1.0,4.0,2.0,-2.0,-9.0,-4.0,-2.0,1650849548954163.0
-1.0,-2.0,-2.0,-3.0,-10.0,-5.0,-3.0,-2.0,1650849548954163.0
-3.0,-4.0,-6.0,-3.0,0.0,-2.0,-1.0,-2.0,1650849548970180.0
0.0,-1.0,-1.0,0.0,-1.0,-7.0,-1.0,1.0,1650849548970180.0
-1.0,-2.0,-4.0,-3.0,4.0,6.0,1.0,0.0,1650849548972175.0
0.0,3.0,11.0,11.0,-1.0,8.0,1.0,-2.0,1650849548972175.0
1.0,4.0,5.0,-7.0,7.0,6.0,2.0,4.0,1650849548993103.0
-1.0,2.0,10.0,8.0,-2.0,-4.0,-1.0,-2.0,1650849548993103.0
-3.0,-4.0,-9.0,-6.0,-2.0,-14.0,-3.0,-2.0,1650849548995072.0
3.0,-4.0,-19.0,-5.0,10.0,15.0,3.0,1.0,1650849548995072.0
-2.0,2.0,8.0,3.0,-1.0,1.0,-2.0,-3.0,1650849549007065.0
-1.0,1.0,3.0,-3.0,-8.0,-1.0,1.0,1.0,1650849549007065.0
-3.0,-2.0,-2.0,-3.0,2.0,-4.0,-3.0,-3.0,1650849549014572.0
7.0,2.0,-3.0,-6.0,-7.0,-11.0,3.0,6.0,1650849549014572.0
0.0,-2.0,-1.0,6.0,0.0,6.0,1.0,1.0,1650849549031007.0
0.0,-4.0,-5.0,-4.0,3.0,1.0,0.0,0.0,1650849549031007.0
-2.0,0.0,3.0,1.0,-7.0,-7.0,-2.0,-2.0,1650849549031991.0
-8.0,-2.0,0.0,-10.0,-8.0,-13.0,-2.0,-6.0,1650849549031991.0
3.0,2.0,1.0,15.0,15.0,31.0,5.0,-2.0,1650849549052961.0
0.0,2.0,2.0,3.0,0.0,-1.0,0.0,-1.0,1650849549052961.0
1.0,-1.0,-2.0,-6.0,-5.0,-5.0,-2.0,2.0,1650849549054949.0
-2.0,-1.0,-1.0,-6.0,-8.0,-8.0,-3.0,1.0,1650849549054949.0
-8.0,-3.0,1.0,-5.0,-9.0,-13.0,-4.0,-2.0,1650849549066985.0
-2.0,-1.0,-2.0,-2.0,1.0,-6.0,-1.0,-3.0,1650849549066985.0
1.0,2.0,-1.0,1.0,1.0,14.0,4.0,2.0,1650849549073996.0
-1.0,1.0,-5.0,-4.0,0.0,-2.0,-3.0,-1.0,1650849549073996.0
-6.0,-6.0,-1.0,3.0,6.0,-1.0,-1.0,-3.0,1650849549090562.0
1.0,0.0,4.0,2.0,-4.0,6.0,3.0,2.0,1650849549090562.0
8.0,7.0,-2.0,-2.0,-2.0,-9.0,-2.0,1.0,1650849549092510.0
2.0,-6.0,1.0,-2.0,-1.0,4.0,2.0,3.0,1650849549092510.0
-2.0,0.0,-6.0,-4.0,8.0,2.0,-1.0,-1.0,1650849549112735.0
-7.0,-5.0,-1.0,-4.0,-7.0,-17.0,-5.0,-5.0,1650849549112735.0
-8.0,-2.0,6.0,9.0,4.0,17.0,1.0,-5.0,1650849549114715.0
-1.0,4.0,7.0,6.0,-4.0,-3.0,-3.0,-5.0,1650849549114715.0
-2.0,-9.0,-6.0,-3.0,-5.0,-11.0,-2.0,0.0,1650849549127695.0
13.0,8.0,-3.0,-1.0,2.0,6.0,4.0,12.0,1650849549127695.0
1.0,2.0,-1.0,0.0,1.0,-2.0,2.0,0.0,1650849549134703.0
-4.0,2.0,7.0,3.0,3.0,5.0,-3.0,-2.0,1650849549134703.0
-4.0,-1.0,-3.0,-7.0,-8.0,-16.0,-4.0,-4.0,1650849549150616.0
-5.0,-7.0,-3.0,-1.0,-5.0,-1.0,-5.0,-6.0,1650849549150616.0
2.0,3.0,1.0,2.0,1.0,14.0,7.0,2.0,1650849549152601.0
-5.0,-4.0,2.0,6.0,11.0,5.0,2.0,0.0,1650849549152601.0
10.0,9.0,5.0,-5.0,-7.0,-6.0,1.0,2.0,1650849549180647.0
3.0,0.0,-2.0,0.0,6.0,-4.0,-2.0,1.0,1650849549180647.0
-3.0,-8.0,-4.0,-4.0,-3.0,-8.0,-5.0,-2.0,1650849549181645.0
-4.0,-2.0,1.0,0.0,-3.0,1.0,-3.0,0.0,1650849549181645.0
-2.0,-1.0,-3.0,-3.0,-7.0,-21.0,-3.0,-2.0,1650849549186632.0
0.0,1.0,0.0,2.0,17.0,44.0,8.0,2.0,1650849549186632.0
-4.0,-4.0,-1.0,-1.0,-8.0,-11.0,-4.0,-2.0,1650849549195608.0
-2.0,-1.0,-4.0,-3.0,1.0,2.0,2.0,1.0,1650849549195608.0
5.0,2.0,-1.0,-3.0,-3.0,-8.0,-1.0,0.0,1650849549210686.0
0.0,2.0,5.0,6.0,-1.0,-8.0,-1.0,-3.0,1650849549210686.0
3.0,-2.0,6.0,1.0,10.0,13.0,3.0,3.0,1650849549212704.0
-1.0,-1.0,-3.0,-7.0,-10.0,-7.0,-2.0,0.0,1650849549212704.0
-1.0,-2.0,-4.0,3.0,4.0,7.0,-2.0,0.0,1650849549232695.0
-5.0,-2.0,2.0,1.0,-3.0,-4.0,-2.0,-3.0,1650849549232695.0
-3.0,-4.0,2.0,5.0,6.0,-1.0,-2.0,-3.0,1650849549234622.0
9.0,5.0,-11.0,-14.0,-6.0,-4.0,1.0,3.0,1650849549234622.0
-3.0,-8.0,4.0,7.0,-5.0,0.0,-1.0,-1.0,1650849549247587.0
-2.0,-1.0,3.0,-2.0,2.0,5.0,-2.0,-3.0,1650849549247587.0
-1.0,-1.0,-9.0,1.0,0.0,-2.0,0.0,1.0,1650849549255566.0
-1.0,-1.0,0.0,3.0,8.0,2.0,1.0,-1.0,1650849549255566.0
-3.0,0.0,-9.0,-9.0,-8.0,-15.0,-3.0,-2.0,1650849549270631.0
0.0,1.0,-2.0,1.0,0.0,21.0,8.0,2.0,1650849549270631.0
4.0,2.0,4.0,1.0,6.0,-2.0,-2.0,1.0,1650849549272623.0
-3.0,-3.0,-4.0,-2.0,-14.0,-3.0,-3.0,-2.0,1650849549272623.0
1.0,3.0,-4.0,3.0,11.0,5.0,2.0,2.0,1650849549292979.0
-1.0,-2.0,3.0,0.0,-6.0,-22.0,-6.0,-1.0,1650849549292979.0
0.0,2.0,-2.0,-5.0,-4.0,6.0,3.0,0.0,1650849549294975.0
0.0,-1.0,-1.0,3.0,2.0,2.0,1.0,-1.0,1650849549294975.0
-1.0,2.0,8.0,8.0,4.0,6.0,-1.0,-1.0,1650849549306941.0
-1.0,1.0,-6.0,-3.0,-4.0,-6.0,-2.0,-1.0,1650849549306941.0
-3.0,-3.0,-3.0,-6.0,-8.0,-3.0,0.0,2.0,1650849549315364.0
2.0,-3.0,-2.0,-1.0,5.0,-3.0,-2.0,-2.0,1650849549315364.0
0.0,1.0,-3.0,-3.0,1.0,8.0,4.0,1.0,1650849549330394.0
-2.0,-3.0,9.0,4.0,1.0,0.0,-1.0,-1.0,1650849549330394.0
1.0,3.0,2.0,1.0,-1.0,-8.0,-1.0,-1.0,1650849549332348.0
-1.0,-7.0,-6.0,3.0,-11.0,-2.0,-3.0,0.0,1650849549332348.0
0.0,2.0,-5.0,-2.0,8.0,1.0,-1.0,-1.0,1650849549353291.0
0.0,2.0,-2.0,-2.0,-3.0,15.0,4.0,0.0,1650849549353291.0
-2.0,-2.0,4.0,2.0,17.0,-3.0,-2.0,-1.0,1650849549354262.0
0.0,1.0,3.0,1.0,-2.0,2.0,0.0,0.0,1650849549354262.0
0.0,-2.0,-6.0,-2.0,-7.0,-7.0,-2.0,0.0,1650849549366333.0
2.0,1.0,12.0,3.0,-7.0,-16.0,-5.0,0.0,1650849549366333.0
-2.0,0.0,-4.0,0.0,-1.0,25.0,3.0,-2.0,1650849549375312.0
1.0,0.0,2.0,2.0,3.0,-4.0,0.0,-1.0,1650849549375312.0
-1.0,-1.0,-5.0,-8.0,-2.0,3.0,0.0,-1.0,1650849549390299.0
0.0,0.0,-3.0,-3.0,-1.0,-15.0,-2.0,-1.0,1650849549390299.0
-2.0,-2.0,5.0,3.0,-3.0,-5.0,-3.0,-2.0,1650849549392267.0
5.0,3.0,3.0,3.0,5.0,8.0,2.0,3.0,1650849549392267.0
-2.0,-1.0,2.0,-2.0,-5.0,5.0,0.0,1.0,1650849549413211.0
0.0,0.0,-5.0,-2.0,4.0,0.0,-1.0,0.0,1650849549413211.0
-2.0,-1.0,-3.0,-2.0,-1.0,-12.0,-2.0,-1.0,1650849549414214.0
-3.0,-3.0,-1.0,1.0,-1.0,-8.0,-2.0,-2.0,1650849549414214.0
0.0,1.0,13.0,7.0,5.0,18.0,5.0,1.0,1650849549426203.0
-3.0,-2.0,-15.0,-2.0,1.0,0.0,0.0,-1.0,1650849549426203.0
-1.0,-1.0,2.0,-2.0,-5.0,-6.0,-1.0,0.0,1650849549436158.0
-3.0,-1.0,2.0,1.0,6.0,6.0,1.0,0.0,1650849549436158.0
3.0,1.0,-2.0,-5.0,-8.0,-6.0,-3.0,1.0,1650849549450179.0
-4.0,-5.0,-3.0,-3.0,2.0,-3.0,-3.0,-2.0,1650849549450179.0
1.0,-2.0,4.0,-2.0,-11.0,-16.0,-3.0,-3.0,1650849549452107.0
1.0,1.0,-7.0,-2.0,3.0,5.0,-2.0,-3.0,1650849549452107.0
0.0,-2.0,0.0,0.0,3.0,20.0,10.0,1.0,1650849549473203.0
1.0,0.0,-3.0,-2.0,1.0,-1.0,0.0,-1.0,1650849549473203.0
-1.0,0.0,-3.0,0.0,-13.0,-15.0,-4.0,-1.0,1650849549474173.0
0.0,1.0,4.0,2.0,8.0,4.0,-1.0,-1.0,1650849549474173.0
-1.0,2.0,-3.0,-2.0,2.0,-3.0,-3.0,-1.0,1650849549486168.0
-1.0,-5.0,5.0,1.0,1.0,-2.0,0.0,1.0,1650849549486168.0
-2.0,-2.0,-2.0,8.0,-2.0,-3.0,0.0,0.0,1650849549496116.0
-1.0,-1.0,6.0,0.0,-2.0,-2.0,-4.0,0.0,1650849549496116.0
1.0,-2.0,-3.0,3.0,5.0,5.0,1.0,1.0,1650849549510105.0
0.0,2.0,-1.0,-5.0,-4.0,2.0,1.0,-1.0,1650849549510105.0
0.0,-1.0,-3.0,-4.0,-6.0,1.0,0.0,-1.0,1650849549512072.0
-1.0,-2.0,-1.0,0.0,11.0,-3.0,0.0,0.0,1650849549512072.0
-3.0,0.0,-6.0,-6.0,-19.0,-13.0,-3.0,-3.0,1650849549533084.0
1.0,-1.0,8.0,3.0,10.0,2.0,-2.0,0.0,1650849549533084.0
1.0,-1.0,-6.0,-7.0,8.0,18.0,4.0,3.0,1650849549535011.0
-2.0,-2.0,-1.0,3.0,-7.0,-2.0,-1.0,0.0,1650849549535011.0
-1.0,-1.0,4.0,1.0,0.0,-6.0,-3.0,-2.0,1650849549546989.0
0.0,1.0,-4.0,-3.0,-9.0,-12.0,-2.0,-3.0,1650849549546989.0
1.0,2.0,3.0,0.0,0.0,7.0,2.0,1.0,1650849549555132.0
2.0,1.0,-3.0,-3.0,3.0,-4.0,-1.0,0.0,1650849549555132.0
0.0,0.0,-3.0,-1.0,2.0,0.0,2.0,0.0,1650849549570919.0
0.0,-2.0,-1.0,0.0,-9.0,6.0,-1.0,-1.0,1650849549570919.0
0.0,1.0,3.0,3.0,7.0,0.0,1.0,1.0,1650849549571900.0
0.0,1.0,2.0,4.0,2.0,-1.0,0.0,1.0,1650849549571900.0
-2.0,-3.0,-5.0,-1.0,2.0,-4.0,-3.0,-2.0,1650849549593431.0
2.0,2.0,0.0,-4.0,-2.0,-6.0,-1.0,-1.0,1650849549593431.0
1.0,-2.0,-1.0,-2.0,-9.0,-6.0,-3.0,-2.0,1650849549594402.0
-1.0,-1.0,-2.0,0.0,-2.0,2.0,0.0,-1.0,1650849549594402.0
-1.0,1.0,1.0,0.0,3.0,-5.0,0.0,-3.0,1650849549615922.0
0.0,-1.0,-4.0,-5.0,-8.0,9.0,2.0,2.0,1650849549615922.0
0.0,-1.0,-7.0,2.0,10.0,1.0,-2.0,-1.0,1650849549616829.0
0.0,-1.0,3.0,0.0,4.0,4.0,2.0,-1.0,1650849549616829.0
-1.0,-1.0,1.0,-2.0,-3.0,-2.0,-2.0,-2.0,1650849549630794.0
-1.0,1.0,-1.0,3.0,3.0,-5.0,-1.0,-2.0,1650849549630794.0
0.0,-1.0,0.0,-2.0,-2.0,0.0,0.0,-1.0,1650849549631801.0
-1.0,-1.0,0.0,-3.0,-4.0,-4.0,-2.0,-1.0,1650849549631801.0
-2.0,1.0,0.0,-5.0,-6.0,-18.0,-7.0,-2.0,1650849549652763.0
0.0,1.0,0.0,11.0,4.0,38.0,11.0,1.0,1650849549652763.0
-2.0,-1.0,0.0,2.0,22.0,4.0,-1.0,1.0,1650849549654758.0
2.0,0.0,1.0,-2.0,-3.0,2.0,1.0,0.0,1650849549654758.0
1.0,-1.0,0.0,-2.0,-4.0,-10.0,-3.0,1.0,1650849549674815.0
-3.0,-3.0,-2.0,-5.0,-4.0,-17.0,-5.0,-2.0,1650849549674815.0
-1.0,0.0,-3.0,1.0,-6.0,10.0,2.0,0.0,1650849549683820.0
0.0,0.0,-1.0,-2.0,-5.0,-4.0,0.0,-2.0,1650849549683820.0
-1.0,-2.0,1.0,0.0,1.0,4.0,-1.0,1.0,1650849549690804.0
-1.0,0.0,-7.0,-3.0,1.0,-6.0,0.0,0.0,1650849549690804.0
-1.0,0.0,4.0,-1.0,-9.0,-4.0,-2.0,-1.0,1650849549691802.0
-1.0,-1.0,-1.0,-3.0,-7.0,-4.0,0.0,-1.0,1650849549691802.0
-1.0,0.0,4.0,8.0,6.0,2.0,1.0,-1.0,1650849549713453.0
-1.0,0.0,-3.0,0.0,8.0,-4.0,-1.0,-1.0,1650849549713453.0
-2.0,-4.0,-4.0,-5.0,1.0,1.0,-2.0,-1.0,1650849549714463.0
3.0,3.0,-1.0,-1.0,-8.0,-10.0,-4.0,-1.0,1650849549714463.0
0.0,1.0,0.0,0.0,5.0,27.0,8.0,2.0,1650849549735423.0
0.0,-1.0,0.0,-5.0,-2.0,-9.0,-5.0,1.0,1650849549735423.0
-3.0,-6.0,-6.0,-5.0,-9.0,-19.0,-4.0,-3.0,1650849549737419.0
-3.0,-1.0,1.0,-1.0,-16.0,3.0,-1.0,-1.0,1650849549737419.0
0.0,1.0,3.0,9.0,20.0,-3.0,-2.0,0.0,1650849549750425.0
-1.0,-1.0,-2.0,-5.0,-2.0,3.0,-2.0,-1.0,1650849549750425.0
0.0,0.0,-1.0,-1.0,-2.0,-3.0,2.0,0.0,1650849549752351.0
-1.0,-3.0,-2.0,2.0,6.0,5.0,0.0,-1.0,1650849549752351.0
0.0,-2.0,-2.0,-3.0,-3.0,-1.0,-1.0,-1.0,1650849549773432.0
-1.0,0.0,3.0,-1.0,-6.0,-5.0,-2.0,-2.0,1650849549773432.0
1.0,0.0,-3.0,-1.0,-3.0,-11.0,-2.0,-1.0,1650849549774409.0
1.0,2.0,4.0,6.0,17.0,34.0,10.0,4.0,1650849549774409.0
0.0,-1.0,0.0,-2.0,-4.0,1.0,0.0,0.0,1650849549795502.0
-1.0,-2.0,-4.0,-5.0,-12.0,-21.0,-4.0,0.0,1650849549795502.0
1.0,0.0,-3.0,3.0,11.0,12.0,0.0,0.0,1650849549797479.0
-2.0,0.0,5.0,0.0,-15.0,-19.0,-3.0,-2.0,1650849549797479.0
-1.0,-5.0,-13.0,-9.0,1.0,13.0,1.0,2.0,1650849549809467.0
0.0,0.0,-6.0,4.0,6.0,2.0,1.0,1.0,1650849549809467.0
0.0,-1.0,3.0,2.0,-6.0,-6.0,-2.0,-3.0,1650849549816486.0
-1.0,-3.0,-5.0,-6.0,0.0,-6.0,-2.0,-1.0,1650849549816486.0
0.0,-1.0,4.0,2.0,-9.0,-4.0,-3.0,-1.0,1650849549833471.0
0.0,2.0,-2.0,0.0,-6.0,-4.0,-1.0,-1.0,1650849549833471.0
0.0,2.0,7.0,5.0,5.0,6.0,2.0,2.0,1650849549834390.0
-1.0,-1.0,-2.0,-3.0,6.0,-8.0,-3.0,-1.0,1650849549834390.0
-1.0,-1.0,-1.0,-5.0,-24.0,-4.0,-2.0,-1.0,1650849549855336.0
0.0,-2.0,-7.0,1.0,16.0,10.0,3.0,1.0,1650849549855336.0
1.0,-1.0,-1.0,1.0,-3.0,1.0,0.0,-1.0,1650849549857331.0
-1.0,-2.0,1.0,1.0,9.0,-4.0,-3.0,-2.0,1650849549857331.0
-2.0,-2.0,0.0,-2.0,-5.0,-6.0,-2.0,-1.0,1650849549870323.0
-1.0,-2.0,-6.0,-4.0,-5.0,6.0,5.0,1.0,1650849549870323.0
-2.0,-2.0,9.0,-5.0,-9.0,-2.0,-3.0,-2.0,1650849549876307.0
-1.0,0.0,-7.0,1.0,1.0,-5.0,-2.0,0.0,1650849549876307.0
2.0,0.0,6.0,11.0,7.0,-9.0,1.0,0.0,1650849549892818.0
-1.0,1.0,9.0,1.0,-1.0,4.0,-1.0,-1.0,1650849549892818.0
0.0,-2.0,-19.0,-7.0,-2.0,-1.0,2.0,-2.0,1650849549894813.0
-1.0,-3.0,0.0,-7.0,-7.0,1.0,0.0,0.0,1650849549894813.0
0.0,0.0,-6.0,-1.0,2.0,0.0,0.0,0.0,1650849549915824.0
0.0,0.0,7.0,6.0,-1.0,-15.0,-5.0,-2.0,1650849549915824.0
0.0,4.0,8.0,4.0,6.0,26.0,5.0,3.0,1650849549916790.0
0.0,0.0,3.0,-2.0,-3.0,-2.0,0.0,1.0,1650849549916790.0
0.0,-2.0,-4.0,-3.0,-1.0,6.0,1.0,0.0,1650849549929720.0
-1.0,-1.0,1.0,-1.0,-2.0,-11.0,-4.0,-3.0,1650849549929720.0
1.0,0.0,0.0,0.0,-3.0,-17.0,-5.0,-2.0,1650849549936768.0
-1.0,2.0,5.0,9.0,5.0,18.0,4.0,0.0,1650849549936768.0
0.0,1.0,3.0,-4.0,4.0,-1.0,0.0,1.0,1650849549952770.0
1.0,-2.0,-8.0,-11.0,-8.0,-9.0,-3.0,-1.0,1650849549952770.0
0.0,-1.0,-3.0,5.0,2.0,21.0,5.0,1.0,1650849549954749.0
0.0,-2.0,2.0,4.0,4.0,0.0,-1.0,-1.0,1650849549954749.0
0.0,-1.0,11.0,-4.0,-12.0,-7.0,-3.0,-1.0,1650849549975910.0
0.0,-3.0,-27.0,-6.0,13.0,7.0,3.0,0.0,1650849549975910.0
-2.0,-1.0,-4.0,-5.0,-9.0,-11.0,-3.0,-2.0,1650849549976880.0
-3.0,1.0,-4.0,-3.0,-9.0,-19.0,-4.0,0.0,1650849549976880.0
1.0,-1.0,3.0,3.0,9.0,17.0,3.0,-2.0,1650849549989873.0
1.0,1.0,11.0,5.0,-7.0,0.0,0.0,1.0,1650849549989873.0
2.0,0.0,0.0,-1.0,9.0,5.0,2.0,1.0,1650849549996828.0
1.0,-2.0,-4.0,-2.0,-5.0,-6.0,-1.0,-1.0,1650849549996828.0
-1.0,-1.0,-10.0,-4.0,3.0,-5.0,-2.0,-3.0,1650849550012812.0
-2.0,1.0,9.0,2.0,-8.0,-1.0,0.0,-1.0,1650849550012812.0
1.0,4.0,10.0,4.0,1.0,-7.0,-2.0,0.0,1650849550014780.0
-1.0,-7.0,-2.0,3.0,3.0,9.0,0.0,-2.0,1650849550014780.0
-1.0,1.0,-12.0,-4.0,1.0,-4.0,0.0,1.0,1650849550035750.0
-1.0,-1.0,13.0,7.0,7.0,9.0,0.0,-4.0,1650849550035750.0
-2.0,0.0,-15.0,-9.0,-7.0,-9.0,-3.0,0.0,1650849550036741.0
-1.0,1.0,2.0,-5.0,-1.0,-4.0,-1.0,0.0,1650849550036741.0
-2.0,-1.0,0.0,2.0,-11.0,-9.0,-2.0,0.0,1650849550049749.0
-1.0,-1.0,1.0,3.0,3.0,0.0,-2.0,0.0,1650849550049749.0
-2.0,-1.0,6.0,2.0,12.0,10.0,7.0,0.0,1650849550056694.0
0.0,1.0,-2.0,-2.0,-11.0,8.0,3.0,1.0,1650849550056694.0
0.0,-1.0,-2.0,6.0,22.0,10.0,1.0,0.0,1650849550072651.0
2.0,1.0,3.0,-7.0,-8.0,-8.0,-2.0,0.0,1650849550072651.0
-2.0,-2.0,-1.0,1.0,-14.0,-13.0,-5.0,-3.0,1650849550074619.0
-1.0,0.0,-6.0,-2.0,9.0,8.0,1.0,1.0,1650849550074619.0
-1.0,0.0,-2.0,-1.0,-17.0,-12.0,-1.0,-3.0,1650849550095680.0
0.0,-1.0,6.0,7.0,5.0,-8.0,-2.0,0.0,1650849550095680.0
-2.0,-1.0,5.0,0.0,0.0,23.0,2.0,0.0,1650849550096649.0
0.0,1.0,1.0,-1.0,2.0,-6.0,0.0,0.0,1650849550096649.0
0.0,-3.0,-12.0,-7.0,-2.0,-4.0,-2.0,0.0,1650849550108646.0
0.0,-1.0,-3.0,-4.0,-5.0,-2.0,1.0,-1.0,1650849550108646.0
0.0,-2.0,-1.0,-2.0,-4.0,-13.0,-1.0,1.0,1650849550117913.0
0.0,2.0,10.0,4.0,-1.0,-1.0,0.0,-1.0,1650849550117913.0
-2.0,0.0,2.0,3.0,2.0,2.0,1.0,-2.0,1650849550133533.0
-3.0,-1.0,1.0,-3.0,4.0,4.0,0.0,-1.0,1650849550133533.0
-2.0,-1.0,-7.0,-2.0,3.0,1.0,-1.0,-1.0,1650849550134532.0
-1.0,-1.0,-2.0,-5.0,-8.0,-20.0,-6.0,-3.0,1650849550134532.0
0.0,0.0,3.0,3.0,7.0,25.0,3.0,1.0,1650849550155475.0
0.0,-2.0,-7.0,-3.0,-8.0,4.0,1.0,0.0,1650849550155475.0
0.0,1.0,5.0,1.0,-3.0,-8.0,-2.0,0.0,1650849550157490.0
0.0,-3.0,-13.0,1.0,1.0,-3.0,0.0,-1.0,1650849550157490.0
0.0,-2.0,-1.0,-1.0,1.0,-7.0,-2.0,-1.0,1650849550169438.0
0.0,1.0,5.0,6.0,5.0,6.0,1.0,0.0,1650849550169438.0
1.0,1.0,3.0,1.0,5.0,2.0,-1.0,-1.0,1650849550178415.0
-2.0,0.0,3.0,0.0,-9.0,-22.0,-6.0,-2.0,1650849550178415.0
-3.0,-2.0,0.0,-8.0,-8.0,11.0,1.0,-1.0,1650849550192497.0
-2.0,-9.0,-18.0,-8.0,3.0,6.0,2.0,0.0,1650849550192497.0
1.0,-2.0,3.0,-1.0,-6.0,-7.0,0.0,1.0,1650849550194465.0
1.0,2.0,-4.0,0.0,10.0,9.0,1.0,0.0,1650849550194465.0
0.0,3.0,12.0,4.0,-4.0,-22.0,-5.0,-1.0,1650849550215946.0
0.0,4.0,5.0,6.0,6.0,18.0,3.0,2.0,1650849550215946.0
0.0,-2.0,2.0,-7.0,-4.0,-4.0,-1.0,0.0,1650849550216828.0
-2.0,0.0,-9.0,-5.0,-3.0,-1.0,-1.0,-3.0,1650849550216828.0
0.0,-2.0,10.0,1.0,-1.0,-12.0,-2.0,-1.0,1650849550228798.0
1.0,2.0,-4.0,-1.0,-8.0,2.0,0.0,-1.0,1650849550228798.0
-1.0,0.0,-3.0,6.0,12.0,1.0,3.0,-1.0,1650849550237803.0
1.0,0.0,1.0,0.0,12.0,19.0,3.0,1.0,1650849550237803.0
-2.0,0.0,-2.0,-5.0,-11.0,-9.0,-5.0,-2.0,1650849550252802.0
-2.0,0.0,6.0,2.0,-3.0,-12.0,-6.0,-2.0,1650849550252802.0
0.0,7.0,-3.0,-3.0,-5.0,-3.0,-3.0,-1.0,1650849550254730.0
2.0,-1.0,-5.0,-5.0,-7.0,2.0,2.0,0.0,1650849550254730.0
1.0,-9.0,-11.0,-1.0,3.0,2.0,0.0,0.0,1650849550275814.0
-2.0,0.0,6.0,-2.0,-3.0,-4.0,-1.0,0.0,1650849550275814.0
0.0,2.0,8.0,3.0,-2.0,1.0,-2.0,1.0,1650849550276784.0
-1.0,0.0,-6.0,4.0,7.0,-3.0,-2.0,-1.0,1650849550276784.0
0.0,1.0,-6.0,-5.0,2.0,18.0,3.0,0.0,1650849550288817.0
1.0,-1.0,5.0,-2.0,-5.0,-12.0,0.0,-1.0,1650849550288817.0
-2.0,-3.0,-6.0,0.0,2.0,5.0,-2.0,-1.0,1650849550297728.0
-1.0,4.0,9.0,2.0,2.0,7.0,1.0,0.0,1650849550297728.0
-2.0,-1.0,0.0,-3.0,-4.0,-14.0,-3.0,-2.0,1650849550312715.0
0.0,0.0,-8.0,4.0,14.0,17.0,4.0,1.0,1650849550312715.0
0.0,-2.0,3.0,6.0,-1.0,-13.0,-2.0,-1.0,1650849550314683.0
0.0,-1.0,13.0,8.0,3.0,2.0,1.0,3.0,1650849550314683.0
-3.0,1.0,1.0,8.0,3.0,2.0,1.0,1.0,1650849550335694.0
-2.0,-3.0,-8.0,-15.0,-12.0,-8.0,-3.0,-2.0,1650849550335694.0
-2.0,-3.0,-8.0,-6.0,-8.0,-9.0,-1.0,-1.0,1650849550336624.0
-1.0,-4.0,-5.0,-3.0,-2.0,4.0,-2.0,0.0,1650849550336624.0
3.0,3.0,5.0,-2.0,-1.0,2.0,4.0,1.0,1650849550349633.0
-1.0,1.0,7.0,4.0,7.0,0.0,-1.0,-2.0,1650849550349633.0
-2.0,-2.0,-8.0,-7.0,-2.0,5.0,0.0,-1.0,1650849550358592.0
-4.0,-2.0,1.0,1.0,-4.0,-10.0,-5.0,-1.0,1650849550358592.0
2.0,1.0,0.0,9.0,-1.0,-7.0,-2.0,2.0,1650849550372555.0
-2.0,-2.0,-3.0,-20.0,-8.0,-22.0,-6.0,-2.0,1650849550372555.0
1.0,-5.0,-7.0,-4.0,13.0,38.0,5.0,1.0,1650849550374523.0
-1.0,1.0,-5.0,5.0,-22.0,-2.0,3.0,-1.0,1650849550374523.0
-1.0,1.0,10.0,10.0,31.0,11.0,1.0,2.0,1650849550395677.0
-1.0,-1.0,-3.0,0.0,-19.0,-10.0,-1.0,-1.0,1650849550395677.0
-2.0,-1.0,3.0,1.0,17.0,-7.0,-5.0,-2.0,1650849550396674.0
-1.0,-2.0,-8.0,-13.0,-12.0,-4.0,-1.0,1.0,1650849550396674.0
0.0,-2.0,-9.0,-2.0,-7.0,0.0,0.0,-2.0,1650849550408670.0
0.0,1.0,9.0,11.0,9.0,7.0,2.0,2.0,1650849550408670.0
1.0,2.0,-3.0,-7.0,-9.0,-11.0,-2.0,0.0,1650849550418628.0
1.0,-1.0,-3.0,-4.0,1.0,6.0,0.0,0.0,1650849550418628.0
-2.0,-1.0,-3.0,-1.0,-9.0,-9.0,-2.0,-1.0,1650849550433577.0
-2.0,-3.0,-10.0,-8.0,6.0,5.0,1.0,-2.0,1650849550433577.0
1.0,-1.0,6.0,5.0,-4.0,-2.0,0.0,0.0,1650849550434573.0
1.0,0.0,0.0,-1.0,1.0,-6.0,-1.0,0.0,1650849550434573.0
-1.0,0.0,1.0,1.0,3.0,-3.0,-4.0,-1.0,1650849550455629.0
2.0,2.0,0.0,-11.0,1.0,11.0,5.0,2.0,1650849550455629.0
-2.0,-1.0,-3.0,4.0,-8.0,-9.0,-2.0,0.0,1650849550457624.0
0.0,0.0,4.0,7.0,8.0,8.0,1.0,-1.0,1650849550457624.0
0.0,0.0,0.0,-8.0,-5.0,-9.0,-2.0,-1.0,1650849550469620.0
-3.0,-3.0,-3.0,6.0,2.0,5.0,-2.0,-1.0,1650849550469620.0
-3.0,-2.0,-4.0,-3.0,-16.0,-24.0,-3.0,-2.0,1650849550478566.0
-1.0,0.0,1.0,2.0,10.0,7.0,0.0,0.0,1650849550478566.0
1.0,2.0,-3.0,-1.0,10.0,22.0,6.0,1.0,1650849550492550.0
0.0,-2.0,-3.0,-12.0,-5.0,-4.0,-3.0,-1.0,1650849550492550.0
-1.0,-2.0,1.0,9.0,-8.0,-2.0,-2.0,-2.0,1650849550494525.0
-3.0,-1.0,5.0,-4.0,-7.0,-10.0,-2.0,-2.0,1650849550494525.0
1.0,1.0,1.0,8.0,-7.0,-6.0,-2.0,-1.0,1650849550515470.0
-1.0,2.0,4.0,7.0,10.0,9.0,1.0,-1.0,1650849550515470.0
0.0,0.0,-1.0,-8.0,-3.0,-5.0,-1.0,1.0,1650849550517490.0
0.0,-5.0,-2.0,1.0,2.0,4.0,0.0,-1.0,1650849550517490.0
-2.0,-2.0,-6.0,-5.0,-3.0,-2.0,0.0,-2.0,1650849550529458.0
0.0,-1.0,-5.0,-1.0,-8.0,-14.0,-4.0,-1.0,1650849550529458.0
1.0,0.0,6.0,0.0,3.0,17.0,1.0,-1.0,1650849550538523.0
-1.0,-1.0,3.0,3.0,6.0,-2.0,0.0,0.0,1650849550538523.0
-2.0,0.0,-1.0,-5.0,-9.0,-2.0,-1.0,0.0,1650849550552574.0
0.0,-2.0,0.0,5.0,-10.0,-5.0,0.0,0.0,1650849550552574.0
0.0,-2.0,-1.0,-2.0,8.0,-9.0,-3.0,-3.0,1650849550554580.0
0.0,1.0,3.0,-2.0,4.0,22.0,7.0,1.0,1650849550554580.0
0.0,0.0,1.0,-3.0,-2.0,-7.0,-1.0,0.0,1650849550575657.0
0.0,-1.0,-1.0,7.0,9.0,5.0,-1.0,1.0,1650849550575657.0
-2.0,1.0,-3.0,-6.0,-3.0,-6.0,1.0,2.0,1650849550577628.0
-1.0,-1.0,-6.0,-7.0,-5.0,-8.0,-5.0,-2.0,1650849550577628.0
2.0,0.0,15.0,8.0,-2.0,-7.0,-1.0,-1.0,1650849550597571.0
1.0,3.0,0.0,-1.0,-13.0,2.0,-1.0,-3.0,1650849550597571.0
3.0,-1.0,-1.0,-2.0,8.0,1.0,1.0,2.0,1650849550599577.0
1.0,-1.0,-5.0,-3.0,2.0,4.0,1.0,1.0,1650849550599577.0
-3.0,-3.0,-13.0,-4.0,7.0,9.0,1.0,-1.0,1650849550612559.0
-4.0,-1.0,6.0,5.0,0.0,-8.0,-3.0,-3.0,1650849550612559.0
-3.0,-2.0,-2.0,-1.0,-5.0,1.0,-1.0,-3.0,1650849550614526.0
-1.0,0.0,-4.0,-4.0,-7.0,-10.0,-4.0,-3.0,1650849550614526.0
-2.0,-1.0,2.0,-3.0,-6.0,-4.0,-1.0,-2.0,1650849550635833.0
-1.0,0.0,1.0,3.0,5.0,-6.0,-1.0,0.0,1650849550635833.0
-2.0,-3.0,0.0,1.0,2.0,21.0,3.0,-1.0,1650849550636827.0
0.0,1.0,8.0,13.0,-3.0,-10.0,-1.0,0.0,1650849550636827.0
1.0,-1.0,4.0,-12.0,0.0,8.0,0.0,1.0,1650849550657896.0
1.0,-1.0,-5.0,-5.0,0.0,0.0,-3.0,-2.0,1650849550657896.0
-1.0,0.0,-4.0,4.0,-3.0,-11.0,-2.0,0.0,1650849550659909.0
-2.0,0.0,2.0,10.0,3.0,4.0,-1.0,1.0,1650849550659909.0
1.0,0.0,-1.0,-12.0,-5.0,5.0,2.0,2.0,1650849550672850.0
6.0,-4.0,4.0,16.0,11.0,3.0,5.0,-2.0,1650849550672850.0
8.0,9.0,-7.0,-31.0,-7.0,-5.0,-2.0,14.0,1650849550678843.0
-40.0,7.0,11.0,27.0,1.0,-1.0,-6.0,-35.0,1650849550678843.0
-23.0,-6.0,-3.0,1.0,-1.0,-6.0,-2.0,-1.0,1650849550695767.0
5.0,6.0,-5.0,-12.0,-2.0,1.0,1.0,6.0,1650849550695767.0
3.0,-16.0,-10.0,-6.0,-3.0,1.0,-1.0,-3.0,1650849550696764.0
-5.0,7.0,10.0,-5.0,-3.0,-1.0,0.0,7.0,1650849550696764.0
-6.0,-5.0,-9.0,1.0,-1.0,0.0,-2.0,-2.0,1650849550718774.0
-3.0,23.0,9.0,7.0,0.0,-1.0,-4.0,-6.0,1650849550718774.0
1.0,-41.0,-2.0,5.0,6.0,1.0,0.0,-3.0,1650849550719709.0
-15.0,13.0,-7.0,-15.0,-3.0,-1.0,3.0,8.0,1650849550719709.0
-31.0,-36.0,-10.0,7.0,-1.0,-4.0,-2.0,-7.0,1650849550732668.0
6.0,25.0,9.0,1.0,-4.0,-1.0,0.0,1.0,1650849550732668.0
10.0,-24.0,-10.0,2.0,2.0,2.0,4.0,1.0,1650849550738652.0
11.0,-6.0,-11.0,-14.0,-4.0,-4.0,0.0,5.0,1650849550738652.0
17.0,1.0,8.0,3.0,-3.0,-14.0,-4.0,2.0,1650849550755635.0
-9.0,-7.0,-5.0,6.0,0.0,17.0,4.0,-1.0,1650849550755635.0
-9.0,15.0,4.0,11.0,7.0,-1.0,-3.0,-5.0,1650849550757602.0
23.0,-3.0,21.0,-4.0,7.0,7.0,4.0,2.0,1650849550757602.0
-2.0,2.0,11.0,2.0,-9.0,-14.0,-8.0,-2.0,1650849550777576.0
1.0,-4.0,-21.0,12.0,-3.0,-5.0,-1.0,1.0,1650849550777576.0
0.0,12.0,-38.0,-18.0,-5.0,3.0,1.0,-2.0,1650849550779548.0
3.0,-10.0,-13.0,-1.0,0.0,-7.0,-4.0,1.0,1650849550779548.0
13.0,5.0,24.0,-9.0,4.0,7.0,4.0,0.0,1650849550792508.0
-4.0,-2.0,7.0,2.0,1.0,1.0,1.0,1.0,1650849550792508.0
-1.0,30.0,44.0,42.0,4.0,2.0,0.0,-2.0,1650849550799491.0
1.0,-15.0,-61.0,-55.0,-5.0,0.0,4.0,6.0,1650849550799491.0
-7.0,-21.0,-43.0,-11.0,-13.0,-6.0,-3.0,-6.0,1650849550815468.0
5.0,-7.0,15.0,20.0,4.0,2.0,0.0,0.0,1650849550815468.0
-3.0,-15.0,-18.0,-11.0,2.0,5.0,6.0,6.0,1650849550817470.0
11.0,17.0,20.0,12.0,7.0,12.0,9.0,8.0,1650849550817470.0
4.0,16.0,13.0,-8.0,0.0,3.0,-3.0,-2.0,1650849550837999.0
0.0,-12.0,-10.0,-8.0,7.0,-10.0,1.0,3.0,1650849550837999.0
0.0,12.0,24.0,13.0,2.0,22.0,2.0,-4.0,1650849550839926.0
0.0,19.0,47.0,39.0,5.0,-2.0,-1.0,-2.0,1650849550839926.0
7.0,-18.0,-32.0,-10.0,-1.0,9.0,11.0,7.0,1650849550851962.0
-3.0,-10.0,-17.0,-10.0,-2.0,-2.0,-1.0,1.0,1650849550851962.0
0.0,7.0,-16.0,-10.0,-10.0,-24.0,-6.0,-2.0,1650849550860875.0
0.0,8.0,-39.0,-15.0,-8.0,15.0,-2.0,-4.0,1650849550860875.0
-2.0,-11.0,-3.0,13.0,0.0,-4.0,-4.0,-3.0,1650849550875858.0
1.0,15.0,28.0,-6.0,-4.0,-2.0,-2.0,-1.0,1650849550875858.0
-1.0,7.0,16.0,-13.0,3.0,10.0,0.0,-3.0,1650849550876828.0
-4.0,-15.0,-40.0,16.0,7.0,-3.0,-2.0,-1.0,1650849550876828.0
14.0,9.0,22.0,-2.0,0.0,-5.0,0.0,2.0,1650849550897800.0
-5.0,-14.0,-9.0,-18.0,-9.0,-2.0,1.0,-1.0,1650849550897800.0
-1.0,-1.0,8.0,-9.0,-3.0,-9.0,-5.0,-3.0,1650849550899768.0
0.0,-5.0,-17.0,15.0,-8.0,-8.0,-5.0,-2.0,1650849550899768.0
7.0,19.0,41.0,23.0,14.0,10.0,3.0,2.0,1650849550920711.0
3.0,-19.0,-33.0,-16.0,-10.0,-11.0,-3.0,-3.0,1650849550920711.0
-14.0,21.0,10.0,-10.0,4.0,2.0,0.0,-3.0,1650849550922715.0
9.0,-19.0,20.0,3.0,6.0,13.0,5.0,2.0,1650849550922715.0
13.0,12.0,4.0,-5.0,-8.0,-2.0,2.0,8.0,1650849550935735.0
-6.0,9.0,-10.0,-6.0,1.0,-11.0,-10.0,-5.0,1650849550935735.0
6.0,-14.0,6.0,1.0,-5.0,-6.0,-1.0,-1.0,1650849550936668.0
-2.0,20.0,30.0,21.0,6.0,-2.0,0.0,-1.0,1650849550936668.0
-8.0,-4.0,21.0,0.0,2.0,4.0,-2.0,-6.0,1650849550957786.0
-3.0,-6.0,-26.0,-17.0,-10.0,-4.0,-3.0,-4.0,1650849550957786.0
0.0,4.0,12.0,20.0,-1.0,-2.0,-1.0,1.0,1650849550959782.0
-6.0,-9.0,-13.0,-24.0,-8.0,-8.0,-5.0,-3.0,1650849550959782.0
-5.0,2.0,-6.0,-3.0,10.0,6.0,4.0,-1.0,1650849550972787.0
3.0,0.0,28.0,19.0,5.0,8.0,2.0,1.0,1650849550972787.0
0.0,-8.0,-5.0,11.0,3.0,-3.0,0.0,-1.0,1650849550978759.0
3.0,0.0,17.0,-9.0,-4.0,-2.0,-2.0,1.0,1650849550978759.0
21.0,-1.0,-28.0,-19.0,-20.0,-19.0,-7.0,-3.0,1650849550997706.0
-50.0,-9.0,13.0,-10.0,1.0,-3.0,2.0,-2.0,1650849550997706.0
0.0,-1.0,-33.0,9.0,-2.0,6.0,0.0,0.0,1650849550998677.0
5.0,1.0,19.0,2.0,6.0,-5.0,1.0,0.0,1650849550998677.0
-5.0,-1.0,-10.0,12.0,9.0,17.0,-3.0,-5.0,1650849551017692.0
12.0,4.0,17.0,-9.0,-4.0,-3.0,3.0,3.0,1650849551017692.0
-1.0,16.0,-2.0,1.0,-3.0,-6.0,-4.0,2.0,1650849551019621.0
4.0,-4.0,-6.0,-10.0,-8.0,-16.0,-1.0,-1.0,1650849551019621.0
-18.0,-5.0,-27.0,-8.0,-5.0,3.0,-3.0,-3.0,1650849551032587.0
6.0,9.0,23.0,29.0,4.0,4.0,-2.0,-1.0,1650849551032587.0
-4.0,3.0,7.0,-8.0,4.0,2.0,2.0,1.0,1650849551039566.0
11.0,-11.0,-19.0,-24.0,-13.0,-9.0,-3.0,-2.0,1650849551039566.0
-4.0,6.0,7.0,7.0,9.0,-2.0,1.0,-1.0,1650849551055580.0
5.0,5.0,0.0,1.0,-6.0,4.0,0.0,-1.0,1650849551055580.0
-1.0,-4.0,15.0,10.0,5.0,-1.0,1.0,0.0,1650849551057603.0
-6.0,-11.0,-24.0,-14.0,-1.0,-4.0,-5.0,-1.0,1650849551057603.0
0.0,3.0,10.0,6.0,-10.0,-7.0,-1.0,0.0,1650849551077524.0
4.0,0.0,-8.0,10.0,10.0,7.0,2.0,3.0,1650849551077524.0
-1.0,-2.0,3.0,0.0,-2.0,-1.0,-3.0,-1.0,1650849551079518.0
-8.0,-6.0,-2.0,-3.0,1.0,2.0,-3.0,-5.0,1650849551079518.0
6.0,5.0,-10.0,1.0,-2.0,0.0,-1.0,2.0,1650849551091517.0
1.0,-7.0,1.0,-9.0,-4.0,-3.0,-4.0,-5.0,1650849551091517.0
9.0,9.0,13.0,-1.0,-1.0,-2.0,1.0,3.0,1650849551100471.0
-24.0,-7.0,5.0,16.0,-10.0,-15.0,-6.0,-7.0,1650849551100471.0
2.0,5.0,-53.0,-25.0,1.0,21.0,5.0,4.0,1650849551115422.0
6.0,-7.0,19.0,-9.0,-3.0,0.0,4.0,6.0,1650849551115422.0
-7.0,-15.0,-33.0,1.0,-5.0,-9.0,-6.0,-5.0,1650849551117445.0
5.0,2.0,3.0,4.0,3.0,6.0,1.0,-1.0,1650849551117445.0
8.0,2.0,28.0,23.0,7.0,-5.0,1.0,2.0,1650849551138389.0
-1.0,3.0,13.0,8.0,8.0,9.0,1.0,2.0,1650849551138389.0
6.0,-2.0,-37.0,-31.0,-14.0,-5.0,1.0,1.0,1650849551139373.0
5.0,-1.0,3.0,4.0,0.0,-9.0,-4.0,-3.0,1650849551139373.0
-1.0,4.0,15.0,8.0,14.0,7.0,1.0,1.0,1650849551151393.0
11.0,3.0,0.0,-7.0,-14.0,12.0,1.0,0.0,1650849551151393.0
-5.0,-7.0,-14.0,-10.0,-1.0,-16.0,-4.0,0.0,1650849551160340.0
1.0,3.0,-15.0,6.0,6.0,19.0,9.0,3.0,1650849551160340.0
-2.0,5.0,33.0,1.0,-7.0,-10.0,0.0,1.0,1650849551175262.0
-3.0,-12.0,-21.0,2.0,-5.0,-16.0,-6.0,-7.0,1650849551175262.0
-6.0,-8.0,1.0,26.0,14.0,21.0,1.0,1.0,1650849551177257.0
-3.0,17.0,22.0,-5.0,-6.0,-4.0,0.0,1.0,1650849551177257.0
1.0,-6.0,-19.0,2.0,5.0,-4.0,-2.0,0.0,1650849551198222.0
4.0,17.0,10.0,-11.0,1.0,-4.0,0.0,1.0,1650849551198222.0
3.0,-12.0,16.0,2.0,-9.0,-4.0,-4.0,-2.0,1650849551199198.0
-1.0,11.0,9.0,-9.0,0.0,5.0,-1.0,-3.0,1650849551199198.0
-5.0,-27.0,-32.0,14.0,7.0,5.0,4.0,1.0,1650849551211165.0
0.0,-2.0,-1.0,-8.0,0.0,-5.0,-6.0,-3.0,1650849551211165.0
-1.0,2.0,9.0,-8.0,-3.0,-1.0,3.0,0.0,1650849551221139.0
2.0,-1.0,17.0,18.0,7.0,7.0,0.0,2.0,1650849551221139.0
-8.0,5.0,9.0,-6.0,-10.0,-7.0,-6.0,-5.0,1650849551235124.0
-1.0,2.0,-15.0,-4.0,6.0,4.0,4.0,2.0,1650849551235124.0
2.0,6.0,24.0,15.0,0.0,4.0,0.0,0.0,1650849551237098.0
3.0,-2.0,-9.0,-21.0,1.0,-2.0,1.0,4.0,1650849551237098.0
-2.0,-4.0,12.0,8.0,1.0,-3.0,-3.0,-1.0,1650849551258095.0
5.0,-4.0,-8.0,-5.0,-10.0,-6.0,0.0,2.0,1650849551258095.0
-6.0,1.0,-7.0,8.0,10.0,3.0,1.0,0.0,1650849551260096.0
-20.0,-19.0,16.0,10.0,0.0,1.0,-6.0,-3.0,1650849551260096.0
11.0,21.0,13.0,-17.0,0.0,10.0,4.0,2.0,1650849551272096.0
-2.0,7.0,-16.0,6.0,-1.0,9.0,-4.0,-3.0,1650849551272096.0
-3.0,-23.0,-8.0,-17.0,-12.0,-8.0,-1.0,-4.0,1650849551281034.0
16.0,8.0,9.0,-9.0,-9.0,-15.0,0.0,5.0,1650849551281034.0
-5.0,0.0,-20.0,9.0,5.0,3.0,-1.0,-3.0,1650849551295942.0
0.0,3.0,-6.0,-6.0,-9.0,-10.0,-4.0,0.0,1650849551295942.0
7.0,9.0,6.0,2.0,-4.0,0.0,-2.0,-1.0,1650849551296863.0
-5.0,-8.0,-11.0,2.0,5.0,5.0,-1.0,-4.0,1650849551296863.0
1.0,-5.0,9.0,-13.0,-12.0,-13.0,-5.0,-3.0,1650849551317849.0
3.0,-6.0,-23.0,-4.0,2.0,3.0,3.0,1.0,1650849551317849.0
-2.0,10.0,8.0,8.0,7.0,6.0,2.0,1.0,1650849551319840.0
-3.0,-11.0,-5.0,-5.0,-3.0,3.0,1.0,0.0,1650849551319840.0
-5.0,8.0,21.0,4.0,-5.0,-6.0,-6.0,-3.0,1650849551331792.0
3.0,-6.0,-15.0,-1.0,5.0,-3.0,4.0,5.0,1650849551331792.0
-4.0,-2.0,-10.0,10.0,-1.0,9.0,-1.0,0.0,1650849551340785.0
3.0,11.0,13.0,7.0,2.0,-8.0,2.0,2.0,1650849551340785.0
0.0,2.0,-28.0,-47.0,-25.0,-15.0,-3.0,-1.0,1650849551355555.0
-2.0,-16.0,22.0,56.0,43.0,38.0,7.0,2.0,1650849551355555.0
-6.0,0.0,-22.0,-24.0,-20.0,-28.0,-7.0,-4.0,1650849551357588.0
1.0,-2.0,-2.0,5.0,6.0,20.0,0.0,-2.0,1650849551357588.0
1.0,1.0,6.0,11.0,13.0,8.0,4.0,4.0,1650849551377637.0
-3.0,-1.0,-6.0,-28.0,-19.0,-20.0,-6.0,-2.0,1650849551377637.0
4.0,5.0,14.0,8.0,10.0,4.0,1.0,2.0,1650849551379605.0
-3.0,5.0,8.0,13.0,-13.0,-10.0,-2.0,-5.0,1650849551379605.0
5.0,-8.0,-1.0,-4.0,0.0,-3.0,-1.0,2.0,1650849551391636.0
1.0,1.0,2.0,-3.0,8.0,11.0,5.0,1.0,1650849551391636.0
1.0,-3.0,-28.0,-3.0,3.0,3.0,0.0,0.0,1650849551400550.0
1.0,-5.0,-4.0,-17.0,-18.0,-14.0,-6.0,-1.0,1650849551400550.0
-6.0,-4.0,1.0,16.0,5.0,5.0,4.0,0.0,1650849551415517.0
-4.0,6.0,19.0,-2.0,-7.0,-3.0,-2.0,-1.0,1650849551415517.0
1.0,-8.0,9.0,-15.0,-14.0,-19.0,-2.0,0.0,1650849551417525.0
2.0,14.0,-5.0,10.0,14.0,13.0,0.0,1.0,1650849551417525.0
-7.0,-11.0,-7.0,3.0,-5.0,10.0,9.0,0.0,1650849551438578.0
-8.0,-9.0,-3.0,-3.0,6.0,-7.0,-7.0,-8.0,1650849551438578.0
-1.0,8.0,-1.0,-19.0,-9.0,2.0,2.0,0.0,1650849551439567.0
-3.0,-19.0,-22.0,10.0,1.0,-14.0,-3.0,0.0,1650849551439567.0
-5.0,4.0,15.0,11.0,-5.0,-8.0,-6.0,-5.0,1650849551467668.0
-1.0,1.0,-25.0,-34.0,-17.0,-13.0,-4.0,-4.0,1650849551467668.0
2.0,8.0,38.0,18.0,12.0,3.0,1.0,1.0,1650849551469637.0
0.0,-3.0,-16.0,-9.0,-3.0,11.0,7.0,1.0,1650849551469637.0
0.0,-2.0,-7.0,1.0,5.0,-3.0,0.0,2.0,1650849551475619.0
-4.0,-1.0,9.0,0.0,3.0,4.0,2.0,2.0,1650849551475619.0
1.0,5.0,18.0,7.0,-3.0,-6.0,-7.0,-5.0,1650849551476617.0
6.0,11.0,4.0,-5.0,2.0,2.0,1.0,4.0,1650849551476617.0
-5.0,-11.0,-16.0,-6.0,1.0,2.0,-1.0,-3.0,1650849551497560.0
0.0,-8.0,-8.0,7.0,-14.0,-8.0,1.0,1.0,1650849551497560.0
4.0,18.0,17.0,3.0,15.0,13.0,3.0,3.0,1650849551500092.0
-1.0,-7.0,7.0,18.0,5.0,-3.0,-4.0,0.0,1650849551500092.0
-1.0,3.0,-22.0,-22.0,-3.0,-6.0,-6.0,-3.0,1650849551521016.0
-1.0,-1.0,-7.0,6.0,-2.0,5.0,2.0,1.0,1650849551521016.0
-1.0,0.0,-9.0,1.0,6.0,10.0,5.0,1.0,1650849551522010.0
-1.0,-12.0,3.0,9.0,9.0,-2.0,1.0,0.0,1650849551522010.0
0.0,3.0,-3.0,-1.0,1.0,6.0,-2.0,0.0,1650849551535968.0
2.0,5.0,6.0,1.0,-14.0,-15.0,-3.0,-2.0,1650849551535968.0
-2.0,-3.0,5.0,7.0,24.0,16.0,0.0,-2.0,1650849551536823.0
-5.0,5.0,-19.0,-30.0,-20.0,-18.0,-5.0,-2.0,1650849551536823.0
2.0,-2.0,15.0,8.0,6.0,3.0,-1.0,0.0,1650849551557887.0
0.0,-4.0,2.0,15.0,-4.0,0.0,-1.0,0.0,1650849551557887.0
-1.0,1.0,-8.0,0.0,5.0,-1.0,1.0,4.0,1650849551559882.0
-2.0,-2.0,6.0,-13.0,-12.0,-4.0,-2.0,-4.0,1650849551559882.0
-4.0,3.0,-5.0,-6.0,0.0,19.0,2.0,-1.0,1650849551587963.0
1.0,6.0,14.0,20.0,10.0,3.0,1.0,0.0,1650849551587963.0
-6.0,-21.0,-28.0,-21.0,-18.0,-19.0,-7.0,-4.0,1650849551589890.0
-1.0,5.0,24.0,-4.0,2.0,6.0,-1.0,-1.0,1650849551589890.0
-1.0,6.0,-24.0,-6.0,-7.0,-6.0,1.0,0.0,1650849551595874.0
-2.0,1.0,11.0,6.0,3.0,-4.0,-3.0,-2.0,1650849551595874.0
0.0,5.0,16.0,12.0,-1.0,8.0,3.0,-1.0,1650849551596872.0
3.0,9.0,-9.0,0.0,6.0,2.0,4.0,1.0,1650849551596872.0
0.0,-6.0,14.0,17.0,-9.0,-12.0,-3.0,-1.0,1650849551617328.0
1.0,2.0,8.0,-2.0,4.0,11.0,3.0,2.0,1650849551617328.0
-2.0,-15.0,-30.0,-22.0,-8.0,-7.0,-1.0,-2.0,1650849551625314.0
0.0,11.0,-5.0,2.0,-11.0,-7.0,-1.0,-2.0,1650849551625314.0
5.0,2.0,12.0,0.0,14.0,14.0,6.0,6.0,1650849551640914.0
2.0,0.0,-15.0,-4.0,8.0,1.0,2.0,3.0,1650849551640914.0
0.0,-3.0,25.0,9.0,-4.0,1.0,-1.0,1.0,1650849551641903.0
-1.0,4.0,-9.0,-1.0,-3.0,-1.0,-3.0,-1.0,1650849551641903.0
-2.0,-6.0,-3.0,-5.0,-2.0,-7.0,-3.0,-3.0,1650849551654945.0
-6.0,-2.0,5.0,-7.0,-12.0,-5.0,-7.0,-8.0,1650849551654945.0
6.0,1.0,-22.0,-8.0,-5.0,-6.0,3.0,3.0,1650849551661928.0
-2.0,-10.0,18.0,13.0,22.0,20.0,4.0,0.0,1650849551661928.0
-4.0,3.0,-5.0,5.0,-1.0,-29.0,-4.0,-5.0,1650849551677913.0
1.0,3.0,-3.0,-12.0,2.0,33.0,0.0,-1.0,1650849551677913.0
-5.0,-1.0,7.0,-5.0,-9.0,-13.0,-4.0,-4.0,1650849551679881.0
1.0,-2.0,-17.0,-16.0,-13.0,-5.0,-1.0,-1.0,1650849551679881.0
2.0,-6.0,7.0,26.0,17.0,4.0,0.0,3.0,1650849551700368.0
-3.0,-1.0,-15.0,-4.0,-4.0,-19.0,-7.0,-4.0,1650849551700368.0
-5.0,-2.0,-6.0,-11.0,-7.0,2.0,-4.0,-2.0,1650849551702357.0
9.0,-10.0,-2.0,-10.0,-9.0,0.0,0.0,0.0,1650849551702357.0
-31.0,7.0,9.0,-6.0,-7.0,-7.0,-2.0,-3.0,1650849551715293.0
2.0,-6.0,-5.0,-5.0,0.0,3.0,-1.0,-2.0,1650849551715293.0
4.0,-1.0,-3.0,5.0,-1.0,2.0,3.0,3.0,1650849551721281.0
-7.0,3.0,8.0,20.0,9.0,1.0,-2.0,-4.0,1650849551721281.0
6.0,3.0,3.0,-8.0,-5.0,0.0,-3.0,-4.0,1650849551738076.0
13.0,-4.0,7.0,8.0,-2.0,-15.0,-3.0,2.0,1650849551738076.0
-17.0,-3.0,-5.0,-4.0,-7.0,4.0,4.0,-1.0,1650849551743992.0
-6.0,-2.0,-2.0,0.0,5.0,9.0,3.0,3.0,1650849551743992.0
9.0,1.0,-5.0,-7.0,10.0,24.0,9.0,4.0,1650849551760079.0
-4.0,1.0,0.0,0.0,0.0,-2.0,1.0,0.0,1650849551760079.0
6.0,0.0,4.0,7.0,0.0,-11.0,-6.0,-3.0,1650849551762048.0
0.0,-4.0,-2.0,0.0,0.0,-7.0,0.0,1.0,1650849551762048.0
9.0,0.0,8.0,-10.0,-9.0,-3.0,-4.0,-2.0,1650849551775038.0
-30.0,8.0,-7.0,-5.0,-10.0,-11.0,1.0,-2.0,1650849551775038.0
10.0,1.0,-3.0,2.0,7.0,18.0,6.0,3.0,1650849551782018.0
2.0,-13.0,-21.0,-1.0,-1.0,-3.0,-3.0,-2.0,1650849551782018.0
-3.0,4.0,4.0,0.0,0.0,-1.0,-1.0,0.0,1650849551797975.0
24.0,-7.0,-13.0,-14.0,2.0,-12.0,-16.0,-10.0,1650849551797975.0
-5.0,1.0,17.0,11.0,1.0,0.0,6.0,-4.0,1650849551799943.0
9.0,7.0,7.0,-9.0,-4.0,4.0,19.0,22.0,1650849551799943.0
42.0,-1.0,-7.0,1.0,-13.0,18.0,-1.0,0.0,1650849551820466.0
-18.0,-4.0,4.0,4.0,25.0,6.0,-1.0,1.0,1650849551820466.0
-9.0,6.0,-9.0,-3.0,4.0,-11.0,-22.0,-14.0,1650849551822416.0
9.0,-2.0,3.0,-5.0,-9.0,-20.0,-27.0,-9.0,1650849551822416.0
-9.0,-4.0,3.0,4.0,-12.0,-11.0,0.0,3.0,1650849551834368.0
19.0,9.0,6.0,19.0,2.0,10.0,12.0,-4.0,1650849551834368.0
-23.0,-7.0,0.0,-14.0,-3.0,-1.0,-4.0,-4.0,1650849551841407.0
-10.0,-7.0,-13.0,-15.0,-4.0,-10.0,1.0,-3.0,1650849551841407.0
12.0,24.0,18.0,14.0,1.0,0.0,-2.0,9.0,1650849551857962.0
21.0,-4.0,1.0,11.0,9.0,14.0,-5.0,-4.0,1650849551857962.0
-51.0,-9.0,3.0,2.0,2.0,-4.0,-1.0,4.0,1650849551863909.0
21.0,8.0,-3.0,-7.0,-9.0,-15.0,-8.0,-11.0,1650849551863909.0
-1.0,-12.0,-9.0,6.0,11.0,23.0,31.0,10.0,1650849551880007.0
-9.0,-1.0,6.0,-14.0,-11.0,-15.0,0.0,3.0,1650849551880007.0
38.0,4.0,-9.0,8.0,0.0,35.0,20.0,10.0,1650849551882003.0
-14.0,4.0,13.0,18.0,20.0,-3.0,-16.0,-9.0,1650849551882003.0
-15.0,-8.0,-5.0,-1.0,6.0,0.0,-9.0,-5.0,1650849551894995.0
5.0,5.0,0.0,-9.0,-7.0,-4.0,7.0,6.0,1650849551894995.0
3.0,-6.0,-1.0,-1.0,-13.0,-18.0,-15.0,-5.0,1650849551901466.0
-8.0,3.0,1.0,0.0,-2.0,5.0,2.0,-1.0,1650849551901466.0
0.0,-2.0,-1.0,5.0,0.0,-14.0,-2.0,-5.0,1650849551918434.0
-10.0,-3.0,-7.0,-20.0,-10.0,-2.0,0.0,3.0,1650849551918434.0
12.0,0.0,-13.0,-15.0,1.0,3.0,1.0,1.0,1650849551919420.0
-6.0,2.0,16.0,22.0,7.0,13.0,12.0,5.0,1650849551919420.0
0.0,0.0,-3.0,-7.0,2.0,-11.0,-7.0,-3.0,1650849551940361.0
-8.0,-7.0,-12.0,-2.0,-2.0,10.0,-5.0,-2.0,1650849551940361.0
-2.0,1.0,10.0,6.0,2.0,-4.0,3.0,-1.0,1650849551942356.0
4.0,-11.0,-15.0,-24.0,-8.0,2.0,4.0,-1.0,1650849551942356.0
-9.0,12.0,8.0,8.0,7.0,1.0,-3.0,-5.0,1650849551955390.0
-4.0,-1.0,0.0,0.0,-10.0,-4.0,0.0,-1.0,1650849551955390.0
10.0,-1.0,0.0,3.0,2.0,-3.0,2.0,0.0,1650849551961376.0
-4.0,-5.0,0.0,3.0,-5.0,-8.0,-4.0,-1.0,1650849551961376.0
-3.0,5.0,2.0,-11.0,1.0,5.0,1.0,-5.0,1650849551977355.0
-2.0,-6.0,-14.0,-1.0,3.0,1.0,3.0,1.0,1650849551977355.0
5.0,-3.0,5.0,7.0,-2.0,-5.0,-1.0,1.0,1650849551985401.0
-6.0,-4.0,-1.0,5.0,0.0,-5.0,-3.0,-4.0,1650849551985401.0
-7.0,-4.0,-6.0,-11.0,-12.0,-7.0,-1.0,0.0,1650849552000493.0
2.0,0.0,7.0,7.0,10.0,10.0,4.0,4.0,1650849552000493.0
2.0,-1.0,-1.0,-4.0,-14.0,-10.0,-4.0,-2.0,1650849552002435.0
-1.0,2.0,1.0,4.0,9.0,8.0,4.0,0.0,1650849552002435.0
0.0,-4.0,-3.0,3.0,3.0,1.0,-1.0,-1.0,1650849552014430.0
-1.0,13.0,12.0,0.0,0.0,-2.0,1.0,1.0,1650849552014430.0
1.0,-4.0,-2.0,-7.0,-4.0,-5.0,-4.0,-2.0,1650849552023378.0
-3.0,-3.0,-6.0,1.0,-4.0,3.0,3.0,2.0,1650849552023378.0
-2.0,2.0,6.0,1.0,0.0,-8.0,-5.0,-3.0,1650849552037994.0
0.0,-5.0,-1.0,1.0,7.0,15.0,3.0,0.0,1650849552037994.0
0.0,4.0,-4.0,-8.0,-6.0,1.0,0.0,0.0,1650849552039942.0
2.0,3.0,2.0,7.0,11.0,10.0,2.0,2.0,1650849552039942.0
-5.0,-10.0,-8.0,-5.0,-6.0,-15.0,-6.0,-2.0,1650849552060182.0
-1.0,-2.0,3.0,3.0,-1.0,-8.0,-2.0,-2.0,1650849552060182.0
2.0,1.0,2.0,2.0,4.0,7.0,2.0,0.0,1650849552062178.0
-2.0,3.0,0.0,-3.0,7.0,12.0,5.0,0.0,1650849552062178.0
-2.0,-6.0,-6.0,-7.0,-9.0,-5.0,-4.0,-2.0,1650849552074145.0
-1.0,4.0,5.0,5.0,5.0,0.0,1.0,1.0,1650849552074145.0
5.0,5.0,0.0,-2.0,-3.0,-11.0,-4.0,-1.0,1650849552083122.0
0.0,1.0,-2.0,-4.0,-5.0,7.0,4.0,2.0,1650849552083122.0
-2.0,2.0,-1.0,2.0,2.0,3.0,-2.0,-1.0,1650849552098110.0
0.0,-1.0,1.0,-1.0,-2.0,0.0,0.0,-1.0,1650849552098110.0
-1.0,-2.0,-2.0,-3.0,-1.0,-13.0,-2.0,-2.0,1650849552100097.0
-2.0,0.0,-1.0,-4.0,-2.0,-2.0,-2.0,-2.0,1650849552100097.0
2.0,-2.0,3.0,10.0,5.0,20.0,5.0,3.0,1650849552121029.0
-1.0,-2.0,2.0,2.0,0.0,-15.0,-4.0,-2.0,1650849552121029.0
-1.0,-1.0,3.0,-3.0,-3.0,5.0,1.0,0.0,1650849552122019.0
1.0,-2.0,-11.0,-9.0,-9.0,0.0,-1.0,-2.0,1650849552122019.0
-1.0,0.0,3.0,9.0,2.0,-5.0,-2.0,1.0,1650849552150943.0
-1.0,-2.0,-9.0,-8.0,5.0,4.0,-1.0,-2.0,1650849552150943.0
0.0,3.0,0.0,-3.0,0.0,-1.0,0.0,0.0,1650849552151938.0
0.0,-1.0,14.0,14.0,-5.0,-6.0,-3.0,-1.0,1650849552151938.0
-3.0,-2.0,-7.0,-8.0,-4.0,-6.0,-2.0,-1.0,1650849552158918.0
1.0,1.0,4.0,3.0,-4.0,-1.0,0.0,0.0,1650849552158918.0
0.0,1.0,-3.0,-1.0,10.0,15.0,3.0,1.0,1650849552160916.0
