EMG_s0,EMG_s1,EMG_s2,EMG_s3,EMG_s4,EMG_s5,EMG_s6,EMG_s7,timestamp
0.0,-2.0,0.0,0.0,7.0,24.0,6.0,1.0,1650849627135775.0
1.0,-1.0,1.0,-2.0,1.0,-3.0,0.0,0.0,1650849627135775.0
-1.0,-1.0,1.0,7.0,7.0,1.0,0.0,0.0,1650849627136764.0
-3.0,-2.0,-1.0,-2.0,-3.0,-9.0,-5.0,-1.0,1650849627136764.0
-1.0,-3.0,-3.0,-6.0,-6.0,-13.0,-5.0,-3.0,1650849627137760.0
-1.0,2.0,-2.0,5.0,-4.0,1.0,1.0,0.0,1650849627137760.0
-1.0,0.0,-1.0,-2.0,-1.0,1.0,-2.0,1.0,1650849627138757.0
-1.0,-2.0,-1.0,-3.0,-2.0,0.0,0.0,-3.0,1650849627138757.0
-1.0,1.0,1.0,2.0,1.0,-4.0,1.0,0.0,1650849627157745.0
1.0,-1.0,-1.0,5.0,-3.0,6.0,1.0,3.0,1650849627157745.0
-1.0,0.0,-1.0,-2.0,9.0,6.0,2.0,-1.0,1650849627160699.0
1.0,1.0,-1.0,-1.0,-5.0,4.0,3.0,-1.0,1650849627160699.0
-2.0,0.0,-1.0,2.0,2.0,-2.0,-1.0,-2.0,1650849627165685.0
-1.0,-2.0,-2.0,-5.0,-9.0,-17.0,-6.0,-1.0,1650849627165685.0
-1.0,-2.0,-2.0,-3.0,-8.0,0.0,0.0,1.0,1650849627188624.0
-1.0,1.0,-1.0,3.0,12.0,11.0,3.0,3.0,1650849627188624.0
-2.0,0.0,3.0,2.0,0.0,10.0,-1.0,3.0,1650849627192624.0
1.0,1.0,3.0,-2.0,3.0,-13.0,0.0,-1.0,1650849627192624.0
3.0,2.0,1.0,3.0,5.0,12.0,2.0,-1.0,1650849627202587.0
0.0,0.0,0.0,2.0,0.0,10.0,2.0,1.0,1650849627202587.0
0.0,0.0,-1.0,-3.0,1.0,-9.0,-3.0,-2.0,1650849627210580.0
0.0,-1.0,-1.0,0.0,2.0,-1.0,-1.0,0.0,1650849627210580.0
-1.0,-1.0,1.0,-2.0,-10.0,-10.0,-1.0,0.0,1650849627224534.0
0.0,-1.0,0.0,0.0,1.0,-3.0,-3.0,-2.0,1650849627224534.0
0.0,1.0,-2.0,1.0,-2.0,1.0,-2.0,0.0,1650849627263899.0
-2.0,-2.0,-2.0,-6.0,-5.0,-6.0,-2.0,-1.0,1650849627263899.0
0.0,-2.0,1.0,-1.0,-4.0,-2.0,0.0,0.0,1650849627264871.0
-1.0,0.0,-1.0,4.0,11.0,8.0,0.0,-1.0,1650849627264871.0
0.0,-1.0,-1.0,-1.0,-4.0,-1.0,-2.0,-1.0,1650849627265862.0
0.0,-2.0,-1.0,-5.0,-6.0,-13.0,-2.0,-3.0,1650849627265862.0
-1.0,-1.0,-1.0,-1.0,-5.0,-4.0,-3.0,0.0,1650849627270842.0
0.0,0.0,0.0,2.0,3.0,25.0,4.0,3.0,1650849627270842.0
-1.0,-3.0,-1.0,-4.0,0.0,-6.0,0.0,-1.0,1650849627276859.0
0.0,0.0,0.0,4.0,8.0,6.0,0.0,1.0,1650849627276859.0
-2.0,0.0,-1.0,2.0,1.0,-6.0,-1.0,-1.0,1650849627285829.0
1.0,-1.0,-1.0,-6.0,-8.0,-14.0,-6.0,-2.0,1650849627285829.0
-1.0,0.0,-1.0,-1.0,-1.0,1.0,1.0,-2.0,1650849627291815.0
-1.0,0.0,-2.0,0.0,-6.0,-5.0,-2.0,-2.0,1650849627291815.0
0.0,-1.0,-1.0,0.0,-5.0,-4.0,-1.0,-1.0,1650849627307872.0
0.0,0.0,-1.0,1.0,10.0,7.0,1.0,0.0,1650849627307872.0
1.0,1.0,0.0,3.0,5.0,1.0,1.0,0.0,1650849627313868.0
0.0,-2.0,1.0,-2.0,2.0,2.0,0.0,-2.0,1650849627313868.0
1.0,0.0,-1.0,-4.0,0.0,3.0,-1.0,-2.0,1650849627337059.0
-1.0,-2.0,-1.0,-2.0,-12.0,-12.0,-2.0,-2.0,1650849627337059.0
-1.0,1.0,0.0,0.0,-2.0,1.0,0.0,-1.0,1650849627338070.0
-1.0,1.0,-1.0,-1.0,0.0,-9.0,-1.0,0.0,1650849627338070.0
-1.0,-1.0,-1.0,0.0,1.0,15.0,-1.0,-1.0,1650849627351020.0
0.0,-1.0,3.0,4.0,13.0,11.0,6.0,2.0,1650849627351020.0
-1.0,-1.0,-2.0,-5.0,-8.0,-9.0,-1.0,1.0,1650849627358999.0
-1.0,-2.0,-1.0,2.0,-1.0,5.0,0.0,-1.0,1650849627358999.0
-1.0,-2.0,0.0,-3.0,-4.0,-19.0,-4.0,-2.0,1650849627374957.0
-1.0,-2.0,-2.0,-3.0,-9.0,-16.0,-6.0,-4.0,1650849627374957.0
1.0,-1.0,0.0,4.0,13.0,28.0,8.0,2.0,1650849627375954.0
1.0,-2.0,0.0,0.0,-1.0,-6.0,0.0,0.0,1650849627375954.0
0.0,0.0,0.0,-1.0,-6.0,2.0,0.0,-1.0,1650849627396898.0
0.0,0.0,0.0,0.0,5.0,-4.0,-3.0,0.0,1650849627396898.0
0.0,-1.0,0.0,0.0,-4.0,-9.0,-5.0,0.0,1650849627397896.0
-1.0,-1.0,-1.0,1.0,-3.0,2.0,-1.0,-2.0,1650849627397896.0
0.0,0.0,1.0,3.0,3.0,9.0,2.0,2.0,1650849627411858.0
1.0,1.0,0.0,-2.0,-1.0,1.0,2.0,0.0,1650849627411858.0
-1.0,0.0,-1.0,-1.0,-7.0,-23.0,-6.0,-4.0,1650849627418906.0
0.0,2.0,0.0,1.0,11.0,30.0,5.0,2.0,1650849627418906.0
-1.0,1.0,0.0,1.0,5.0,-5.0,2.0,1.0,1650849627435091.0
-1.0,0.0,-2.0,-5.0,-13.0,7.0,0.0,-1.0,1650849627435091.0
1.0,0.0,0.0,-1.0,0.0,-1.0,0.0,2.0,1650849627435513.0
-2.0,1.0,-1.0,-3.0,-9.0,-11.0,-3.0,-2.0,1650849627435513.0
-2.0,-1.0,-1.0,-1.0,-1.0,-3.0,-1.0,0.0,1650849627457520.0
-1.0,0.0,-1.0,0.0,-2.0,-4.0,-2.0,-3.0,1650849627457520.0
-2.0,-2.0,0.0,-3.0,-4.0,-15.0,-6.0,-3.0,1650849627457520.0
-1.0,-1.0,0.0,1.0,1.0,15.0,-1.0,1.0,1650849627457520.0
0.0,-1.0,-1.0,1.0,9.0,8.0,6.0,2.0,1650849627471522.0
0.0,-1.0,-1.0,-4.0,-9.0,-11.0,-2.0,-2.0,1650849627471522.0
-1.0,-1.0,0.0,3.0,-3.0,5.0,1.0,1.0,1650849627479473.0
1.0,0.0,0.0,2.0,8.0,-7.0,-2.0,1.0,1650849627479473.0
0.0,-1.0,0.0,-2.0,1.0,4.0,-2.0,-2.0,1650849627501955.0
-2.0,-1.0,-2.0,1.0,3.0,-2.0,-1.0,-2.0,1650849627501955.0
-2.0,-1.0,0.0,2.0,-3.0,-8.0,-3.0,-1.0,1650849627502890.0
0.0,0.0,0.0,0.0,-4.0,12.0,2.0,1.0,1650849627502890.0
2.0,1.0,-1.0,-3.0,-2.0,4.0,1.0,1.0,1650849627516907.0
-1.0,0.0,0.0,0.0,3.0,-8.0,0.0,0.0,1650849627516907.0
-1.0,-1.0,-1.0,-2.0,5.0,9.0,1.0,-2.0,1650849627517840.0
-1.0,-3.0,-1.0,1.0,1.0,-3.0,2.0,1.0,1650849627517840.0
-2.0,-1.0,-1.0,-3.0,-3.0,-2.0,-2.0,-4.0,1650849627531864.0
-1.0,0.0,-1.0,-1.0,-9.0,-12.0,-4.0,0.0,1650849627531864.0
-1.0,-1.0,-2.0,3.0,9.0,0.0,-2.0,0.0,1650849627538811.0
0.0,0.0,2.0,3.0,2.0,12.0,8.0,3.0,1650849627538811.0
1.0,0.0,-1.0,3.0,2.0,-9.0,-4.0,1.0,1650849627554739.0
-1.0,-2.0,0.0,-1.0,-2.0,2.0,0.0,0.0,1650849627554739.0
-2.0,-1.0,-1.0,-3.0,-1.0,-2.0,-1.0,-2.0,1650849627555737.0
-1.0,-1.0,-3.0,-4.0,-8.0,-9.0,-3.0,-3.0,1650849627555737.0
-2.0,0.0,-2.0,2.0,4.0,5.0,0.0,0.0,1650849627577678.0
-1.0,0.0,-1.0,-3.0,-10.0,-9.0,-1.0,-1.0,1650849627577678.0
1.0,0.0,1.0,0.0,3.0,10.0,1.0,0.0,1650849627577678.0
0.0,0.0,1.0,4.0,16.0,2.0,0.0,0.0,1650849627577678.0
0.0,0.0,0.0,-3.0,-13.0,-12.0,-3.0,-2.0,1650849627591640.0
-1.0,0.0,1.0,3.0,18.0,28.0,3.0,1.0,1650849627591640.0
-2.0,-3.0,-1.0,-3.0,-9.0,-3.0,3.0,-1.0,1650849627598625.0
-1.0,-1.0,-4.0,-6.0,-9.0,-19.0,-7.0,-3.0,1650849627598625.0
-2.0,0.0,-3.0,-1.0,3.0,13.0,0.0,-1.0,1650849627622590.0
0.0,-2.0,0.0,0.0,-7.0,-10.0,-2.0,-1.0,1650849627622590.0
1.0,1.0,0.0,2.0,6.0,13.0,4.0,2.0,1650849627622590.0
1.0,0.0,0.0,0.0,0.0,-6.0,0.0,-1.0,1650849627622590.0
-1.0,0.0,-1.0,-1.0,3.0,-5.0,-1.0,0.0,1650849627637550.0
0.0,0.0,-2.0,-3.0,-1.0,0.0,-1.0,-1.0,1650849627637550.0
-1.0,-3.0,-1.0,-3.0,-4.0,-2.0,-1.0,-2.0,1650849627637550.0
-3.0,-3.0,-2.0,-2.0,-7.0,-7.0,-4.0,-3.0,1650849627637550.0
-1.0,-2.0,0.0,0.0,-4.0,-11.0,-3.0,0.0,1650849627651513.0
-2.0,-1.0,-2.0,1.0,3.0,16.0,3.0,0.0,1650849627651513.0
-1.0,1.0,1.0,0.0,1.0,-1.0,-1.0,1.0,1650849627658494.0
2.0,2.0,2.0,0.0,6.0,22.0,4.0,3.0,1650849627658494.0
0.0,0.0,2.0,2.0,10.0,0.0,1.0,1.0,1650849627674451.0
-1.0,-2.0,0.0,0.0,-3.0,-14.0,-4.0,-2.0,1650849627674451.0
-2.0,-1.0,-4.0,-3.0,-12.0,-9.0,-4.0,-3.0,1650849627675449.0
-1.0,-3.0,-1.0,-1.0,-5.0,-4.0,-2.0,0.0,1650849627675449.0
0.0,-1.0,0.0,2.0,0.0,10.0,2.0,-1.0,1650849627697392.0
1.0,1.0,1.0,4.0,6.0,-3.0,1.0,0.0,1650849627697392.0
0.0,-1.0,-1.0,0.0,0.0,5.0,0.0,0.0,1650849627698388.0
-1.0,-1.0,-1.0,-1.0,-1.0,-8.0,-2.0,-1.0,1650849627698388.0
-2.0,-1.0,0.0,-6.0,-4.0,-5.0,-2.0,-3.0,1650849627711353.0
1.0,-1.0,-1.0,-2.0,0.0,3.0,0.0,0.0,1650849627711353.0
0.0,0.0,2.0,-1.0,-5.0,-2.0,-1.0,-2.0,1650849627719331.0
0.0,0.0,-1.0,-1.0,6.0,2.0,0.0,0.0,1650849627719331.0
0.0,1.0,-1.0,2.0,-1.0,-1.0,1.0,-1.0,1650849627734291.0
0.0,1.0,-3.0,1.0,2.0,4.0,1.0,0.0,1650849627734291.0
-1.0,1.0,0.0,-1.0,0.0,-5.0,-2.0,1.0,1650849627735288.0
-1.0,-3.0,2.0,-1.0,-7.0,4.0,3.0,-1.0,1650849627735288.0
-1.0,0.0,-1.0,-2.0,4.0,1.0,0.0,1.0,1650849627757230.0
-1.0,-1.0,1.0,-2.0,-5.0,-7.0,-2.0,-2.0,1650849627757230.0
0.0,-1.0,-1.0,-1.0,0.0,-20.0,-5.0,-2.0,1650849627758227.0
0.0,0.0,0.0,0.0,9.0,37.0,5.0,0.0,1650849627758227.0
-2.0,-1.0,-1.0,-2.0,-21.0,-14.0,-2.0,-1.0,1650849627780176.0
2.0,2.0,2.0,5.0,25.0,22.0,5.0,2.0,1650849627780176.0
2.0,-2.0,1.0,0.0,-1.0,-6.0,1.0,0.0,1650849627780176.0
0.0,1.0,-1.0,-3.0,-9.0,-15.0,-5.0,-2.0,1650849627780176.0
-1.0,0.0,-4.0,-4.0,0.0,1.0,-1.0,-3.0,1650849627795139.0
-2.0,-1.0,0.0,-3.0,-10.0,-9.0,-4.0,0.0,1650849627795139.0
-2.0,-1.0,0.0,1.0,2.0,7.0,-1.0,1.0,1650849627795139.0
-1.0,-1.0,-2.0,1.0,0.0,-10.0,-1.0,0.0,1650849627795139.0
1.0,0.0,1.0,-1.0,2.0,3.0,0.0,1.0,1650849627817154.0
0.0,-1.0,-1.0,-2.0,-14.0,-19.0,-3.0,-1.0,1650849627817154.0
1.0,1.0,2.0,3.0,16.0,21.0,4.0,1.0,1650849627818151.0
-1.0,-1.0,0.0,-2.0,-2.0,-8.0,-2.0,-3.0,1650849627818151.0
0.0,-3.0,0.0,-3.0,-5.0,-4.0,-2.0,-2.0,1650849627831184.0
0.0,-1.0,-2.0,2.0,1.0,20.0,3.0,2.0,1650849627831184.0
-1.0,-1.0,-2.0,-1.0,-2.0,-8.0,-3.0,-2.0,1650849627839123.0
-1.0,0.0,-2.0,-2.0,0.0,-7.0,-1.0,1.0,1650849627839123.0
2.0,-2.0,-4.0,0.0,-2.0,-23.0,-7.0,-3.0,1650849627854876.0
0.0,0.0,0.0,-1.0,3.0,33.0,5.0,-1.0,1650849627854876.0
0.0,-1.0,-1.0,-4.0,-7.0,-2.0,-2.0,-1.0,1650849627855874.0
1.0,0.0,-1.0,0.0,0.0,-4.0,-3.0,-1.0,1650849627855874.0
-1.0,-1.0,0.0,0.0,0.0,3.0,2.0,0.0,1650849627876825.0
-2.0,0.0,-3.0,-3.0,-9.0,-18.0,-6.0,0.0,1650849627876825.0
-1.0,-1.0,-1.0,0.0,0.0,5.0,2.0,2.0,1650849627877816.0
-1.0,0.0,-1.0,1.0,-1.0,2.0,1.0,1.0,1650849627877816.0
-1.0,-1.0,1.0,-1.0,5.0,5.0,-1.0,0.0,1650849627891806.0
0.0,-2.0,-1.0,0.0,-5.0,-6.0,-1.0,0.0,1650849627891806.0
-1.0,-1.0,-2.0,-2.0,1.0,3.0,0.0,-3.0,1650849627898826.0
-1.0,1.0,0.0,-3.0,-7.0,-14.0,-3.0,0.0,1650849627898826.0
1.0,-1.0,0.0,4.0,3.0,9.0,2.0,2.0,1650849627914784.0
-1.0,0.0,0.0,-1.0,1.0,-11.0,-1.0,0.0,1650849627914784.0
1.0,-1.0,-1.0,0.0,5.0,15.0,3.0,1.0,1650849627915714.0
0.0,-2.0,-1.0,-1.0,-4.0,-4.0,-2.0,-1.0,1650849627915714.0
-1.0,1.0,-1.0,-3.0,-5.0,-2.0,0.0,0.0,1650849627938889.0
-1.0,-1.0,1.0,-2.0,1.0,-3.0,-1.0,-2.0,1650849627938889.0
1.0,1.0,0.0,3.0,-2.0,-1.0,0.0,1.0,1650849627939893.0
-1.0,-1.0,-2.0,-1.0,-3.0,-7.0,-2.0,-3.0,1650849627939893.0
-2.0,1.0,1.0,2.0,4.0,14.0,1.0,0.0,1650849627951922.0
0.0,-1.0,-1.0,-4.0,-5.0,-7.0,1.0,-1.0,1650849627951922.0
-1.0,0.0,-2.0,-4.0,-10.0,-16.0,-4.0,-1.0,1650849627958864.0
-1.0,0.0,0.0,1.0,3.0,18.0,2.0,1.0,1650849627958864.0
0.0,-2.0,-1.0,1.0,-2.0,-18.0,-3.0,1.0,1650849627974823.0
0.0,-1.0,-1.0,0.0,6.0,22.0,7.0,1.0,1650849627974823.0
-2.0,0.0,0.0,0.0,-1.0,0.0,0.0,0.0,1650849627975811.0
1.0,0.0,0.0,0.0,0.0,-9.0,-3.0,-2.0,1650849627975811.0
0.0,-2.0,0.0,-1.0,0.0,-3.0,-1.0,-2.0,1650849627996923.0
0.0,-1.0,-1.0,0.0,1.0,1.0,-1.0,-1.0,1650849627996923.0
0.0,-1.0,-2.0,-1.0,3.0,0.0,1.0,-2.0,1650849627997853.0
0.0,-3.0,0.0,-4.0,-6.0,-4.0,0.0,1.0,1650849627997853.0
-1.0,1.0,-2.0,-1.0,-3.0,4.0,0.0,-1.0,1650849628011816.0
1.0,0.0,-2.0,0.0,0.0,-5.0,-2.0,-1.0,1650849628011816.0
0.0,0.0,0.0,0.0,2.0,2.0,1.0,-1.0,1650849628027322.0
-1.0,-2.0,0.0,-2.0,0.0,-2.0,0.0,1.0,1650849628027322.0
0.0,0.0,-1.0,1.0,4.0,5.0,0.0,1.0,1650849628034304.0
-1.0,0.0,0.0,-2.0,-8.0,-10.0,-3.0,-2.0,1650849628034304.0
-1.0,0.0,0.0,1.0,-1.0,2.0,-1.0,-2.0,1650849628035300.0
-1.0,1.0,-1.0,1.0,9.0,6.0,1.0,0.0,1650849628035300.0
-2.0,0.0,-1.0,-1.0,-1.0,-3.0,1.0,-2.0,1650849628057241.0
-1.0,0.0,0.0,-2.0,-3.0,-6.0,-4.0,-2.0,1650849628057241.0
0.0,-2.0,-1.0,-3.0,-4.0,-3.0,-2.0,-2.0,1650849628058239.0
0.0,0.0,0.0,2.0,1.0,6.0,2.0,0.0,1650849628058239.0
1.0,1.0,-1.0,-1.0,-11.0,-13.0,0.0,-1.0,1650849628080180.0
0.0,-1.0,1.0,0.0,14.0,4.0,-1.0,0.0,1650849628080180.0
0.0,2.0,0.0,2.0,10.0,26.0,7.0,1.0,1650849628080180.0
-3.0,-2.0,-1.0,1.0,-6.0,-10.0,-2.0,-2.0,1650849628080180.0
-1.0,-1.0,-1.0,-2.0,-1.0,2.0,-1.0,-1.0,1650849628095141.0
0.0,-2.0,-1.0,-2.0,-10.0,-16.0,-4.0,0.0,1650849628095141.0
-2.0,0.0,-2.0,-4.0,-4.0,-8.0,-2.0,-2.0,1650849628095141.0
0.0,-2.0,-1.0,-1.0,-3.0,1.0,1.0,0.0,1650849628095141.0
-1.0,0.0,0.0,0.0,-3.0,4.0,1.0,-1.0,1650849628117199.0
-2.0,0.0,1.0,3.0,6.0,6.0,1.0,0.0,1650849628117199.0
-2.0,0.0,0.0,1.0,2.0,-12.0,-3.0,1.0,1650849628118165.0
0.0,-1.0,-1.0,-2.0,3.0,26.0,5.0,1.0,1650849628118165.0
-1.0,-2.0,-1.0,-1.0,1.0,-2.0,-2.0,-1.0,1650849628139258.0
0.0,0.0,-1.0,-1.0,-4.0,-3.0,0.0,1.0,1650849628139258.0
-1.0,-1.0,0.0,2.0,-7.0,-4.0,-2.0,0.0,1650849628140235.0
0.0,0.0,1.0,0.0,4.0,-10.0,-4.0,-1.0,1650849628140235.0
2.0,-1.0,-1.0,0.0,0.0,0.0,-1.0,-2.0,1650849628154191.0
0.0,-1.0,1.0,-1.0,-3.0,11.0,3.0,1.0,1650849628154191.0
-1.0,-2.0,1.0,-1.0,0.0,-3.0,-2.0,-1.0,1650849628155201.0
1.0,0.0,0.0,1.0,-2.0,-2.0,1.0,1.0,1650849628155201.0
-2.0,0.0,0.0,-2.0,1.0,-1.0,0.0,1.0,1650849628179131.0
-2.0,0.0,-2.0,-2.0,-3.0,-8.0,-2.0,-2.0,1650849628179131.0
-1.0,-1.0,-2.0,1.0,-2.0,0.0,1.0,-1.0,1650849628179131.0
0.0,-1.0,0.0,1.0,8.0,18.0,2.0,-1.0,1650849628179131.0
1.0,-1.0,0.0,-2.0,-5.0,-5.0,0.0,-1.0,1650849628200069.0
-1.0,0.0,-1.0,0.0,6.0,-5.0,-3.0,-1.0,1650849628200069.0
0.0,-2.0,0.0,-5.0,-14.0,-8.0,-1.0,-1.0,1650849628200069.0
-2.0,-1.0,-1.0,-2.0,8.0,-3.0,-2.0,-3.0,1650849628200069.0
0.0,0.0,-1.0,1.0,2.0,1.0,-1.0,-1.0,1650849628215115.0
-2.0,-1.0,-1.0,-1.0,-8.0,-12.0,-4.0,-3.0,1650849628215115.0
-1.0,0.0,-1.0,0.0,-1.0,20.0,8.0,1.0,1650849628215115.0
0.0,1.0,1.0,1.0,2.0,-9.0,0.0,-1.0,1650849628215115.0
-1.0,-1.0,-2.0,-2.0,2.0,2.0,-2.0,0.0,1650849628236001.0
1.0,1.0,-2.0,2.0,-2.0,-14.0,-4.0,-1.0,1650849628236001.0
2.0,1.0,1.0,2.0,4.0,7.0,-1.0,1.0,1650849628244979.0
1.0,-1.0,-1.0,-1.0,-4.0,3.0,2.0,-1.0,1650849628244979.0
0.0,0.0,-1.0,1.0,8.0,5.0,0.0,1.0,1650849628259965.0
-2.0,-3.0,0.0,-3.0,0.0,3.0,0.0,1.0,1650849628259965.0
-1.0,-3.0,-1.0,-3.0,-2.0,-21.0,-6.0,-3.0,1650849628259965.0
-1.0,0.0,-1.0,-1.0,-7.0,9.0,-1.0,-1.0,1650849628259965.0
1.0,0.0,0.0,-1.0,-1.0,0.0,0.0,0.0,1650849628281941.0
0.0,0.0,0.0,2.0,-1.0,0.0,1.0,-1.0,1650849628281941.0
0.0,0.0,0.0,0.0,5.0,3.0,0.0,1.0,1650849628282891.0
-2.0,-1.0,-2.0,-3.0,-6.0,-13.0,-3.0,-1.0,1650849628282891.0
-1.0,1.0,0.0,-1.0,4.0,8.0,1.0,0.0,1650849628296902.0
-2.0,-1.0,-2.0,-2.0,-15.0,-13.0,-3.0,0.0,1650849628296902.0
0.0,1.0,1.0,3.0,18.0,23.0,7.0,2.0,1650849628304818.0
0.0,0.0,0.0,-2.0,2.0,2.0,1.0,-1.0,1650849628304818.0
0.0,-1.0,0.0,-2.0,-6.0,-2.0,-2.0,0.0,1650849628319800.0
-2.0,-1.0,-1.0,-2.0,-5.0,-14.0,-3.0,-2.0,1650849628319800.0
0.0,1.0,-2.0,-2.0,3.0,7.0,-2.0,-1.0,1650849628320643.0
0.0,0.0,-1.0,-2.0,-11.0,-19.0,-5.0,-1.0,1650849628320643.0
0.0,0.0,0.0,1.0,5.0,14.0,2.0,0.0,1650849628342560.0
1.0,1.0,-2.0,1.0,3.0,13.0,3.0,2.0,1650849628342560.0
-1.0,-3.0,-1.0,-2.0,-5.0,-28.0,-5.0,-2.0,1650849628342560.0
-1.0,-1.0,1.0,2.0,3.0,30.0,4.0,1.0,1650849628342560.0
-1.0,-2.0,-3.0,-1.0,-1.0,-10.0,-1.0,0.0,1650849628356523.0
-1.0,-2.0,-3.0,0.0,7.0,3.0,1.0,0.0,1650849628356523.0
-1.0,0.0,-3.0,-1.0,-8.0,-8.0,-3.0,0.0,1650849628364504.0
0.0,-1.0,-4.0,-4.0,-8.0,-22.0,-6.0,-2.0,1650849628364504.0
0.0,-1.0,0.0,0.0,-2.0,10.0,2.0,-1.0,1650849628379477.0
-2.0,1.0,2.0,-1.0,1.0,11.0,2.0,1.0,1650849628379477.0
-1.0,-1.0,0.0,0.0,-4.0,-10.0,-5.0,0.0,1650849628380459.0
-2.0,-1.0,0.0,0.0,3.0,2.0,-1.0,0.0,1650849628380459.0
0.0,0.0,0.0,-2.0,1.0,5.0,1.0,1.0,1650849628402403.0
0.0,0.0,-1.0,0.0,-4.0,-15.0,-1.0,-1.0,1650849628402403.0
0.0,-1.0,0.0,1.0,-2.0,7.0,0.0,-1.0,1650849628403399.0
0.0,1.0,-1.0,2.0,10.0,-1.0,2.0,1.0,1650849628403399.0
-2.0,-1.0,-1.0,-2.0,-3.0,-2.0,-1.0,-1.0,1650849628416365.0
1.0,-1.0,-2.0,0.0,-3.0,-5.0,-5.0,-2.0,1650849628416365.0
0.0,-2.0,-2.0,-3.0,-5.0,7.0,3.0,-2.0,1650849628424342.0
0.0,0.0,1.0,2.0,5.0,5.0,0.0,-1.0,1650849628424342.0
-1.0,1.0,2.0,2.0,13.0,13.0,2.0,0.0,1650849628439302.0
-1.0,1.0,-1.0,-4.0,-8.0,-7.0,0.0,0.0,1650849628439302.0
1.0,-1.0,1.0,-1.0,-12.0,-6.0,-3.0,-2.0,1650849628440299.0
0.0,0.0,1.0,1.0,7.0,-5.0,1.0,1.0,1650849628440299.0
0.0,-1.0,-1.0,0.0,-5.0,-4.0,1.0,-2.0,1650849628462254.0
-1.0,-2.0,-3.0,-2.0,-3.0,-9.0,-4.0,-2.0,1650849628462254.0
0.0,1.0,-1.0,1.0,8.0,19.0,3.0,-2.0,1650849628463238.0
0.0,0.0,0.0,-1.0,-8.0,-6.0,0.0,-2.0,1650849628463238.0
0.0,-1.0,-1.0,-2.0,-11.0,-18.0,-4.0,0.0,1650849628476203.0
0.0,-1.0,-1.0,0.0,9.0,14.0,2.0,-1.0,1650849628476203.0
-1.0,1.0,-1.0,-1.0,1.0,-1.0,-1.0,1.0,1650849628485183.0
0.0,-1.0,-1.0,-1.0,-3.0,-7.0,-2.0,-2.0,1650849628485183.0
-1.0,1.0,-1.0,-1.0,1.0,0.0,-2.0,2.0,1650849628500142.0
0.0,0.0,2.0,0.0,-3.0,-3.0,-1.0,-1.0,1650849628500142.0
-2.0,0.0,-2.0,-1.0,4.0,5.0,6.0,1.0,1650849628500142.0
1.0,-1.0,0.0,-1.0,-10.0,-1.0,-1.0,0.0,1650849628500142.0
-1.0,0.0,-1.0,3.0,5.0,4.0,2.0,0.0,1650849628522080.0
1.0,-1.0,-1.0,0.0,6.0,2.0,-1.0,-1.0,1650849628522080.0
-2.0,1.0,0.0,-2.0,-7.0,-12.0,-4.0,0.0,1650849628523078.0
-1.0,1.0,0.0,0.0,1.0,2.0,-1.0,1.0,1650849628523078.0
0.0,-1.0,-1.0,-4.0,-10.0,-10.0,-1.0,-1.0,1650849628545020.0
-2.0,0.0,0.0,2.0,4.0,11.0,2.0,1.0,1650849628545020.0
0.0,-1.0,-2.0,-2.0,1.0,-9.0,-3.0,-1.0,1650849628546017.0
-1.0,-1.0,-2.0,-3.0,-5.0,-4.0,0.0,-1.0,1650849628546017.0
1.0,1.0,-1.0,0.0,5.0,12.0,1.0,1.0,1650849628559979.0
-1.0,0.0,-1.0,-3.0,3.0,4.0,0.0,-2.0,1650849628559979.0
0.0,-1.0,0.0,1.0,-2.0,-4.0,-2.0,-2.0,1650849628560976.0
-2.0,-1.0,0.0,-2.0,-6.0,-9.0,-4.0,-2.0,1650849628560976.0
-2.0,-2.0,1.0,1.0,2.0,-8.0,-2.0,-2.0,1650849628581923.0
-2.0,0.0,0.0,-1.0,0.0,1.0,0.0,-2.0,1650849628581923.0
0.0,-1.0,-1.0,0.0,3.0,17.0,4.0,1.0,1650849628582918.0
-1.0,0.0,-2.0,-5.0,-6.0,-9.0,-2.0,-1.0,1650849628582918.0
0.0,0.0,1.0,2.0,9.0,14.0,4.0,0.0,1650849628612858.0
0.0,-2.0,-1.0,0.0,-8.0,-7.0,-1.0,-1.0,1650849628612858.0
0.0,0.0,-1.0,1.0,9.0,-3.0,-4.0,-2.0,1650849628613836.0
0.0,1.0,-1.0,1.0,1.0,-3.0,-2.0,1.0,1650849628613836.0
-3.0,0.0,-2.0,-1.0,-1.0,0.0,-2.0,-2.0,1650849628619819.0
1.0,0.0,0.0,0.0,-5.0,-5.0,-2.0,0.0,1650849628619819.0
-1.0,0.0,-1.0,0.0,1.0,9.0,2.0,-2.0,1650849628620837.0
-1.0,0.0,0.0,-3.0,-8.0,-12.0,-2.0,0.0,1650849628620837.0
-2.0,-1.0,-3.0,1.0,2.0,10.0,-2.0,-2.0,1650849628642558.0
-1.0,1.0,0.0,-1.0,0.0,5.0,6.0,1.0,1650849628642558.0
0.0,0.0,-1.0,-2.0,5.0,-5.0,-3.0,0.0,1650849628642558.0
-1.0,-1.0,1.0,0.0,-6.0,-1.0,-1.0,0.0,1650849628642558.0
-1.0,0.0,-1.0,-2.0,-2.0,-14.0,-5.0,-1.0,1650849628665639.0
-1.0,-1.0,0.0,-1.0,-3.0,0.0,-2.0,0.0,1650849628665639.0
-1.0,0.0,-1.0,-1.0,-2.0,-2.0,0.0,-1.0,1650849628666604.0
-1.0,-2.0,-2.0,0.0,5.0,3.0,1.0,0.0,1650849628666604.0
1.0,-1.0,1.0,0.0,-5.0,-2.0,3.0,1.0,1650849628679600.0
0.0,-1.0,-2.0,0.0,3.0,6.0,0.0,1.0,1650849628679600.0
-2.0,-4.0,2.0,-2.0,-6.0,-11.0,-2.0,0.0,1650849628680573.0
-1.0,-1.0,-1.0,-1.0,1.0,0.0,-1.0,0.0,1650849628680573.0
1.0,-2.0,-2.0,-2.0,-15.0,-4.0,2.0,0.0,1650849628702547.0
0.0,1.0,0.0,3.0,14.0,9.0,0.0,-1.0,1650849628702547.0
0.0,0.0,-1.0,0.0,-5.0,-5.0,-1.0,1.0,1650849628702547.0
0.0,0.0,-2.0,-1.0,4.0,-7.0,-3.0,0.0,1650849628702547.0
-1.0,-1.0,1.0,-2.0,1.0,7.0,0.0,-1.0,1650849628733104.0
0.0,0.0,2.0,0.0,0.0,13.0,5.0,1.0,1650849628733104.0
-1.0,-2.0,-1.0,-3.0,-4.0,-11.0,-3.0,-2.0,1650849628734063.0
-1.0,0.0,-1.0,2.0,4.0,25.0,2.0,1.0,1650849628734063.0
-2.0,-1.0,-2.0,-1.0,-5.0,-22.0,-5.0,-1.0,1650849628740046.0
-2.0,-2.0,-1.0,-3.0,-2.0,-4.0,-3.0,-2.0,1650849628740046.0
-1.0,1.0,0.0,-1.0,-1.0,-1.0,0.0,0.0,1650849628740046.0
-1.0,-3.0,-2.0,-3.0,-4.0,-5.0,0.0,0.0,1650849628740046.0
1.0,0.0,0.0,0.0,0.0,2.0,-1.0,-2.0,1650849628761995.0
-1.0,-1.0,2.0,2.0,-1.0,0.0,-1.0,-2.0,1650849628761995.0
0.0,-1.0,0.0,-2.0,-4.0,-2.0,-1.0,0.0,1650849628769967.0
1.0,-2.0,0.0,0.0,-2.0,2.0,2.0,0.0,1650849628769967.0
0.0,0.0,0.0,-1.0,5.0,3.0,1.0,1.0,1650849628785042.0
1.0,-1.0,-2.0,-2.0,-7.0,-1.0,0.0,1.0,1650849628785042.0
1.0,0.0,1.0,2.0,-7.0,-7.0,0.0,0.0,1650849628786012.0
1.0,0.0,1.0,3.0,15.0,10.0,1.0,1.0,1650849628786012.0
-2.0,-1.0,-2.0,-6.0,-10.0,-12.0,-3.0,-3.0,1650849628799998.0
-2.0,-1.0,-2.0,-1.0,-1.0,-20.0,-7.0,-1.0,1650849628799998.0
-1.0,1.0,-1.0,1.0,6.0,41.0,12.0,4.0,1650849628799998.0
-1.0,0.0,-3.0,0.0,-3.0,-5.0,-1.0,-1.0,1650849628799998.0
0.0,-2.0,-1.0,-1.0,3.0,-2.0,0.0,0.0,1650849628822029.0
0.0,-1.0,0.0,1.0,-5.0,-13.0,-5.0,-1.0,1650849628822029.0
-1.0,-2.0,-1.0,-2.0,-4.0,-6.0,-2.0,-2.0,1650849628823001.0
-1.0,0.0,0.0,1.0,-2.0,4.0,0.0,-1.0,1650849628823001.0
0.0,0.0,0.0,3.0,5.0,2.0,0.0,1.0,1650849628844941.0
0.0,-1.0,-2.0,-3.0,-5.0,0.0,-2.0,1.0,1650849628844941.0
2.0,-1.0,0.0,2.0,7.0,9.0,0.0,2.0,1650849628845940.0
0.0,1.0,-1.0,-2.0,-4.0,-5.0,0.0,0.0,1650849628845940.0
-2.0,0.0,-1.0,-1.0,-6.0,-6.0,-1.0,-1.0,1650849628859936.0
0.0,-2.0,-4.0,1.0,7.0,5.0,2.0,-2.0,1650849628859936.0
-1.0,0.0,-1.0,0.0,1.0,0.0,-1.0,-1.0,1650849628860919.0
-1.0,-3.0,-1.0,-3.0,-16.0,-29.0,-7.0,-4.0,1650849628860919.0
0.0,0.0,2.0,1.0,13.0,25.0,2.0,2.0,1650849628890818.0
1.0,1.0,1.0,0.0,0.0,10.0,6.0,4.0,1650849628890818.0
-1.0,0.0,-2.0,1.0,8.0,-3.0,-2.0,-1.0,1650849628890818.0
-1.0,-2.0,-1.0,-2.0,-3.0,-1.0,-2.0,-3.0,1650849628890818.0
-1.0,-2.0,-2.0,-2.0,-9.0,-14.0,-5.0,-3.0,1650849628905782.0
-1.0,-2.0,-2.0,0.0,-3.0,-3.0,0.0,0.0,1650849628905782.0
-1.0,-2.0,-1.0,-1.0,-5.0,-8.0,-2.0,-1.0,1650849628905782.0
-1.0,1.0,2.0,1.0,10.0,3.0,0.0,1.0,1650849628905782.0
-1.0,2.0,1.0,2.0,-3.0,1.0,0.0,1.0,1650849628919741.0
0.0,0.0,0.0,0.0,2.0,13.0,3.0,-2.0,1650849628919741.0
-1.0,-1.0,-2.0,0.0,0.0,-6.0,-3.0,0.0,1650849628920739.0
0.0,-2.0,-1.0,1.0,3.0,1.0,2.0,-1.0,1650849628920739.0
0.0,-2.0,-1.0,-1.0,-2.0,-10.0,-2.0,-2.0,1650849628942190.0
-1.0,1.0,2.0,-3.0,-2.0,-2.0,-2.0,-1.0,1650849628942190.0
0.0,-1.0,1.0,1.0,-2.0,4.0,6.0,2.0,1650849628943187.0
-3.0,-1.0,0.0,-1.0,5.0,-1.0,-1.0,-1.0,1650849628943187.0
1.0,0.0,2.0,2.0,9.0,17.0,2.0,1.0,1650849628965168.0
-2.0,-1.0,-2.0,-6.0,-14.0,-19.0,-5.0,-3.0,1650849628965168.0
0.0,-1.0,-1.0,-1.0,4.0,-6.0,-4.0,-1.0,1650849628966126.0
0.0,-1.0,-1.0,1.0,-1.0,12.0,2.0,0.0,1650849628966126.0
1.0,-1.0,-1.0,-1.0,-1.0,-8.0,1.0,-3.0,1650849628980088.0
0.0,0.0,1.0,1.0,6.0,12.0,0.0,0.0,1650849628980088.0
0.0,0.0,-2.0,-2.0,-6.0,-12.0,-1.0,-3.0,1650849628980088.0
-1.0,-1.0,-2.0,-2.0,0.0,3.0,0.0,1.0,1650849628980088.0
-1.0,-1.0,0.0,-2.0,-7.0,-3.0,-1.0,-1.0,1650849629002057.0
0.0,1.0,1.0,1.0,6.0,3.0,-1.0,-1.0,1650849629002057.0
-1.0,-1.0,-4.0,-3.0,-8.0,-7.0,-1.0,-2.0,1650849629010036.0
1.0,0.0,0.0,1.0,2.0,13.0,2.0,1.0,1650849629010036.0
-2.0,-1.0,-1.0,2.0,5.0,3.0,0.0,0.0,1650849629024997.0
0.0,-1.0,1.0,0.0,0.0,0.0,-1.0,1.0,1650849629024997.0
-1.0,-2.0,-1.0,-3.0,-7.0,-7.0,-4.0,-2.0,1650849629025976.0
0.0,0.0,-1.0,-1.0,5.0,-8.0,-1.0,-3.0,1650849629025976.0
-2.0,0.0,0.0,-1.0,-4.0,9.0,4.0,2.0,1650849629039969.0
0.0,0.0,-2.0,0.0,-3.0,13.0,1.0,2.0,1650849629039969.0
0.0,2.0,-1.0,0.0,1.0,-4.0,-2.0,-2.0,1650849629040926.0
0.0,-2.0,-2.0,0.0,4.0,8.0,0.0,0.0,1650849629040926.0
0.0,0.0,0.0,1.0,2.0,-13.0,-3.0,-1.0,1650849629062867.0
-2.0,-2.0,-1.0,-2.0,-7.0,-8.0,-1.0,-1.0,1650849629062867.0
0.0,-1.0,-2.0,-1.0,-1.0,4.0,0.0,1.0,1650849629062867.0
-2.0,-1.0,0.0,-2.0,-8.0,-7.0,-2.0,0.0,1650849629062867.0
-2.0,1.0,-3.0,-4.0,-1.0,-7.0,-3.0,-2.0,1650849629084987.0
0.0,-1.0,-1.0,0.0,-1.0,9.0,2.0,0.0,1650849629084987.0
0.0,0.0,0.0,3.0,3.0,1.0,1.0,0.0,1650849629085991.0
-1.0,0.0,2.0,-3.0,3.0,2.0,1.0,-1.0,1650849629085991.0
0.0,-2.0,-1.0,0.0,-3.0,-3.0,-2.0,1.0,1650849629099952.0
-1.0,0.0,0.0,0.0,-2.0,-9.0,-1.0,0.0,1650849629099952.0
0.0,-4.0,-2.0,1.0,3.0,-1.0,-3.0,-2.0,1650849629099952.0
1.0,0.0,1.0,1.0,2.0,17.0,9.0,2.0,1650849629099952.0
-1.0,0.0,-2.0,-1.0,-6.0,-7.0,-1.0,-1.0,1650849629121956.0
-1.0,1.0,-1.0,-1.0,-3.0,-13.0,-3.0,-1.0,1650849629121956.0
-3.0,-1.0,1.0,-3.0,-6.0,-4.0,-3.0,-1.0,1650849629122886.0
2.0,0.0,-1.0,1.0,8.0,17.0,2.0,1.0,1650849629122886.0
-1.0,-2.0,-3.0,-2.0,-5.0,-7.0,-2.0,1.0,1650849629144854.0
0.0,-2.0,-1.0,-1.0,6.0,-1.0,0.0,-2.0,1650849629144854.0
-3.0,-1.0,1.0,-1.0,-6.0,-1.0,2.0,1.0,1650849629145825.0
0.0,1.0,-2.0,1.0,3.0,-6.0,-1.0,-1.0,1650849629145825.0
1.0,0.0,-1.0,-1.0,1.0,5.0,0.0,-1.0,1650849629167920.0
-2.0,0.0,-1.0,-2.0,-2.0,-1.0,-2.0,0.0,1650849629167920.0
-1.0,-1.0,-1.0,-3.0,-2.0,-4.0,-3.0,-1.0,1650849629168851.0
-4.0,-3.0,0.0,-1.0,-13.0,-11.0,-4.0,-2.0,1650849629168851.0
-1.0,-1.0,-2.0,1.0,4.0,-8.0,-2.0,-1.0,1650849629182699.0
1.0,0.0,1.0,-1.0,6.0,21.0,5.0,2.0,1650849629182699.0
0.0,-2.0,1.0,-1.0,-6.0,13.0,1.0,-2.0,1650849629182699.0
1.0,1.0,0.0,0.0,13.0,-1.0,1.0,1.0,1650849629182699.0
-1.0,0.0,-2.0,1.0,-5.0,-7.0,-3.0,-1.0,1650849629205639.0
-2.0,-2.0,-1.0,0.0,-6.0,-15.0,-3.0,-1.0,1650849629205639.0
1.0,1.0,0.0,0.0,8.0,18.0,4.0,1.0,1650849629205639.0
-1.0,-2.0,-3.0,-3.0,-21.0,-14.0,-2.0,-1.0,1650849629205639.0
1.0,-1.0,2.0,1.0,9.0,10.0,0.0,0.0,1650849629218632.0
0.0,0.0,-2.0,-2.0,0.0,-6.0,-2.0,-1.0,1650849629218632.0
-1.0,-1.0,-2.0,0.0,5.0,-6.0,-1.0,0.0,1650849629227611.0
-1.0,0.0,0.0,-2.0,-3.0,4.0,1.0,-2.0,1650849629227611.0
-1.0,-3.0,0.0,-1.0,-3.0,2.0,1.0,0.0,1650849629242568.0
0.0,-2.0,-2.0,0.0,8.0,6.0,0.0,-1.0,1650849629242568.0
-2.0,-1.0,-2.0,-2.0,-6.0,-12.0,-4.0,-1.0,1650849629242568.0
-1.0,1.0,-1.0,-3.0,-6.0,-31.0,-7.0,-2.0,1650849629242568.0
2.0,1.0,3.0,3.0,8.0,50.0,13.0,3.0,1650849629265610.0
2.0,1.0,1.0,0.0,6.0,6.0,5.0,2.0,1650849629265610.0
1.0,-1.0,-1.0,-1.0,6.0,-2.0,-3.0,0.0,1650849629266630.0
-3.0,-1.0,-2.0,-4.0,-10.0,-15.0,-4.0,-1.0,1650849629266630.0
-1.0,-2.0,-1.0,0.0,-5.0,-14.0,-5.0,-1.0,1650849629278605.0
-1.0,-2.0,-2.0,0.0,-1.0,-2.0,-2.0,0.0,1650849629278605.0
-1.0,0.0,1.0,-1.0,-2.0,-1.0,2.0,1.0,1650849629287581.0
0.0,-1.0,1.0,4.0,15.0,23.0,5.0,0.0,1650849629287581.0
-1.0,-1.0,-2.0,-6.0,-9.0,-9.0,-3.0,-2.0,1650849629302540.0
0.0,1.0,0.0,-1.0,-13.0,-2.0,0.0,-1.0,1650849629302540.0
1.0,0.0,-1.0,2.0,7.0,-7.0,0.0,3.0,1650849629302540.0
0.0,-1.0,0.0,6.0,9.0,2.0,-2.0,-2.0,1650849629302540.0
-1.0,-2.0,-1.0,-2.0,-1.0,-4.0,-2.0,-1.0,1650849629325562.0
-1.0,-2.0,-1.0,-5.0,-6.0,0.0,0.0,-1.0,1650849629325562.0
-1.0,-2.0,0.0,0.0,-1.0,-3.0,-2.0,-2.0,1650849629326559.0
0.0,0.0,3.0,4.0,9.0,11.0,1.0,1.0,1650849629326559.0
-1.0,1.0,-2.0,-1.0,-5.0,-5.0,-2.0,0.0,1650849629339505.0
-2.0,0.0,-3.0,-9.0,-9.0,-8.0,-3.0,-1.0,1650849629339505.0
0.0,-1.0,1.0,3.0,-2.0,2.0,-1.0,-1.0,1650849629347485.0
-1.0,-2.0,-1.0,-1.0,-2.0,-2.0,1.0,-1.0,1650849629347485.0
0.0,1.0,1.0,2.0,6.0,8.0,-2.0,0.0,1650849629362463.0
-1.0,-1.0,0.0,-3.0,-2.0,-6.0,-1.0,-1.0,1650849629362463.0
0.0,1.0,-2.0,-3.0,-8.0,-4.0,-1.0,-2.0,1650849629363434.0
-1.0,-1.0,0.0,1.0,4.0,-13.0,-3.0,0.0,1650849629363434.0
0.0,0.0,1.0,-1.0,0.0,19.0,9.0,4.0,1650849629385553.0
1.0,-2.0,1.0,1.0,15.0,4.0,-1.0,1.0,1650849629385553.0
-2.0,0.0,-1.0,2.0,2.0,1.0,-2.0,-1.0,1650849629386549.0
0.0,-1.0,-1.0,-4.0,-10.0,-14.0,-4.0,-2.0,1650849629386549.0
0.0,-1.0,-1.0,-4.0,-7.0,-7.0,-2.0,-1.0,1650849629399548.0
-1.0,1.0,0.0,5.0,3.0,-1.0,-1.0,-2.0,1650849629399548.0
0.0,-1.0,-1.0,-8.0,-10.0,1.0,2.0,-1.0,1650849629407521.0
1.0,0.0,1.0,-1.0,0.0,5.0,2.0,3.0,1650849629407521.0
-2.0,0.0,-1.0,0.0,10.0,-9.0,-4.0,-2.0,1650849629422481.0
-1.0,-1.0,2.0,7.0,2.0,9.0,2.0,1.0,1650849629422481.0
-1.0,0.0,-1.0,0.0,5.0,3.0,-3.0,-2.0,1650849629423452.0
-1.0,-2.0,-3.0,-4.0,-11.0,0.0,-1.0,0.0,1650849629423452.0
1.0,1.0,-2.0,2.0,3.0,-6.0,0.0,-1.0,1650849629445392.0
-2.0,-3.0,-2.0,-2.0,-11.0,-29.0,-5.0,-2.0,1650849629445392.0
-3.0,-3.0,0.0,-1.0,10.0,21.0,1.0,1.0,1650849629446390.0
-1.0,0.0,-2.0,-6.0,-16.0,4.0,2.0,-1.0,1650849629446390.0
-1.0,-1.0,-1.0,6.0,6.0,-9.0,-2.0,0.0,1650849629467959.0
-1.0,1.0,3.0,-1.0,7.0,11.0,2.0,2.0,1650849629467959.0
0.0,0.0,-2.0,-5.0,-11.0,-15.0,-4.0,0.0,1650849629468917.0
0.0,-2.0,0.0,-3.0,1.0,-3.0,-4.0,-1.0,1650849629468917.0
-2.0,-1.0,-1.0,-3.0,-7.0,5.0,0.0,-2.0,1650849629481923.0
0.0,0.0,-1.0,3.0,-1.0,-3.0,-1.0,-1.0,1650849629481923.0
0.0,-1.0,0.0,1.0,10.0,3.0,3.0,2.0,1650849629482852.0
-2.0,-2.0,-2.0,-3.0,1.0,16.0,1.0,0.0,1650849629482852.0
-1.0,0.0,-2.0,-3.0,-7.0,-19.0,-4.0,-2.0,1650849629504948.0
-1.0,1.0,0.0,3.0,8.0,9.0,-1.0,-1.0,1650849629504948.0
2.0,1.0,1.0,1.0,-10.0,-11.0,3.0,0.0,1650849629505953.0
1.0,2.0,0.0,5.0,12.0,1.0,0.0,-1.0,1650849629505953.0
-1.0,-3.0,-1.0,-3.0,-6.0,4.0,0.0,0.0,1650849629527916.0
-2.0,-2.0,2.0,1.0,11.0,-2.0,-2.0,-1.0,1650849629527916.0
-1.0,-1.0,-1.0,-3.0,-8.0,-7.0,-2.0,-2.0,1650849629528886.0
-2.0,0.0,0.0,2.0,-1.0,-5.0,1.0,-1.0,1650849629528886.0
1.0,-1.0,0.0,-1.0,0.0,-1.0,-1.0,-1.0,1650849629541881.0
-1.0,0.0,-2.0,-3.0,-16.0,-5.0,1.0,0.0,1650849629541881.0
0.0,0.0,-2.0,-2.0,0.0,-12.0,-5.0,-2.0,1650849629542869.0
-2.0,2.0,-1.0,2.0,10.0,16.0,2.0,1.0,1650849629542869.0
0.0,1.0,1.0,-3.0,4.0,12.0,2.0,1.0,1650849629565842.0
-1.0,-1.0,-1.0,-4.0,-7.0,-4.0,1.0,0.0,1650849629565842.0
1.0,0.0,1.0,3.0,7.0,6.0,1.0,1.0,1650849629565842.0
0.0,-1.0,-2.0,-3.0,-9.0,-23.0,-5.0,-3.0,1650849629565842.0
-1.0,-2.0,1.0,0.0,-4.0,2.0,0.0,-1.0,1650849629587812.0
1.0,1.0,1.0,2.0,5.0,10.0,1.0,0.0,1650849629587812.0
-1.0,-1.0,-1.0,2.0,5.0,0.0,0.0,0.0,1650849629588812.0
0.0,0.0,-1.0,-2.0,-6.0,-8.0,-3.0,0.0,1650849629588812.0
-1.0,0.0,-2.0,0.0,3.0,1.0,1.0,1.0,1650849629601795.0
0.0,-1.0,-2.0,-5.0,-10.0,-10.0,-3.0,-2.0,1650849629601795.0
-2.0,0.0,-1.0,1.0,-5.0,7.0,8.0,1.0,1650849629602753.0
0.0,0.0,-1.0,1.0,15.0,12.0,1.0,1.0,1650849629602753.0
0.0,0.0,-2.0,0.0,-2.0,4.0,0.0,1.0,1650849629625776.0
1.0,2.0,-2.0,0.0,-1.0,-12.0,-2.0,0.0,1650849629625776.0
-1.0,-1.0,0.0,-2.0,-5.0,-2.0,-4.0,-1.0,1650849629625776.0
0.0,-2.0,-1.0,-2.0,-6.0,-14.0,-1.0,-1.0,1650849629625776.0
-2.0,-2.0,1.0,1.0,6.0,26.0,4.0,2.0,1650849629647690.0
1.0,-1.0,0.0,-1.0,9.0,8.0,3.0,2.0,1650849629647690.0
-1.0,-2.0,-2.0,-6.0,-5.0,-4.0,-4.0,-2.0,1650849629648687.0
-1.0,-1.0,-1.0,-1.0,-15.0,-7.0,-1.0,0.0,1650849629648687.0
1.0,2.0,-1.0,0.0,-6.0,-19.0,-4.0,-3.0,1650849629661681.0
-1.0,0.0,0.0,1.0,12.0,14.0,1.0,0.0,1650849629661681.0
-1.0,0.0,-1.0,2.0,2.0,7.0,1.0,-1.0,1650849629662679.0
1.0,-3.0,0.0,-3.0,-2.0,-4.0,-4.0,-1.0,1650849629662679.0
0.0,-3.0,-1.0,-4.0,-14.0,-24.0,-5.0,-1.0,1650849629685628.0
0.0,0.0,0.0,2.0,5.0,30.0,9.0,1.0,1650849629685628.0
1.0,0.0,-2.0,-3.0,-2.0,-1.0,0.0,0.0,1650849629686598.0
0.0,0.0,-1.0,0.0,4.0,-1.0,-2.0,1.0,1650849629686598.0
-1.0,-1.0,-1.0,0.0,7.0,-3.0,-1.0,0.0,1650849629707550.0
-1.0,-3.0,0.0,-3.0,-6.0,-12.0,-3.0,-2.0,1650849629707550.0
0.0,-1.0,-1.0,-2.0,-4.0,11.0,-1.0,-1.0,1650849629708533.0
0.0,0.0,0.0,2.0,1.0,-1.0,3.0,-1.0,1650849629708533.0
-1.0,1.0,-1.0,-7.0,-10.0,-9.0,-4.0,0.0,1650849629722489.0
0.0,1.0,0.0,6.0,10.0,9.0,1.0,0.0,1650849629722489.0
0.0,-1.0,0.0,2.0,5.0,0.0,1.0,0.0,1650849629722489.0
-2.0,-1.0,-1.0,-3.0,-9.0,-3.0,-4.0,-3.0,1650849629722489.0
-1.0,-1.0,-1.0,-2.0,-2.0,-7.0,-1.0,-1.0,1650849629745449.0
0.0,-2.0,-1.0,-5.0,-5.0,-7.0,-3.0,-2.0,1650849629745449.0
0.0,-1.0,-2.0,1.0,1.0,-1.0,1.0,0.0,1650849629746446.0
0.0,1.0,-1.0,1.0,2.0,8.0,1.0,-2.0,1650849629746446.0
-1.0,-1.0,-1.0,1.0,4.0,-2.0,-2.0,0.0,1650849629768416.0
-1.0,0.0,-2.0,-1.0,-8.0,-4.0,-2.0,-1.0,1650849629768416.0
0.0,-2.0,-1.0,1.0,3.0,-10.0,-3.0,-1.0,1650849629768416.0
-3.0,-1.0,1.0,-4.0,5.0,24.0,5.0,0.0,1650849629768416.0
-1.0,-1.0,0.0,2.0,-2.0,-4.0,-2.0,-2.0,1650849629782362.0
-1.0,2.0,2.0,3.0,-1.0,6.0,0.0,1.0,1650849629782362.0
0.0,1.0,2.0,4.0,11.0,3.0,4.0,1.0,1650849629783361.0
0.0,0.0,-2.0,-1.0,-1.0,-7.0,-2.0,-1.0,1650849629783361.0
0.0,-2.0,-2.0,-2.0,-2.0,1.0,1.0,1.0,1650849629805302.0
-1.0,0.0,-3.0,-5.0,-11.0,-23.0,-5.0,-2.0,1650849629805302.0
-2.0,-2.0,-3.0,-5.0,-9.0,4.0,-3.0,-1.0,1650849629806266.0
1.0,1.0,3.0,5.0,-2.0,10.0,5.0,1.0,1650849629806266.0
0.0,1.0,-1.0,5.0,26.0,21.0,4.0,1.0,1650849629828227.0
0.0,-2.0,0.0,-1.0,-10.0,-10.0,-4.0,-2.0,1650849629828227.0
-1.0,0.0,-1.0,-5.0,-4.0,-9.0,-5.0,-2.0,1650849629828227.0
-2.0,-1.0,-1.0,-4.0,-4.0,-5.0,-3.0,-1.0,1650849629828227.0
-1.0,1.0,-1.0,-1.0,-6.0,-2.0,-1.0,-1.0,1650849629842169.0
1.0,-1.0,-1.0,1.0,4.0,1.0,0.0,-1.0,1650849629842169.0
-1.0,0.0,0.0,-1.0,0.0,-1.0,1.0,-1.0,1650849629843167.0
0.0,-2.0,-2.0,0.0,-5.0,-24.0,-6.0,-2.0,1650849629843167.0
0.0,0.0,0.0,0.0,2.0,24.0,4.0,-1.0,1650849629865108.0
-2.0,-1.0,-1.0,-1.0,-4.0,12.0,3.0,0.0,1650849629865108.0
2.0,0.0,0.0,3.0,10.0,2.0,2.0,1.0,1650849629866106.0
-2.0,-1.0,-1.0,0.0,-2.0,-3.0,-1.0,0.0,1650849629866106.0
-1.0,-1.0,1.0,1.0,-4.0,-13.0,-5.0,-2.0,1650849629888080.0
1.0,0.0,0.0,-2.0,-3.0,-6.0,0.0,-2.0,1650849629888080.0
-1.0,-1.0,0.0,-1.0,0.0,6.0,-1.0,-2.0,1650849629889091.0
-1.0,-2.0,-3.0,-4.0,-7.0,-18.0,-3.0,1.0,1650849629889091.0
1.0,1.0,2.0,2.0,6.0,25.0,4.0,1.0,1650849629902053.0
-1.0,0.0,0.0,-1.0,1.0,-1.0,1.0,0.0,1650849629902053.0
0.0,-2.0,-1.0,1.0,-6.0,-9.0,-4.0,-1.0,1650849629903008.0
-1.0,-1.0,2.0,1.0,6.0,5.0,1.0,0.0,1650849629903008.0
-1.0,-2.0,-2.0,-1.0,-6.0,-11.0,-2.0,-3.0,1650849629924947.0
-1.0,0.0,-2.0,1.0,2.0,-6.0,-3.0,1.0,1650849629924947.0
0.0,1.0,2.0,-1.0,-4.0,4.0,-1.0,0.0,1650849629925945.0
2.0,2.0,1.0,2.0,2.0,22.0,11.0,5.0,1650849629925945.0
-1.0,-1.0,-1.0,0.0,8.0,-7.0,0.0,-1.0,1650849629947887.0
-2.0,-3.0,-3.0,-3.0,-4.0,-9.0,-3.0,-3.0,1650849629947887.0
-2.0,-2.0,-1.0,-1.0,-5.0,-12.0,-3.0,-1.0,1650849629948884.0
0.0,0.0,0.0,-1.0,-4.0,5.0,0.0,-1.0,1650849629948884.0
1.0,-1.0,0.0,-1.0,0.0,-5.0,-1.0,0.0,1650849629961877.0
-2.0,-1.0,-1.0,-2.0,2.0,-2.0,0.0,0.0,1650849629961877.0
-1.0,0.0,-1.0,0.0,-3.0,5.0,1.0,-1.0,1650849629962867.0
1.0,-1.0,-2.0,-1.0,-7.0,-12.0,-3.0,-2.0,1650849629962867.0
2.0,0.0,1.0,2.0,11.0,22.0,4.0,2.0,1650849629985051.0
0.0,-1.0,0.0,-2.0,-1.0,-5.0,-3.0,1.0,1650849629985051.0
-1.0,-1.0,2.0,3.0,0.0,2.0,1.0,0.0,1650849629985840.0
-1.0,-2.0,-1.0,-2.0,2.0,1.0,-2.0,-2.0,1650849629985840.0
0.0,-1.0,-3.0,-2.0,-4.0,-20.0,-4.0,-3.0,1650849630007783.0
0.0,-1.0,-1.0,-1.0,-2.0,-1.0,1.0,-1.0,1650849630007783.0
-1.0,-1.0,-3.0,-5.0,-8.0,-1.0,-3.0,0.0,1650849630008780.0
0.0,0.0,0.0,2.0,6.0,11.0,0.0,1.0,1650849630008780.0
-3.0,-1.0,0.0,0.0,4.0,0.0,-1.0,0.0,1650849630021781.0
-2.0,1.0,0.0,2.0,1.0,9.0,1.0,0.0,1650849630021781.0
0.0,-1.0,0.0,0.0,1.0,-5.0,-1.0,0.0,1650849630022751.0
-1.0,0.0,-1.0,0.0,-5.0,-10.0,-4.0,-2.0,1650849630022751.0
-1.0,-1.0,-1.0,-4.0,-5.0,-5.0,-1.0,-1.0,1650849630044705.0
-1.0,-2.0,-1.0,-3.0,-4.0,-11.0,-3.0,-1.0,1650849630044705.0
-1.0,0.0,-2.0,3.0,1.0,20.0,3.0,1.0,1650849630045703.0
-1.0,-1.0,0.0,0.0,7.0,2.0,2.0,0.0,1650849630045703.0
-1.0,-1.0,-2.0,-2.0,-4.0,0.0,0.0,0.0,1650849630067663.0
0.0,-4.0,1.0,0.0,-2.0,-12.0,-3.0,-1.0,1650849630067663.0
0.0,0.0,-1.0,-1.0,0.0,-2.0,-2.0,-1.0,1650849630068621.0
-1.0,0.0,0.0,1.0,-5.0,5.0,1.0,1.0,1650849630068621.0
-1.0,0.0,0.0,1.0,6.0,-5.0,0.0,1.0,1650849630081587.0
0.0,-1.0,0.0,-1.0,3.0,5.0,-1.0,0.0,1650849630081587.0
0.0,0.0,-2.0,-3.0,-5.0,-12.0,-1.0,-1.0,1650849630089600.0
-2.0,0.0,0.0,-1.0,0.0,14.0,1.0,-1.0,1650849630089600.0
1.0,0.0,1.0,0.0,0.0,-7.0,0.0,1.0,1650849630104545.0
1.0,1.0,-1.0,2.0,4.0,9.0,1.0,0.0,1650849630104545.0
0.0,1.0,-1.0,1.0,4.0,3.0,1.0,0.0,1650849630105525.0
-1.0,0.0,-2.0,-5.0,0.0,-12.0,-4.0,0.0,1650849630105525.0
0.0,-1.0,0.0,1.0,-9.0,-7.0,-4.0,0.0,1650849630127483.0
0.0,-1.0,1.0,3.0,4.0,20.0,9.0,2.0,1650849630127483.0
-1.0,-2.0,-1.0,-1.0,3.0,-7.0,0.0,-2.0,1650849630128469.0
0.0,-1.0,-2.0,-1.0,-5.0,-8.0,-1.0,-2.0,1650849630128469.0
-1.0,-2.0,-3.0,-4.0,-8.0,-22.0,-8.0,-2.0,1650849630141426.0
1.0,2.0,2.0,0.0,1.0,21.0,4.0,0.0,1650849630141426.0
1.0,1.0,1.0,1.0,2.0,7.0,4.0,3.0,1650849630149438.0
2.0,-1.0,-1.0,-1.0,10.0,2.0,0.0,-1.0,1650849630149438.0
-2.0,-1.0,0.0,0.0,-3.0,1.0,0.0,-1.0,1650849630164364.0
-3.0,-1.0,-2.0,-3.0,-7.0,-18.0,-6.0,-3.0,1650849630164364.0
-2.0,0.0,-1.0,-2.0,-10.0,-4.0,-1.0,-1.0,1650849630165362.0
-1.0,-1.0,-1.0,0.0,8.0,16.0,2.0,0.0,1650849630165362.0
2.0,-1.0,-1.0,-4.0,-8.0,-8.0,-1.0,-1.0,1650849630188321.0
-1.0,-2.0,-2.0,1.0,1.0,2.0,-1.0,0.0,1650849630188321.0
-2.0,-1.0,0.0,0.0,4.0,4.0,0.0,1.0,1650849630188321.0
1.0,0.0,0.0,0.0,0.0,-6.0,-2.0,1.0,1650849630188321.0
-2.0,-1.0,-1.0,0.0,-3.0,-1.0,-1.0,-2.0,1650849630201305.0
0.0,-1.0,-1.0,1.0,-1.0,14.0,0.0,-1.0,1650849630201305.0
-1.0,-4.0,-1.0,-2.0,-8.0,-8.0,-3.0,-1.0,1650849630209273.0
-1.0,-1.0,-2.0,1.0,4.0,-4.0,-2.0,-2.0,1650849630209273.0
-2.0,-1.0,-1.0,-2.0,-1.0,6.0,1.0,1.0,1650849630224238.0
-1.0,-1.0,0.0,-1.0,-4.0,-17.0,-6.0,-2.0,1650849630224238.0
1.0,0.0,-2.0,-1.0,-4.0,-7.0,-2.0,-2.0,1650849630225202.0
-1.0,0.0,1.0,4.0,6.0,22.0,5.0,1.0,1650849630225202.0
0.0,-1.0,-1.0,-3.0,-6.0,-2.0,0.0,0.0,1650849630248142.0
0.0,-2.0,-1.0,-2.0,2.0,-13.0,-1.0,-1.0,1650849630248142.0
-2.0,0.0,0.0,-2.0,4.0,11.0,-2.0,0.0,1650849630249152.0
-1.0,0.0,-1.0,-3.0,-6.0,-12.0,0.0,-2.0,1650849630249152.0
2.0,1.0,3.0,7.0,7.0,6.0,4.0,1.0,1650849630261140.0
-2.0,-1.0,-1.0,-1.0,6.0,7.0,-1.0,1.0,1650849630261140.0
0.0,-1.0,1.0,-4.0,-14.0,-15.0,-1.0,-2.0,1650849630270115.0
-1.0,-1.0,-1.0,-2.0,-6.0,-18.0,-6.0,-2.0,1650849630270115.0
0.0,-1.0,-1.0,0.0,9.0,32.0,5.0,0.0,1650849630285082.0
1.0,-1.0,-2.0,-1.0,-3.0,-11.0,-4.0,0.0,1650849630285082.0
0.0,1.0,-2.0,-1.0,5.0,-1.0,-2.0,-1.0,1650849630285082.0
0.0,-1.0,-2.0,-3.0,-5.0,-7.0,-2.0,0.0,1650849630285082.0
1.0,0.0,0.0,1.0,2.0,11.0,3.0,1.0,1650849630307980.0
-3.0,1.0,0.0,0.0,-1.0,0.0,1.0,0.0,1650849630307980.0
-1.0,-2.0,0.0,-2.0,1.0,-1.0,0.0,-1.0,1650849630308998.0
-1.0,0.0,-1.0,0.0,-2.0,-8.0,-5.0,-1.0,1650849630308998.0
0.0,-1.0,-1.0,1.0,2.0,0.0,1.0,-1.0,1650849630321943.0
1.0,0.0,0.0,-1.0,1.0,6.0,2.0,-2.0,1650849630321943.0
1.0,0.0,-1.0,0.0,1.0,10.0,2.0,0.0,1650849630329942.0
-1.0,-1.0,-1.0,-3.0,-6.0,-6.0,-1.0,-2.0,1650849630329942.0
-2.0,-1.0,0.0,1.0,-7.0,-13.0,-3.0,-1.0,1650849630344912.0
-1.0,0.0,0.0,2.0,8.0,-5.0,-1.0,1.0,1650849630344912.0
-1.0,2.0,-2.0,1.0,5.0,16.0,-2.0,-1.0,1650849630345890.0
-1.0,-2.0,0.0,-3.0,-4.0,-2.0,1.0,-2.0,1650849630345890.0
-1.0,-1.0,-2.0,-3.0,-3.0,-3.0,-2.0,-2.0,1650849630367878.0
-1.0,0.0,0.0,-1.0,-12.0,-8.0,-2.0,-3.0,1650849630367878.0
-1.0,-1.0,0.0,1.0,1.0,-7.0,-1.0,1.0,1650849630368810.0
-1.0,-1.0,2.0,-1.0,6.0,8.0,-1.0,0.0,1650849630368810.0
0.0,-3.0,-1.0,1.0,-1.0,4.0,0.0,-1.0,1650849630381775.0
0.0,0.0,-2.0,0.0,4.0,0.0,-1.0,0.0,1650849630381775.0
-1.0,1.0,-1.0,-1.0,-2.0,-13.0,-1.0,0.0,1650849630396762.0
0.0,1.0,-2.0,1.0,4.0,22.0,3.0,2.0,1650849630396762.0
0.0,0.0,-1.0,-3.0,-5.0,-16.0,-4.0,-1.0,1650849630404740.0
1.0,0.0,-1.0,0.0,-7.0,6.0,1.0,-1.0,1650849630404740.0
1.0,-1.0,1.0,-2.0,4.0,2.0,0.0,1.0,1650849630405710.0
-1.0,-2.0,-1.0,1.0,-5.0,-17.0,-4.0,-1.0,1650849630405710.0
-2.0,0.0,-1.0,0.0,-2.0,9.0,0.0,-1.0,1650849630435787.0
0.0,-1.0,0.0,1.0,10.0,10.0,3.0,2.0,1650849630435787.0
-2.0,1.0,-2.0,-1.0,-5.0,-6.0,-1.0,-1.0,1650849630436157.0
0.0,-1.0,0.0,-1.0,-8.0,-15.0,-3.0,0.0,1650849630436157.0
1.0,0.0,0.0,2.0,13.0,14.0,8.0,2.0,1650849630450122.0
1.0,1.0,-1.0,-4.0,-10.0,-3.0,-2.0,-2.0,1650849630450122.0
-1.0,-2.0,-2.0,2.0,2.0,1.0,-1.0,-1.0,1650849630451120.0
-1.0,0.0,-1.0,-1.0,-4.0,-8.0,-3.0,-1.0,1650849630451120.0
0.0,0.0,2.0,-1.0,-2.0,7.0,1.0,-1.0,1650849630465083.0
-1.0,0.0,0.0,-2.0,0.0,-5.0,-3.0,0.0,1650849630465083.0
-1.0,0.0,-2.0,0.0,2.0,1.0,0.0,-1.0,1650849630465083.0
0.0,-1.0,-1.0,-4.0,-3.0,-1.0,-1.0,0.0,1650849630465083.0
-1.0,-3.0,-2.0,-5.0,-15.0,-24.0,-6.0,-2.0,1650849630487834.0
-1.0,1.0,-1.0,4.0,13.0,22.0,5.0,1.0,1650849630487834.0
0.0,0.0,3.0,3.0,-2.0,-1.0,2.0,1.0,1650849630488827.0
2.0,0.0,1.0,5.0,20.0,15.0,3.0,3.0,1650849630488827.0
-1.0,-1.0,-1.0,-1.0,-2.0,-3.0,-2.0,0.0,1650849630509771.0
-2.0,-4.0,-1.0,-6.0,-11.0,-15.0,-4.0,-3.0,1650849630509771.0
-1.0,-1.0,-1.0,-1.0,-6.0,-2.0,-2.0,-1.0,1650849630516752.0
1.0,-2.0,-1.0,-1.0,-1.0,8.0,2.0,-1.0,1650849630516752.0
-1.0,0.0,-2.0,-2.0,-1.0,-9.0,-5.0,-3.0,1650849630524731.0
-1.0,-1.0,-1.0,-2.0,-11.0,-19.0,-6.0,-1.0,1650849630524731.0
1.0,0.0,0.0,4.0,8.0,40.0,13.0,3.0,1650849630525729.0
1.0,0.0,1.0,2.0,11.0,4.0,2.0,0.0,1650849630525729.0
-2.0,0.0,-1.0,-3.0,-6.0,-5.0,-2.0,0.0,1650849630547710.0
-1.0,-1.0,0.0,-3.0,-4.0,-8.0,-2.0,-1.0,1650849630547710.0
-2.0,-2.0,-2.0,-3.0,-8.0,-14.0,-5.0,-2.0,1650849630548719.0
-3.0,-1.0,-3.0,-3.0,-6.0,-12.0,-1.0,-2.0,1650849630548719.0
-1.0,-3.0,-2.0,0.0,4.0,16.0,2.0,-1.0,1650849630570649.0
1.0,-2.0,0.0,-1.0,-16.0,-12.0,3.0,1.0,1650849630570649.0
2.0,2.0,2.0,7.0,27.0,25.0,2.0,3.0,1650849630571647.0
0.0,0.0,1.0,1.0,1.0,6.0,2.0,2.0,1650849630571647.0
-2.0,-1.0,-2.0,-2.0,1.0,-6.0,-4.0,-3.0,1650849630585150.0
-3.0,0.0,-2.0,-2.0,-2.0,0.0,-2.0,-2.0,1650849630585150.0
-2.0,-2.0,-2.0,-6.0,-11.0,-14.0,-3.0,-4.0,1650849630585150.0
-2.0,-2.0,-2.0,-3.0,-5.0,-6.0,-3.0,-2.0,1650849630585150.0
0.0,1.0,-1.0,0.0,-4.0,-16.0,-4.0,0.0,1650849630608090.0
1.0,1.0,1.0,2.0,14.0,40.0,7.0,4.0,1650849630608090.0
0.0,0.0,0.0,-1.0,-2.0,-9.0,0.0,0.0,1650849630609099.0
1.0,0.0,1.0,-2.0,1.0,5.0,0.0,-2.0,1650849630609099.0
-2.0,0.0,0.0,0.0,2.0,-3.0,1.0,0.0,1650849630630061.0
-1.0,-3.0,-2.0,-3.0,-10.0,-20.0,-5.0,-3.0,1650849630630061.0
-2.0,-1.0,-3.0,-1.0,0.0,4.0,-2.0,-2.0,1650849630631029.0
-1.0,-1.0,0.0,-2.0,-2.0,4.0,1.0,-1.0,1650849630631029.0
0.0,-1.0,0.0,-2.0,-11.0,-10.0,-4.0,-1.0,1650849630645019.0
2.0,0.0,4.0,6.0,15.0,20.0,3.0,2.0,1650849630645019.0
1.0,0.0,0.0,1.0,1.0,-8.0,-2.0,-1.0,1650849630645019.0
-2.0,-3.0,-2.0,-2.0,-6.0,-3.0,0.0,0.0,1650849630645019.0
1.0,1.0,2.0,-2.0,3.0,2.0,1.0,2.0,1650849630667998.0
-1.0,-2.0,-2.0,-5.0,-8.0,-9.0,-4.0,-2.0,1650849630667998.0
0.0,-1.0,-3.0,-1.0,-6.0,-6.0,0.0,1.0,1650849630668956.0
-1.0,0.0,0.0,0.0,0.0,3.0,-1.0,0.0,1650849630668956.0
0.0,0.0,1.0,2.0,3.0,-4.0,2.0,0.0,1650849630690078.0
1.0,0.0,0.0,4.0,7.0,13.0,1.0,0.0,1650849630690078.0
-2.0,-1.0,1.0,-1.0,-1.0,-1.0,2.0,-1.0,1650849630691009.0
0.0,0.0,-1.0,1.0,-1.0,-9.0,-2.0,-1.0,1650849630691009.0
-2.0,-2.0,-2.0,-3.0,-4.0,-3.0,-2.0,-3.0,1650849630705142.0
-2.0,1.0,-1.0,0.0,-4.0,-3.0,-1.0,-1.0,1650849630705142.0
0.0,-1.0,0.0,-2.0,-4.0,-12.0,-3.0,-1.0,1650849630705142.0
2.0,2.0,0.0,2.0,-2.0,12.0,2.0,2.0,1650849630705142.0
0.0,0.0,-1.0,2.0,5.0,10.0,1.0,-1.0,1650849630728029.0
0.0,0.0,0.0,-1.0,6.0,-3.0,0.0,0.0,1650849630728029.0
-1.0,-1.0,-3.0,-4.0,-9.0,-5.0,-2.0,-4.0,1650849630729000.0
-2.0,-1.0,-1.0,2.0,-3.0,-3.0,-1.0,0.0,1650849630729000.0
-1.0,-1.0,-1.0,0.0,1.0,1.0,-1.0,0.0,1650849630749956.0
-1.0,-1.0,-1.0,-1.0,3.0,-2.0,-1.0,0.0,1650849630749956.0
-2.0,1.0,0.0,1.0,3.0,2.0,-1.0,-1.0,1650849630750941.0
-1.0,0.0,-1.0,-2.0,-6.0,-7.0,-3.0,-1.0,1650849630750941.0
-1.0,-2.0,-3.0,-4.0,-8.0,4.0,1.0,-2.0,1650849630764931.0
1.0,0.0,2.0,4.0,12.0,3.0,3.0,1.0,1650849630764931.0
1.0,0.0,-1.0,1.0,4.0,-1.0,-1.0,-2.0,1650849630765902.0
-1.0,-1.0,0.0,0.0,0.0,4.0,1.0,-1.0,1650849630765902.0
0.0,0.0,-1.0,-1.0,2.0,3.0,1.0,1.0,1650849630787896.0
-2.0,2.0,-1.0,-2.0,-10.0,-9.0,-2.0,0.0,1650849630787896.0
-1.0,0.0,-1.0,-1.0,3.0,-13.0,-3.0,1.0,1650849630788893.0
0.0,-1.0,-2.0,-2.0,6.0,21.0,7.0,0.0,1650849630788893.0
0.0,1.0,2.0,0.0,-1.0,-1.0,-1.0,-2.0,1650849630809865.0
1.0,0.0,-2.0,-2.0,-14.0,4.0,0.0,0.0,1650849630809865.0
0.0,-1.0,0.0,0.0,9.0,0.0,2.0,1.0,1650849630810860.0
-1.0,-1.0,-2.0,0.0,-8.0,-14.0,-4.0,0.0,1650849630810860.0
1.0,-1.0,-1.0,1.0,10.0,-3.0,-1.0,0.0,1650849630824827.0
-1.0,-2.0,-2.0,-3.0,-2.0,-2.0,-3.0,-3.0,1650849630824827.0
-1.0,0.0,-1.0,0.0,-5.0,6.0,-1.0,-1.0,1650849630831806.0
-1.0,1.0,-1.0,0.0,-7.0,-5.0,-3.0,-3.0,1650849630831806.0
1.0,-1.0,0.0,0.0,9.0,2.0,1.0,1.0,1650849630847763.0
-2.0,-4.0,-1.0,-3.0,-2.0,-7.0,-2.0,-1.0,1650849630847763.0
0.0,-2.0,0.0,-1.0,-8.0,-2.0,-1.0,-1.0,1650849630848733.0
0.0,0.0,0.0,0.0,-1.0,2.0,0.0,1.0,1650849630848733.0
0.0,1.0,0.0,0.0,4.0,3.0,3.0,1.0,1650849630870676.0
-1.0,0.0,-2.0,-2.0,6.0,4.0,0.0,2.0,1650849630870676.0
-2.0,0.0,-1.0,-2.0,-2.0,4.0,-1.0,0.0,1650849630870676.0
0.0,-1.0,0.0,-3.0,-2.0,-10.0,-2.0,0.0,1650849630870676.0
-2.0,2.0,-2.0,-2.0,-7.0,-1.0,-1.0,-1.0,1650849630885087.0
0.0,-2.0,0.0,1.0,3.0,-5.0,0.0,0.0,1650849630885087.0
0.0,0.0,0.0,1.0,-2.0,21.0,8.0,1.0,1650849630885677.0
-1.0,0.0,-2.0,-3.0,5.0,-7.0,-4.0,-1.0,1650849630885677.0
-1.0,-3.0,0.0,-1.0,-4.0,-8.0,-4.0,-1.0,1650849630907766.0
1.0,0.0,-1.0,0.0,1.0,6.0,2.0,1.0,1650849630907766.0
-1.0,-1.0,2.0,-3.0,-14.0,-12.0,-4.0,0.0,1650849630908729.0
0.0,0.0,2.0,3.0,22.0,10.0,4.0,-1.0,1650849630908729.0
0.0,-2.0,1.0,-2.0,0.0,3.0,0.0,-2.0,1650849630929700.0
-2.0,-2.0,-1.0,-4.0,-8.0,-7.0,-4.0,-2.0,1650849630929700.0
0.0,1.0,-2.0,-1.0,-2.0,-9.0,-3.0,0.0,1650849630930886.0
0.0,-2.0,-2.0,0.0,-1.0,11.0,1.0,-1.0,1650849630930886.0
-1.0,0.0,1.0,0.0,-1.0,3.0,1.0,0.0,1650849630952808.0
1.0,-2.0,1.0,0.0,-3.0,1.0,1.0,-1.0,1650849630952808.0
-1.0,0.0,1.0,2.0,6.0,-3.0,-2.0,-1.0,1650849630953806.0
-3.0,0.0,-1.0,-4.0,-6.0,-9.0,-1.0,0.0,1650849630953806.0
-2.0,1.0,-2.0,-3.0,-1.0,2.0,-1.0,0.0,1650849630967778.0
0.0,-1.0,-1.0,-2.0,-3.0,-2.0,0.0,-1.0,1650849630967778.0
-2.0,-4.0,0.0,-1.0,-1.0,-4.0,-3.0,-3.0,1650849630968767.0
0.0,0.0,0.0,0.0,1.0,0.0,-1.0,0.0,1650849630968767.0
-1.0,-3.0,-1.0,-3.0,-10.0,-17.0,-5.0,-2.0,1650849630989953.0
-2.0,1.0,-1.0,1.0,-4.0,2.0,1.0,-1.0,1650849630989953.0
1.0,1.0,2.0,4.0,13.0,27.0,13.0,4.0,1650849630990883.0
-1.0,-1.0,0.0,3.0,10.0,3.0,-1.0,0.0,1650849630990883.0
0.0,0.0,-2.0,0.0,-3.0,-1.0,-1.0,1.0,1650849631004957.0
-1.0,-1.0,-2.0,-3.0,-1.0,-20.0,-8.0,-3.0,1650849631004957.0
-1.0,-3.0,-4.0,-2.0,-8.0,-8.0,-5.0,-3.0,1650849631004957.0
-1.0,-1.0,0.0,-3.0,-7.0,1.0,0.0,-1.0,1650849631004957.0
-1.0,-1.0,-2.0,-2.0,-4.0,-8.0,-1.0,-1.0,1650849631028071.0
-1.0,0.0,2.0,1.0,-2.0,10.0,2.0,1.0,1650849631028071.0
0.0,2.0,2.0,3.0,16.0,14.0,3.0,0.0,1650849631029041.0
0.0,-1.0,0.0,2.0,3.0,2.0,1.0,1.0,1650849631029041.0
0.0,-2.0,-1.0,-1.0,-1.0,-1.0,-2.0,-1.0,1650849631050006.0
-2.0,0.0,-1.0,-2.0,-4.0,-3.0,-2.0,-2.0,1650849631050006.0
-3.0,-1.0,-4.0,-3.0,-10.0,-7.0,-5.0,-1.0,1650849631050982.0
0.0,0.0,-3.0,-2.0,1.0,-5.0,-2.0,-1.0,1650849631050982.0
2.0,0.0,-1.0,-2.0,2.0,4.0,2.0,0.0,1650849631063975.0
0.0,0.0,-1.0,0.0,-7.0,0.0,1.0,0.0,1650849631063975.0
2.0,2.0,0.0,3.0,5.0,-3.0,0.0,1.0,1650849631071954.0
-1.0,0.0,0.0,0.0,1.0,2.0,0.0,0.0,1650849631071954.0
0.0,0.0,-1.0,0.0,0.0,8.0,3.0,0.0,1650849631087951.0
-1.0,-1.0,-2.0,-2.0,3.0,2.0,0.0,-1.0,1650849631087951.0
-2.0,-3.0,-2.0,-4.0,-6.0,-9.0,-4.0,-3.0,1650849631088881.0
-2.0,-2.0,-1.0,-3.0,-9.0,-10.0,-4.0,-2.0,1650849631088881.0
-3.0,-2.0,-3.0,-4.0,-8.0,-26.0,-8.0,-3.0,1650849631110091.0
-1.0,1.0,1.0,7.0,8.0,38.0,6.0,4.0,1650849631110091.0
2.0,3.0,3.0,6.0,13.0,21.0,7.0,4.0,1650849631112059.0
1.0,1.0,-1.0,0.0,8.0,6.0,2.0,-1.0,1650849631112059.0
1.0,0.0,-2.0,-1.0,2.0,-3.0,0.0,-1.0,1650849631124054.0
-1.0,-3.0,-1.0,-7.0,-11.0,-29.0,-8.0,-4.0,1650849631124054.0
-2.0,-2.0,-3.0,-3.0,-13.0,-13.0,-6.0,-3.0,1650849631133003.0
-1.0,0.0,1.0,-2.0,-6.0,3.0,2.0,0.0,1650849631133003.0
-2.0,-2.0,-1.0,2.0,3.0,4.0,-1.0,1.0,1650849631147962.0
-1.0,1.0,0.0,-2.0,6.0,-1.0,0.0,-1.0,1650849631147962.0
0.0,-1.0,-1.0,-2.0,1.0,2.0,2.0,-1.0,1650849631149959.0
-4.0,0.0,0.0,0.0,0.0,-6.0,-2.0,0.0,1650849631149959.0
0.0,2.0,1.0,2.0,-5.0,6.0,1.0,0.0,1650849631170911.0
0.0,1.0,-1.0,5.0,8.0,7.0,3.0,1.0,1650849631170911.0
1.0,-1.0,-1.0,-3.0,-5.0,-6.0,-2.0,-2.0,1650849631171907.0
0.0,-1.0,-4.0,-2.0,-6.0,-13.0,-5.0,-2.0,1650849631171907.0
0.0,0.0,-2.0,1.0,5.0,11.0,1.0,-1.0,1650849631183867.0
0.0,0.0,0.0,0.0,0.0,-1.0,-1.0,0.0,1650849631183867.0
-2.0,0.0,-4.0,-6.0,-6.0,-27.0,-8.0,-2.0,1650849631198855.0
2.0,1.0,1.0,4.0,3.0,40.0,12.0,2.0,1650849631198855.0
0.0,1.0,1.0,2.0,3.0,-4.0,-1.0,0.0,1650849631207802.0
1.0,-1.0,0.0,2.0,3.0,-3.0,-1.0,-3.0,1650849631207802.0
-2.0,-3.0,-1.0,-4.0,-3.0,-13.0,-4.0,1.0,1650849631209797.0
-1.0,-1.0,-1.0,-4.0,-12.0,-14.0,-5.0,-1.0,1650849631209797.0
0.0,1.0,0.0,2.0,4.0,12.0,4.0,0.0,1650849631229774.0
0.0,-1.0,-1.0,-2.0,-1.0,-6.0,0.0,-1.0,1650849631229774.0
0.0,-2.0,-1.0,-1.0,1.0,4.0,0.0,-1.0,1650849631231883.0
-1.0,-1.0,0.0,-2.0,-4.0,-5.0,-1.0,-2.0,1650849631231883.0
1.0,0.0,1.0,-2.0,-9.0,0.0,0.0,0.0,1650849631243948.0
-1.0,1.0,-1.0,2.0,16.0,6.0,0.0,1.0,1650849631243948.0
-1.0,-2.0,-1.0,-2.0,1.0,5.0,2.0,-1.0,1650849631252824.0
-1.0,-1.0,-3.0,-5.0,-9.0,-21.0,-6.0,-2.0,1650849631252824.0
-2.0,-1.0,-1.0,1.0,-8.0,9.0,4.0,-2.0,1650849631267784.0
1.0,2.0,1.0,5.0,11.0,9.0,6.0,3.0,1650849631267784.0
0.0,2.0,1.0,0.0,9.0,2.0,0.0,0.0,1650849631269805.0
0.0,0.0,1.0,-2.0,-4.0,-8.0,-4.0,1.0,1650849631269805.0
-3.0,-2.0,-2.0,0.0,4.0,-9.0,-5.0,-1.0,1650849631289863.0
0.0,0.0,-2.0,-3.0,-10.0,19.0,7.0,1.0,1650849631289863.0
-2.0,-2.0,0.0,1.0,-2.0,-1.0,1.0,0.0,1650849631291845.0
1.0,-1.0,2.0,0.0,8.0,0.0,-1.0,-2.0,1650849631291845.0
-1.0,0.0,-1.0,-1.0,-3.0,-10.0,-3.0,0.0,1650849631303866.0
-1.0,-3.0,-2.0,-2.0,-6.0,-7.0,-4.0,-1.0,1650849631303866.0
1.0,-1.0,1.0,-1.0,-6.0,0.0,-1.0,0.0,1650849631312775.0
-1.0,-1.0,-1.0,2.0,0.0,1.0,0.0,1.0,1650849631312775.0
-1.0,-1.0,0.0,-1.0,6.0,11.0,2.0,-1.0,1650849631327734.0
-3.0,-1.0,0.0,-4.0,0.0,-7.0,-4.0,-4.0,1650849631327734.0
1.0,-2.0,-2.0,0.0,-5.0,-4.0,-3.0,-2.0,1650849631329729.0
-1.0,0.0,-2.0,-2.0,-7.0,-1.0,0.0,0.0,1650849631329729.0
1.0,1.0,4.0,2.0,9.0,13.0,5.0,2.0,1650849631350673.0
-1.0,0.0,1.0,1.0,-10.0,-21.0,-4.0,-3.0,1650849631350673.0
1.0,-1.0,1.0,2.0,11.0,26.0,5.0,3.0,1650849631351672.0
-1.0,-2.0,-1.0,0.0,2.0,2.0,-1.0,-2.0,1650849631351672.0
0.0,-1.0,-3.0,-2.0,-3.0,-4.0,-1.0,0.0,1650849631363667.0
-2.0,-1.0,-3.0,-3.0,-7.0,-10.0,-3.0,-2.0,1650849631363667.0
-2.0,0.0,-1.0,-1.0,-13.0,-21.0,-6.0,-4.0,1650849631372661.0
-1.0,0.0,-1.0,-3.0,4.0,7.0,-2.0,-1.0,1650849631372661.0
2.0,1.0,1.0,4.0,0.0,16.0,12.0,4.0,1650849631387978.0
2.0,0.0,2.0,3.0,6.0,0.0,-2.0,0.0,1650849631387978.0
-1.0,0.0,0.0,-2.0,3.0,1.0,2.0,1.0,1650849631389906.0
-2.0,-1.0,-1.0,0.0,-4.0,-11.0,-3.0,-3.0,1650849631389906.0
-2.0,-2.0,-4.0,-4.0,-6.0,-13.0,-7.0,-2.0,1650849631409948.0
-1.0,0.0,0.0,-3.0,-6.0,1.0,0.0,1.0,1650849631409948.0
1.0,0.0,-2.0,-1.0,0.0,-3.0,1.0,-1.0,1650849631411880.0
-2.0,0.0,-1.0,-1.0,7.0,5.0,0.0,-1.0,1650849631411880.0
-1.0,-4.0,0.0,-4.0,-5.0,-10.0,-4.0,-2.0,1650849631432975.0
0.0,0.0,-1.0,0.0,-6.0,8.0,1.0,3.0,1650849631432975.0
1.0,1.0,1.0,2.0,3.0,8.0,1.0,2.0,1650849631434943.0
-1.0,0.0,1.0,5.0,6.0,4.0,1.0,1.0,1650849631434943.0
1.0,0.0,-2.0,0.0,5.0,2.0,-1.0,-3.0,1650849631447938.0
-2.0,-2.0,-2.0,-2.0,-5.0,-14.0,-6.0,-3.0,1650849631447938.0
-3.0,-1.0,0.0,-2.0,-7.0,-5.0,-4.0,-2.0,1650849631449902.0
-1.0,-1.0,1.0,-2.0,-3.0,3.0,1.0,1.0,1650849631449902.0
-1.0,0.0,0.0,-1.0,1.0,-4.0,-2.0,0.0,1650849631470871.0
0.0,-2.0,-2.0,-2.0,-4.0,-2.0,-1.0,-1.0,1650849631470871.0
0.0,-1.0,-2.0,-1.0,0.0,-1.0,0.0,-2.0,1650849631471855.0
0.0,-2.0,-1.0,3.0,5.0,-9.0,-3.0,-1.0,1650849631471855.0
-1.0,3.0,1.0,3.0,-2.0,33.0,6.0,0.0,1650849631492787.0
1.0,-1.0,-1.0,0.0,7.0,2.0,1.0,2.0,1650849631492787.0
0.0,-1.0,0.0,0.0,5.0,4.0,0.0,0.0,1650849631494782.0
0.0,-1.0,0.0,-3.0,-11.0,-10.0,-1.0,-1.0,1650849631494782.0
-1.0,-2.0,-1.0,-2.0,-1.0,-14.0,-5.0,-2.0,1650849631507747.0
-1.0,0.0,-1.0,0.0,0.0,2.0,-2.0,0.0,1650849631507747.0
-3.0,-1.0,-1.0,-2.0,-5.0,-4.0,-1.0,-1.0,1650849631515726.0
-2.0,-2.0,-1.0,1.0,-1.0,1.0,0.0,1.0,1650849631515726.0
0.0,-1.0,0.0,-1.0,1.0,-11.0,-3.0,-1.0,1650849631529716.0
-2.0,-2.0,0.0,-1.0,-5.0,5.0,-1.0,-1.0,1650849631529716.0
1.0,2.0,1.0,6.0,9.0,7.0,6.0,2.0,1650849631531905.0
0.0,2.0,0.0,0.0,1.0,10.0,1.0,1.0,1650849631531905.0
1.0,0.0,0.0,4.0,-2.0,0.0,0.0,-1.0,1650849631553330.0
0.0,-1.0,-3.0,-2.0,12.0,-8.0,-3.0,-3.0,1650849631553330.0
-2.0,0.0,-2.0,-4.0,-7.0,-6.0,-4.0,-2.0,1650849631554329.0
-1.0,-3.0,-1.0,-2.0,-5.0,-1.0,1.0,0.0,1650849631554329.0
-2.0,-2.0,-2.0,-2.0,-2.0,-5.0,-2.0,-2.0,1650849631567295.0
-1.0,2.0,-1.0,-1.0,-2.0,-3.0,-1.0,0.0,1650849631567295.0
0.0,-2.0,-2.0,1.0,-1.0,-15.0,-7.0,-1.0,1650849631574303.0
2.0,2.0,1.0,1.0,8.0,35.0,12.0,2.0,1650849631574303.0
0.0,0.0,0.0,-4.0,-18.0,-17.0,-3.0,2.0,1650849631590724.0
1.0,1.0,1.0,5.0,17.0,11.0,3.0,0.0,1650849631590724.0
1.0,0.0,0.0,-3.0,1.0,4.0,2.0,-1.0,1650849631591727.0
-1.0,0.0,-2.0,-2.0,-7.0,-20.0,-5.0,-1.0,1650849631591727.0
-3.0,-1.0,-1.0,-1.0,-6.0,-13.0,-5.0,-1.0,1650849631612796.0
0.0,1.0,-1.0,-4.0,-8.0,19.0,4.0,0.0,1650849631612796.0
0.0,1.0,0.0,-1.0,4.0,-1.0,1.0,-1.0,1650849631614783.0
1.0,-1.0,1.0,2.0,-1.0,2.0,0.0,0.0,1650849631614783.0
-1.0,-1.0,-2.0,0.0,4.0,-1.0,1.0,0.0,1650849631627755.0
0.0,-1.0,0.0,-3.0,-3.0,-9.0,-4.0,1.0,1650849631627755.0
-3.0,-2.0,-1.0,-5.0,-7.0,-2.0,-3.0,-1.0,1650849631633966.0
0.0,-1.0,-2.0,-6.0,-4.0,2.0,-1.0,-1.0,1650849631633966.0
0.0,0.0,1.0,4.0,0.0,-8.0,-2.0,0.0,1650849631649945.0
-1.0,0.0,0.0,6.0,3.0,9.0,1.0,-2.0,1650849631649945.0
1.0,0.0,1.0,5.0,7.0,-2.0,-1.0,1.0,1650849631651932.0
0.0,-1.0,-2.0,-16.0,-7.0,6.0,1.0,0.0,1650849631651932.0
1.0,1.0,2.0,19.0,9.0,11.0,4.0,2.0,1650849631672883.0
-1.0,-2.0,-3.0,-13.0,-12.0,-17.0,-3.0,-2.0,1650849631672883.0
-2.0,-5.0,-4.0,3.0,-10.0,0.0,-2.0,-3.0,1650849631674851.0
-1.0,-1.0,2.0,-3.0,-3.0,-29.0,-5.0,-3.0,1650849631674851.0
1.0,3.0,-2.0,-9.0,11.0,35.0,5.0,3.0,1650849631686893.0
0.0,-4.0,-4.0,-1.0,0.0,2.0,2.0,1.0,1650849631686893.0
-1.0,-1.0,-4.0,-7.0,-15.0,-14.0,-4.0,-2.0,1650849631693877.0
-2.0,-1.0,-2.0,2.0,-3.0,-9.0,-2.0,-1.0,1650849631693877.0
0.0,1.0,3.0,-1.0,4.0,4.0,1.0,0.0,1650849631709951.0
-1.0,0.0,2.0,1.0,-2.0,-3.0,0.0,0.0,1650849631709951.0
2.0,1.0,1.0,-2.0,4.0,6.0,1.0,0.0,1650849631711924.0
-1.0,-2.0,-2.0,6.0,0.0,-5.0,-1.0,-2.0,1650849631711924.0
-1.0,-3.0,-3.0,-1.0,5.0,-2.0,0.0,-1.0,1650849631732889.0
-1.0,-1.0,0.0,2.0,7.0,26.0,9.0,2.0,1650849631732889.0
-2.0,-3.0,-3.0,-5.0,-7.0,-10.0,-3.0,-1.0,1650849631734857.0
1.0,3.0,2.0,5.0,5.0,7.0,2.0,2.0,1650849631734857.0
-1.0,-1.0,0.0,-6.0,-5.0,-11.0,-2.0,-2.0,1650849631746851.0
-1.0,-7.0,-11.0,-2.0,-5.0,-19.0,-5.0,-4.0,1650849631746851.0
0.0,5.0,2.0,1.0,-2.0,0.0,0.0,-2.0,1650849631754460.0
-1.0,4.0,0.0,2.0,-1.0,24.0,5.0,1.0,1650849631754460.0
-2.0,-4.0,-1.0,-5.0,11.0,4.0,-1.0,0.0,1650849631770420.0
-1.0,-4.0,-4.0,-12.0,-16.0,-15.0,-5.0,-3.0,1650849631770420.0
-2.0,-1.0,-3.0,-6.0,-11.0,-5.0,-2.0,-3.0,1650849631772418.0
0.0,-9.0,4.0,34.0,30.0,6.0,0.0,0.0,1650849631772418.0
1.0,4.0,-1.0,-7.0,-13.0,-5.0,-1.0,-1.0,1650849631793361.0
-1.0,1.0,0.0,-2.0,-2.0,-10.0,-4.0,0.0,1650849631793361.0
-1.0,-3.0,-6.0,-10.0,1.0,-7.0,-3.0,1.0,1650849631794355.0
2.0,3.0,0.0,-12.0,-10.0,13.0,9.0,2.0,1650849631794355.0
-1.0,-1.0,3.0,7.0,7.0,5.0,-1.0,-1.0,1650849631807389.0
-1.0,1.0,2.0,1.0,-1.0,-3.0,-1.0,-1.0,1650849631807389.0
0.0,1.0,2.0,0.0,-4.0,-5.0,-2.0,0.0,1650849631821354.0
-2.0,-2.0,-3.0,-5.0,1.0,-9.0,-5.0,-2.0,1650849631821354.0
-1.0,-2.0,-4.0,2.0,-1.0,-6.0,-1.0,-1.0,1650849631830287.0
-1.0,3.0,2.0,-1.0,4.0,3.0,3.0,-2.0,1650849631830287.0
1.0,0.0,2.0,7.0,13.0,33.0,6.0,0.0,1650849631831863.0
0.0,-1.0,-3.0,-3.0,-1.0,-2.0,-1.0,-2.0,1650849631831863.0
-1.0,-2.0,-3.0,-9.0,-17.0,-16.0,-3.0,-2.0,1650849631852859.0
-2.0,0.0,0.0,3.0,-4.0,-9.0,-2.0,0.0,1650849631852859.0
1.0,0.0,2.0,7.0,18.0,12.0,2.0,1.0,1650849631854821.0
0.0,-3.0,-2.0,-5.0,-6.0,-10.0,-2.0,-2.0,1650849631854821.0
-1.0,0.0,0.0,-2.0,-1.0,-2.0,-3.0,-2.0,1650849631866790.0
0.0,0.0,-1.0,4.0,-6.0,-1.0,0.0,1.0,1650849631866790.0
-2.0,-1.0,0.0,0.0,0.0,-2.0,1.0,0.0,1650849631873744.0
0.0,2.0,0.0,-1.0,8.0,2.0,-1.0,0.0,1650849631873744.0
1.0,-1.0,-1.0,2.0,0.0,13.0,9.0,2.0,1650849631890726.0
-1.0,-1.0,1.0,2.0,7.0,3.0,0.0,-1.0,1650849631890726.0
-1.0,-1.0,-1.0,-2.0,-9.0,-9.0,-1.0,-1.0,1650849631891696.0
-3.0,-2.0,-5.0,-5.0,-13.0,-22.0,-9.0,-1.0,1650849631891696.0
-2.0,0.0,-2.0,2.0,6.0,11.0,0.0,-2.0,1650849631913753.0
2.0,1.0,2.0,2.0,20.0,15.0,4.0,2.0,1650849631913753.0
0.0,0.0,-2.0,-8.0,-7.0,0.0,0.0,1.0,1650849631918740.0
-1.0,0.0,-3.0,-6.0,-13.0,-7.0,-2.0,-2.0,1650849631918740.0
-1.0,-8.0,1.0,17.0,4.0,1.0,-1.0,-1.0,1650849631926718.0
1.0,8.0,-1.0,4.0,1.0,-6.0,-3.0,-1.0,1650849631926718.0
2.0,-4.0,0.0,6.0,9.0,2.0,-1.0,-1.0,1650849631941705.0
1.0,8.0,2.0,-18.0,-16.0,-2.0,0.0,0.0,1650849631941705.0
-4.0,-20.0,-10.0,-1.0,4.0,0.0,-1.0,-1.0,1650849631950653.0
2.0,10.0,4.0,3.0,-12.0,-4.0,0.0,-1.0,1650849631950653.0
-1.0,-2.0,-1.0,4.0,14.0,7.0,0.0,-1.0,1650849631951651.0
-1.0,0.0,-2.0,-2.0,-1.0,-1.0,1.0,0.0,1650849631951651.0
0.0,-6.0,-2.0,-11.0,-10.0,-11.0,-4.0,0.0,1650849631972657.0
0.0,-4.0,0.0,-3.0,-3.0,7.0,0.0,-1.0,1650849631972657.0
2.0,7.0,2.0,1.0,-6.0,-6.0,1.0,-1.0,1650849631974590.0
1.0,-9.0,-1.0,2.0,16.0,17.0,7.0,1.0,1650849631974590.0
0.0,4.0,0.0,0.0,-5.0,-12.0,-2.0,1.0,1650849631986621.0
2.0,4.0,4.0,-4.0,9.0,3.0,1.0,-1.0,1650849631986621.0
-8.0,6.0,-12.0,-6.0,-20.0,-18.0,-12.0,-9.0,1650849631995535.0
-2.0,-3.0,2.0,9.0,12.0,6.0,-1.0,-2.0,1650849631995535.0
1.0,15.0,-4.0,3.0,-1.0,7.0,4.0,-4.0,1650849632010842.0
2.0,3.0,-11.0,-12.0,0.0,-10.0,2.0,10.0,1650849632010842.0
1.0,-6.0,5.0,0.0,-6.0,-2.0,2.0,3.0,1650849632011840.0
-2.0,-15.0,-2.0,8.0,7.0,2.0,-2.0,1.0,1650849632011840.0
-2.0,11.0,6.0,-4.0,0.0,3.0,-2.0,-5.0,1650849632032865.0
-3.0,-11.0,-1.0,-1.0,-3.0,-3.0,-3.0,-3.0,1650849632032865.0
0.0,-1.0,-5.0,-5.0,3.0,-4.0,0.0,-1.0,1650849632034861.0
0.0,7.0,2.0,1.0,-4.0,11.0,-1.0,-2.0,1650849632034861.0
0.0,-4.0,3.0,1.0,2.0,-1.0,1.0,4.0,1650849632046855.0
-2.0,-4.0,-1.0,3.0,-1.0,3.0,0.0,-1.0,1650849632046855.0
0.0,-4.0,3.0,0.0,8.0,8.0,2.0,1.0,1650849632055823.0
0.0,2.0,-2.0,-3.0,-4.0,-12.0,-3.0,0.0,1650849632055823.0
0.0,0.0,-1.0,-6.0,-10.0,-16.0,-4.0,-1.0,1650849632069807.0
0.0,-9.0,-2.0,10.0,-1.0,24.0,7.0,-1.0,1650849632069807.0
-1.0,9.0,1.0,-14.0,0.0,-1.0,-2.0,0.0,1650849632071782.0
-2.0,-5.0,-1.0,6.0,1.0,-5.0,-2.0,1.0,1650849632071782.0
-8.0,-8.0,-10.0,-8.0,-8.0,-10.0,-16.0,-9.0,1650849632100732.0
-10.0,-8.0,-7.0,-3.0,-5.0,-7.0,-3.0,-15.0,1650849632100732.0
8.0,20.0,9.0,36.0,35.0,24.0,9.0,8.0,1650849632101703.0
0.0,-32.0,-9.0,4.0,0.0,-10.0,16.0,39.0,1650849632101703.0
1.0,4.0,-4.0,-8.0,9.0,11.0,-6.0,-10.0,1650849632106709.0
-10.0,-11.0,-5.0,-11.0,-16.0,-16.0,-22.0,-34.0,1650849632106709.0
2.0,44.0,19.0,-5.0,-20.0,3.0,-5.0,16.0,1650849632115665.0
4.0,0.0,-16.0,-24.0,-21.0,-19.0,-3.0,-50.0,1650849632115665.0
12.0,2.0,3.0,7.0,-5.0,-7.0,8.0,41.0,1650849632129626.0
5.0,-21.0,28.0,34.0,33.0,44.0,36.0,62.0,1650849632129626.0
5.0,-5.0,-5.0,-3.0,-2.0,-16.0,-24.0,-53.0,1650849632137631.0
-34.0,-1.0,22.0,-4.0,-3.0,-13.0,23.0,21.0,1650849632137631.0
16.0,-37.0,5.0,0.0,1.0,19.0,-37.0,-9.0,1650849632152594.0
65.0,32.0,-45.0,-26.0,-24.0,-29.0,36.0,-2.0,1650849632152594.0
5.0,-64.0,-16.0,0.0,12.0,27.0,-22.0,-20.0,1650849632154604.0
31.0,127.0,18.0,-5.0,-20.0,-25.0,3.0,-9.0,1650849632154604.0
-12.0,-69.0,5.0,5.0,5.0,-11.0,70.0,65.0,1650849632166586.0
-23.0,77.0,28.0,3.0,3.0,-3.0,-19.0,33.0,1650849632166586.0
-12.0,-44.0,-44.0,-6.0,-1.0,4.0,-8.0,-22.0,1650849632182637.0
-24.0,20.0,28.0,3.0,-2.0,4.0,-78.0,-97.0,1650849632182637.0
-13.0,80.0,-20.0,-2.0,5.0,17.0,1.0,-39.0,1650849632190608.0
18.0,12.0,25.0,14.0,4.0,-12.0,5.0,32.0,1650849632190608.0
7.0,3.0,-8.0,-8.0,-3.0,2.0,19.0,5.0,1650849632191601.0
20.0,-8.0,-16.0,4.0,5.0,9.0,13.0,71.0,1650849632191601.0
-18.0,21.0,19.0,9.0,5.0,3.0,-4.0,-29.0,1650849632212656.0
-12.0,-19.0,-9.0,-13.0,-4.0,-6.0,-3.0,-13.0,1650849632212656.0
-8.0,7.0,9.0,1.0,-15.0,-15.0,6.0,25.0,1650849632218624.0
11.0,6.0,44.0,20.0,18.0,19.0,-1.0,-7.0,1650849632218624.0
-1.0,-85.0,-55.0,-16.0,2.0,8.0,20.0,22.0,1650849632226617.0
-20.0,-14.0,4.0,-1.0,2.0,-1.0,-58.0,-85.0,1650849632226617.0
6.0,6.0,13.0,4.0,-7.0,-11.0,19.0,13.0,1650849632235567.0
7.0,-12.0,-11.0,-14.0,-9.0,-6.0,43.0,70.0,1650849632235567.0
0.0,21.0,8.0,-2.0,-9.0,-24.0,-44.0,-48.0,1650849632248559.0
-15.0,-8.0,6.0,-23.0,-26.0,1.0,21.0,3.0,1650849632248559.0
22.0,18.0,18.0,22.0,20.0,16.0,-2.0,32.0,1650849632257631.0
-17.0,-49.0,-33.0,-2.0,-3.0,-2.0,-16.0,-12.0,1650849632257631.0
-9.0,8.0,27.0,-5.0,-1.0,-3.0,0.0,-4.0,1650849632272623.0
11.0,-1.0,-36.0,8.0,-7.0,-6.0,23.0,31.0,1650849632272623.0
6.0,-13.0,24.0,9.0,10.0,-9.0,-12.0,-20.0,1650849632274553.0
-2.0,8.0,-20.0,-9.0,-5.0,9.0,6.0,2.0,1650849632274553.0
-1.0,6.0,4.0,5.0,-1.0,-9.0,-36.0,-32.0,1650849632286519.0
-8.0,19.0,20.0,-3.0,-8.0,-7.0,4.0,-8.0,1650849632286519.0
3.0,17.0,-18.0,-11.0,4.0,3.0,18.0,33.0,1650849632295499.0
-18.0,-48.0,-15.0,1.0,5.0,7.0,-30.0,-36.0,1650849632295499.0
9.0,-9.0,-5.0,-8.0,-20.0,-10.0,12.0,6.0,1650849632309573.0
-7.0,-11.0,18.0,28.0,34.0,8.0,16.0,-7.0,1650849632309573.0
-1.0,8.0,-26.0,-6.0,-12.0,4.0,25.0,35.0,1650849632316583.0
13.0,4.0,7.0,5.0,13.0,14.0,12.0,12.0,1650849632316583.0
-11.0,4.0,23.0,-3.0,-4.0,8.0,-50.0,-44.0,1650849632331637.0
10.0,-4.0,-13.0,-4.0,-1.0,8.0,37.0,20.0,1650849632331637.0
-20.0,-55.0,3.0,8.0,8.0,-17.0,-38.0,-41.0,1650849632340614.0
-7.0,-51.0,-23.0,-19.0,-22.0,-18.0,6.0,-19.0,1650849632340614.0
28.0,48.0,19.0,16.0,20.0,15.0,-1.0,22.0,1650849632355641.0
-9.0,-36.0,-2.0,-7.0,-4.0,-7.0,-4.0,7.0,1650849632355641.0
-1.0,-2.0,26.0,7.0,-4.0,-4.0,-15.0,-16.0,1650849632356597.0
-8.0,19.0,-7.0,-3.0,0.0,2.0,-6.0,-10.0,1650849632356597.0
-1.0,-17.0,-31.0,-14.0,-10.0,-6.0,17.0,19.0,1650849632370544.0
-9.0,-18.0,-6.0,18.0,27.0,10.0,-23.0,-18.0,1650849632370544.0
-6.0,22.0,14.0,-15.0,-23.0,-7.0,-17.0,-19.0,1650849632371558.0
9.0,-6.0,4.0,2.0,-6.0,-4.0,25.0,36.0,1650849632371558.0
0.0,-6.0,-5.0,14.0,14.0,5.0,9.0,3.0,1650849632392501.0
-5.0,-1.0,-13.0,-16.0,-12.0,-1.0,-9.0,-3.0,1650849632392501.0
16.0,29.0,26.0,26.0,28.0,28.0,61.0,51.0,1650849632394474.0
-3.0,28.0,1.0,-14.0,-7.0,-11.0,-24.0,-20.0,1650849632394474.0
-13.0,-66.0,-3.0,-3.0,-14.0,-11.0,2.0,-10.0,1650849632415666.0
9.0,30.0,3.0,2.0,5.0,-4.0,-9.0,12.0,1650849632415666.0
-18.0,-17.0,-23.0,-30.0,-25.0,-26.0,-25.0,-22.0,1650849632416641.0
-1.0,-32.0,-24.0,7.0,11.0,16.0,-4.0,-17.0,1650849632416641.0
14.0,62.0,25.0,4.0,11.0,-5.0,13.0,17.0,1650849632430597.0
-20.0,-63.0,-16.0,-4.0,-9.0,-9.0,-21.0,-18.0,1650849632430597.0
-8.0,9.0,5.0,-17.0,-6.0,-1.0,1.0,-7.0,1650849632431595.0
20.0,30.0,5.0,11.0,9.0,13.0,33.0,45.0,1650849632431595.0
-18.0,-23.0,-8.0,8.0,-1.0,1.0,1.0,-11.0,1650849632452540.0
17.0,3.0,13.0,0.0,3.0,2.0,2.0,12.0,1650849632452540.0
-15.0,5.0,-11.0,-2.0,-2.0,-5.0,-14.0,-6.0,1650849632460520.0
-2.0,-28.0,-13.0,-13.0,-9.0,-13.0,-14.0,-33.0,1650849632460520.0
1.0,3.0,11.0,2.0,-5.0,0.0,2.0,18.0,1650849632475623.0
10.0,23.0,3.0,-3.0,6.0,1.0,-16.0,-8.0,1650849632475623.0
-12.0,-14.0,7.0,1.0,-3.0,-1.0,-8.0,-10.0,1650849632476593.0
1.0,4.0,0.0,0.0,-2.0,0.0,-13.0,-4.0,1650849632476593.0
0.0,9.0,-7.0,-3.0,4.0,6.0,12.0,6.0,1650849632491617.0
-8.0,-16.0,-7.0,-9.0,-6.0,0.0,6.0,-3.0,1650849632491617.0
11.0,19.0,17.0,3.0,-2.0,-4.0,-1.0,6.0,1650849632496566.0
-16.0,-14.0,-11.0,-12.0,-5.0,-10.0,-19.0,-21.0,1650849632496566.0
18.0,26.0,-6.0,21.0,16.0,16.0,11.0,14.0,1650849632512525.0
-3.0,4.0,8.0,8.0,9.0,-1.0,-5.0,-3.0,1650849632512525.0
-1.0,-15.0,-39.0,-11.0,-17.0,-26.0,-1.0,-8.0,1650849632514492.0
0.0,28.0,23.0,11.0,19.0,41.0,26.0,16.0,1650849632514492.0
-7.0,-20.0,-25.0,-27.0,-21.0,-14.0,-10.0,-11.0,1650849632535435.0
-5.0,9.0,-7.0,-5.0,-7.0,3.0,-38.0,-19.0,1650849632535435.0
-2.0,-9.0,1.0,-1.0,-5.0,-8.0,40.0,8.0,1650849632537450.0
-3.0,9.0,16.0,7.0,-1.0,-17.0,-18.0,-7.0,1650849632537450.0
14.0,4.0,2.0,1.0,4.0,10.0,9.0,18.0,1650849632548574.0
3.0,27.0,0.0,-1.0,-5.0,-3.0,0.0,-3.0,1650849632548574.0
-9.0,-22.0,-8.0,-3.0,0.0,-2.0,-17.0,-10.0,1650849632558554.0
2.0,8.0,4.0,8.0,3.0,6.0,2.0,5.0,1650849632558554.0
-12.0,7.0,13.0,1.0,14.0,11.0,2.0,-11.0,1650849632572578.0
10.0,22.0,2.0,-3.0,-14.0,-14.0,-17.0,-13.0,1650849632572578.0
6.0,7.0,6.0,5.0,-2.0,-1.0,13.0,18.0,1650849632574508.0
-2.0,-14.0,-7.0,-11.0,2.0,2.0,-6.0,-2.0,1650849632574508.0
1.0,6.0,6.0,25.0,11.0,-4.0,-2.0,-2.0,1650849632595595.0
-9.0,-16.0,-10.0,-14.0,-1.0,1.0,1.0,-5.0,1650849632595595.0
3.0,21.0,-3.0,12.0,21.0,33.0,6.0,-5.0,1650849632596567.0
-6.0,-22.0,1.0,2.0,-7.0,-16.0,-25.0,-11.0,1650849632596567.0
4.0,9.0,4.0,-22.0,-25.0,-23.0,8.0,9.0,1650849632609559.0
3.0,1.0,-2.0,-5.0,-13.0,-5.0,36.0,14.0,1650849632609559.0
0.0,0.0,-18.0,13.0,11.0,8.0,-4.0,4.0,1650849632616512.0
3.0,9.0,2.0,-7.0,-4.0,-11.0,-4.0,-5.0,1650849632616512.0
-9.0,-21.0,-4.0,1.0,0.0,5.0,-8.0,-5.0,1650849632632760.0
-2.0,0.0,13.0,5.0,-6.0,7.0,-15.0,-11.0,1650849632632760.0
-5.0,-22.0,-1.0,-23.0,-7.0,2.0,18.0,14.0,1650849632634728.0
21.0,2.0,-13.0,33.0,35.0,8.0,-11.0,-3.0,1650849632634728.0
-4.0,2.0,3.0,-11.0,-13.0,-4.0,9.0,-1.0,1650849632656260.0
-1.0,-7.0,4.0,5.0,6.0,9.0,15.0,10.0,1650849632656260.0
-15.0,21.0,11.0,-4.0,-7.0,-8.0,-48.0,-41.0,1650849632657892.0
-10.0,-43.0,-38.0,-20.0,-14.0,-2.0,8.0,3.0,1650849632657892.0
12.0,5.0,-7.0,7.0,9.0,4.0,19.0,16.0,1650849632669874.0
-1.0,6.0,-11.0,-4.0,-2.0,-9.0,19.0,12.0,1650849632669874.0
-5.0,7.0,4.0,0.0,-2.0,-5.0,-14.0,-11.0,1650849632676801.0
2.0,-5.0,-7.0,-1.0,-1.0,-7.0,6.0,2.0,1650849632676801.0
-6.0,-40.0,24.0,11.0,21.0,41.0,10.0,-2.0,1650849632692786.0
10.0,28.0,4.0,-4.0,-5.0,-8.0,-3.0,11.0,1650849632692786.0
-4.0,-34.0,-11.0,12.0,8.0,-5.0,-8.0,-12.0,1650849632694754.0
-3.0,21.0,11.0,-9.0,-10.0,-11.0,9.0,8.0,1650849632694754.0
-2.0,11.0,-3.0,5.0,-7.0,-6.0,7.0,5.0,1650849632715806.0
8.0,-20.0,16.0,17.0,25.0,10.0,3.0,2.0,1650849632715806.0
9.0,44.0,5.0,-19.0,-23.0,-11.0,-5.0,4.0,1650849632716804.0
-20.0,-60.0,7.0,20.0,13.0,12.0,-3.0,-8.0,1650849632716804.0
15.0,47.0,-1.0,-9.0,-1.0,-9.0,3.0,13.0,1650849632729796.0
-10.0,-34.0,-21.0,-6.0,-2.0,6.0,-18.0,-13.0,1650849632729796.0
6.0,22.0,7.0,2.0,0.0,-9.0,14.0,3.0,1650849632736751.0
2.0,-29.0,6.0,0.0,2.0,21.0,5.0,5.0,1650849632736751.0
-8.0,2.0,-26.0,-29.0,-24.0,-22.0,-3.0,-11.0,1650849632752711.0
-9.0,-7.0,8.0,3.0,-1.0,-6.0,-10.0,-2.0,1650849632752711.0
13.0,13.0,2.0,8.0,14.0,9.0,9.0,16.0,1650849632754733.0
-7.0,-21.0,14.0,6.0,4.0,1.0,-7.0,-9.0,1650849632754733.0
-10.0,-11.0,-18.0,-5.0,-10.0,-9.0,-8.0,-13.0,1650849632775646.0
1.0,14.0,1.0,1.0,5.0,-2.0,-22.0,-16.0,1650849632775646.0
-5.0,-39.0,-6.0,-6.0,-7.0,-5.0,13.0,11.0,1650849632776649.0
8.0,42.0,-6.0,-2.0,-2.0,-12.0,9.0,4.0,1650849632776649.0
1.0,21.0,1.0,-2.0,12.0,31.0,-17.0,-14.0,1650849632789667.0
-16.0,-36.0,-11.0,-21.0,-23.0,-17.0,-9.0,-10.0,1650849632789667.0
5.0,4.0,-3.0,20.0,15.0,18.0,20.0,16.0,1650849632796617.0
-4.0,56.0,45.0,1.0,-7.0,-13.0,-15.0,-9.0,1650849632796617.0
4.0,-39.0,-51.0,-5.0,13.0,-1.0,13.0,18.0,1650849632812928.0
-1.0,9.0,7.0,0.0,-4.0,6.0,11.0,0.0,1650849632812928.0
2.0,-12.0,-6.0,8.0,4.0,-1.0,-18.0,-10.0,1650849632814924.0
6.0,25.0,0.0,5.0,2.0,1.0,24.0,13.0,1650849632814924.0
-6.0,9.0,8.0,-2.0,-7.0,-17.0,-22.0,-9.0,1650849632835836.0
-11.0,-15.0,-3.0,-2.0,4.0,11.0,17.0,3.0,1650849632835836.0
19.0,7.0,-2.0,-7.0,-8.0,-4.0,-8.0,11.0,1650849632836834.0
-4.0,8.0,9.0,3.0,10.0,11.0,18.0,-3.0,1650849632836834.0
2.0,13.0,-5.0,-4.0,-6.0,-2.0,-3.0,7.0,1650849632848829.0
4.0,-6.0,-14.0,-9.0,-12.0,-19.0,-5.0,-7.0,1650849632848829.0
-22.0,-15.0,22.0,7.0,3.0,8.0,-25.0,-24.0,1650849632857787.0
-1.0,-9.0,-30.0,-11.0,-8.0,0.0,0.0,8.0,1650849632857787.0
5.0,-11.0,16.0,13.0,18.0,4.0,21.0,10.0,1650849632873366.0
1.0,0.0,-4.0,-13.0,-12.0,-6.0,-18.0,2.0,1650849632873366.0
-4.0,-11.0,-4.0,13.0,7.0,1.0,22.0,11.0,1650849632874377.0
-3.0,18.0,5.0,-7.0,-13.0,-19.0,-13.0,-6.0,1650849632874377.0
1.0,-21.0,-2.0,1.0,-3.0,6.0,-1.0,-3.0,1650849632895336.0
9.0,10.0,3.0,10.0,14.0,11.0,14.0,10.0,1650849632895336.0
-3.0,26.0,-2.0,-14.0,-12.0,-7.0,-3.0,-8.0,1650849632897304.0
3.0,-11.0,-21.0,2.0,2.0,-2.0,-10.0,1.0,1650849632897304.0
-13.0,-13.0,12.0,-13.0,-14.0,-13.0,-6.0,-10.0,1650849632909272.0
-4.0,-5.0,8.0,18.0,11.0,6.0,-17.0,-12.0,1650849632909272.0
-4.0,-17.0,-12.0,-19.0,-6.0,-1.0,13.0,6.0,1650849632918248.0
0.0,33.0,8.0,4.0,-9.0,8.0,-10.0,-11.0,1650849632918248.0
5.0,21.0,8.0,-4.0,-8.0,-6.0,-10.0,-13.0,1650849632933339.0
-8.0,-48.0,-11.0,19.0,19.0,6.0,26.0,31.0,1650849632933339.0
7.0,25.0,13.0,-9.0,-8.0,-9.0,-11.0,-19.0,1650849632934327.0
3.0,-35.0,-1.0,-3.0,6.0,15.0,8.0,24.0,1650849632934327.0
-5.0,15.0,13.0,-12.0,-19.0,-12.0,-13.0,-24.0,1650849632955453.0
9.0,-24.0,-17.0,6.0,1.0,1.0,19.0,13.0,1650849632955453.0
1.0,24.0,3.0,-7.0,-7.0,-6.0,-12.0,-1.0,1650849632957385.0
-10.0,-34.0,-8.0,-3.0,-4.0,-12.0,-8.0,-9.0,1650849632957385.0
4.0,15.0,1.0,6.0,1.0,14.0,0.0,4.0,1650849632969376.0
7.0,42.0,20.0,5.0,8.0,4.0,3.0,-4.0,1650849632969376.0
-14.0,-24.0,-22.0,-4.0,10.0,11.0,4.0,-2.0,1650849632983911.0
8.0,21.0,18.0,-8.0,-11.0,-8.0,-6.0,-4.0,1650849632983911.0
-5.0,14.0,19.0,8.0,5.0,-5.0,-12.0,-2.0,1650849632992980.0
-6.0,-22.0,-23.0,7.0,-10.0,-9.0,9.0,-12.0,1650849632992980.0
11.0,3.0,-15.0,5.0,19.0,10.0,9.0,13.0,1650849632994001.0
-6.0,-6.0,4.0,-6.0,-9.0,-1.0,-6.0,1.0,1650849632994001.0
-2.0,1.0,-4.0,-7.0,-6.0,-1.0,-10.0,-4.0,1650849633015872.0
1.0,19.0,10.0,1.0,6.0,4.0,0.0,-10.0,1650849633015872.0
6.0,-10.0,1.0,-6.0,-15.0,-1.0,11.0,13.0,1650849633016870.0
-4.0,-1.0,-4.0,14.0,8.0,-1.0,7.0,1.0,1650849633016870.0
-4.0,-24.0,-6.0,-9.0,-13.0,-3.0,-37.0,-20.0,1650849633028865.0
-8.0,49.0,-7.0,-10.0,-7.0,-11.0,4.0,-6.0,1650849633028865.0
24.0,12.0,13.0,14.0,4.0,-1.0,27.0,37.0,1650849633038366.0
-2.0,-38.0,-12.0,-12.0,3.0,12.0,12.0,-2.0,1650849633038366.0
1.0,33.0,3.0,7.0,-1.0,-12.0,0.0,9.0,1650849633053321.0
-15.0,-26.0,9.0,-15.0,-8.0,5.0,-25.0,-12.0,1650849633053321.0
-10.0,-17.0,-11.0,-10.0,-11.0,-26.0,-19.0,-24.0,1650849633054317.0
5.0,26.0,-4.0,5.0,-2.0,20.0,11.0,10.0,1650849633054317.0
-2.0,-15.0,0.0,7.0,13.0,3.0,-1.0,-4.0,1650849633075488.0
3.0,26.0,11.0,5.0,3.0,-3.0,-4.0,-7.0,1650849633075488.0
7.0,-27.0,-6.0,8.0,16.0,16.0,35.0,35.0,1650849633077488.0
-3.0,-3.0,26.0,23.0,13.0,-11.0,-5.0,-10.0,1650849633077488.0
1.0,-10.0,-22.0,3.0,2.0,-4.0,5.0,0.0,1650849633089495.0
8.0,25.0,1.0,-18.0,-20.0,-7.0,-13.0,-2.0,1650849633089495.0
-13.0,-13.0,-8.0,-17.0,-14.0,-5.0,-16.0,-20.0,1650849633098475.0
-1.0,13.0,-10.0,-7.0,-10.0,-5.0,2.0,1.0,1650849633098475.0
-8.0,-11.0,10.0,5.0,5.0,6.0,-17.0,-13.0,1650849633112389.0
15.0,-20.0,-16.0,7.0,16.0,11.0,48.0,45.0,1650849633112389.0
1.0,-45.0,18.0,12.0,5.0,7.0,-13.0,-13.0,1650849633114385.0
-2.0,59.0,1.0,-3.0,1.0,-9.0,-9.0,-5.0,1650849633114385.0
-2.0,-13.0,0.0,-7.0,-12.0,-24.0,2.0,1.0,1650849633135328.0
-3.0,-9.0,-20.0,-15.0,-3.0,22.0,-19.0,-13.0,1650849633135328.0
-14.0,-28.0,8.0,18.0,-6.0,2.0,8.0,-16.0,1650849633137323.0
22.0,14.0,6.0,-5.0,9.0,6.0,24.0,36.0,1650849633137323.0
-5.0,-14.0,-17.0,-2.0,6.0,3.0,0.0,-2.0,1650849633149290.0
-2.0,13.0,14.0,-3.0,-8.0,-15.0,-9.0,-5.0,1650849633149290.0
-12.0,4.0,-10.0,-16.0,-16.0,-7.0,-24.0,-17.0,1650849633158267.0
-2.0,-14.0,2.0,-4.0,-12.0,-26.0,-16.0,-16.0,1650849633158267.0
6.0,16.0,6.0,10.0,13.0,42.0,24.0,15.0,1650849633173312.0
0.0,-16.0,14.0,12.0,-3.0,-2.0,-6.0,2.0,1650849633173312.0
20.0,25.0,2.0,-3.0,10.0,7.0,1.0,4.0,1650849633174225.0
-43.0,-15.0,-15.0,-5.0,-2.0,-5.0,-2.0,-7.0,1650849633174225.0
-15.0,-7.0,3.0,2.0,5.0,-8.0,11.0,8.0,1650849633195172.0
2.0,-2.0,-2.0,1.0,0.0,0.0,-5.0,-4.0,1650849633195172.0
11.0,12.0,8.0,2.0,0.0,5.0,-4.0,1.0,1650849633197163.0
-26.0,3.0,5.0,4.0,5.0,-5.0,-3.0,-8.0,1650849633197163.0
11.0,-19.0,-17.0,-2.0,-4.0,-5.0,5.0,11.0,1650849633209131.0
-5.0,11.0,17.0,-6.0,-3.0,7.0,7.0,-2.0,1650849633209131.0
-2.0,12.0,-16.0,2.0,11.0,15.0,0.0,2.0,1650849633218119.0
-1.0,-17.0,-7.0,-5.0,-5.0,-3.0,-8.0,-18.0,1650849633218119.0
-7.0,0.0,-14.0,-7.0,-3.0,-23.0,-11.0,8.0,1650849633232628.0
35.0,5.0,11.0,10.0,-6.0,-8.0,-18.0,-15.0,1650849633232628.0
-78.0,-5.0,21.0,-2.0,-5.0,-8.0,-9.0,-4.0,1650849633234569.0
7.0,-6.0,-4.0,1.0,13.0,28.0,41.0,25.0,1650849633234569.0
22.0,6.0,-11.0,-9.0,-6.0,-14.0,-4.0,-4.0,1650849633255519.0
25.0,7.0,-3.0,-2.0,-8.0,-18.0,-27.0,9.0,1650849633255519.0
-24.0,15.0,5.0,-6.0,0.0,7.0,1.0,-20.0,1650849633256510.0
-19.0,-15.0,39.0,-7.0,1.0,5.0,-3.0,1.0,1650849633256510.0
-2.0,-2.0,-44.0,6.0,-3.0,-1.0,2.0,-5.0,1650849633268505.0
-25.0,-7.0,9.0,7.0,4.0,-6.0,-17.0,2.0,1650849633268505.0
44.0,14.0,28.0,13.0,4.0,6.0,4.0,2.0,1650849633278451.0
28.0,5.0,1.0,-2.0,0.0,-5.0,-8.0,6.0,1650849633278451.0
-4.0,-13.0,-16.0,-17.0,-9.0,-4.0,2.0,-3.0,1650849633293410.0
-15.0,-9.0,-23.0,-8.0,2.0,5.0,1.0,-10.0,1650849633293410.0
-1.0,0.0,9.0,11.0,1.0,2.0,4.0,3.0,1650849633294408.0
12.0,3.0,-5.0,-2.0,0.0,2.0,6.0,6.0,1650849633294408.0
0.0,1.0,20.0,5.0,0.0,-3.0,-8.0,-4.0,1650849633315871.0
1.0,3.0,3.0,7.0,4.0,3.0,11.0,5.0,1650849633315871.0
4.0,0.0,-20.0,-29.0,-5.0,4.0,8.0,0.0,1650849633316869.0
-27.0,-5.0,-4.0,13.0,-12.0,-18.0,-14.0,-3.0,1650849633316869.0
47.0,4.0,5.0,20.0,18.0,28.0,13.0,10.0,1650849633337814.0
-19.0,1.0,-8.0,6.0,4.0,-4.0,8.0,-5.0,1650849633337814.0
-10.0,-8.0,17.0,-8.0,-7.0,-6.0,-2.0,5.0,1650849633339835.0
18.0,4.0,-5.0,14.0,-7.0,-15.0,-18.0,-13.0,1650849633339835.0
5.0,5.0,25.0,10.0,-1.0,-6.0,1.0,2.0,1650849633352773.0
-4.0,-1.0,-19.0,-17.0,-3.0,9.0,9.0,3.0,1650849633352773.0
11.0,3.0,12.0,-20.0,-11.0,-4.0,-1.0,3.0,1650849633354769.0
13.0,2.0,-44.0,-7.0,-7.0,-10.0,-6.0,-3.0,1650849633354769.0
-22.0,-4.0,45.0,14.0,5.0,15.0,7.0,-4.0,1650849633375874.0
12.0,-3.0,-11.0,7.0,12.0,3.0,2.0,4.0,1650849633375874.0
3.0,-5.0,-12.0,9.0,0.0,-16.0,-7.0,-2.0,1650849633376827.0
9.0,5.0,16.0,-2.0,6.0,25.0,7.0,0.0,1650849633376827.0
1.0,1.0,-2.0,-9.0,3.0,2.0,4.0,2.0,1650849633397801.0
-9.0,-6.0,-9.0,-15.0,-11.0,-14.0,-4.0,-6.0,1650849633397801.0
5.0,-1.0,-16.0,4.0,-7.0,-10.0,-4.0,-1.0,1650849633399786.0
5.0,-1.0,10.0,5.0,4.0,5.0,2.0,1.0,1650849633399786.0
-6.0,-2.0,-1.0,-1.0,-1.0,-1.0,-2.0,-2.0,1650849633412758.0
2.0,1.0,16.0,-5.0,-5.0,3.0,4.0,1.0,1650849633412758.0
3.0,1.0,-26.0,7.0,5.0,-6.0,0.0,1.0,1650849633414726.0
7.0,-5.0,-14.0,-5.0,-12.0,-9.0,-3.0,-2.0,1650849633414726.0
-9.0,-2.0,-20.0,-4.0,0.0,8.0,-2.0,-2.0,1650849633435668.0
0.0,1.0,14.0,8.0,14.0,10.0,5.0,2.0,1650849633435668.0
6.0,8.0,2.0,1.0,-3.0,-6.0,-5.0,1.0,1650849633436667.0
1.0,-7.0,1.0,-3.0,1.0,4.0,-4.0,-2.0,1650849633436667.0
-2.0,7.0,13.0,-1.0,-11.0,-11.0,-1.0,-2.0,1650849633457679.0
1.0,1.0,8.0,10.0,4.0,-10.0,0.0,0.0,1650849633457679.0
3.0,-19.0,-29.0,-12.0,8.0,27.0,2.0,0.0,1650849633459632.0
5.0,17.0,13.0,7.0,-2.0,-8.0,-1.0,0.0,1650849633459632.0
-6.0,8.0,2.0,-5.0,4.0,-5.0,0.0,-1.0,1650849633472630.0
1.0,-10.0,-3.0,-7.0,-15.0,0.0,0.0,0.0,1650849633472630.0
1.0,2.0,-14.0,0.0,-2.0,-5.0,-1.0,0.0,1650849633478603.0
-2.0,-10.0,4.0,0.0,5.0,3.0,-1.0,-4.0,1650849633478603.0
0.0,2.0,1.0,-1.0,1.0,0.0,1.0,2.0,1650849633495587.0
-4.0,5.0,1.0,-1.0,0.0,3.0,-1.0,-2.0,1650849633495587.0
0.0,-6.0,1.0,-3.0,-4.0,-7.0,-3.0,0.0,1650849633496555.0
-2.0,-1.0,-3.0,-2.0,-5.0,1.0,-1.0,0.0,1650849633496555.0
0.0,0.0,-8.0,2.0,0.0,-1.0,-1.0,-2.0,1650849633517499.0
2.0,-3.0,7.0,-3.0,-2.0,-3.0,-1.0,-1.0,1650849633517499.0
-4.0,-3.0,6.0,5.0,-2.0,-4.0,1.0,-2.0,1650849633519495.0
2.0,1.0,-9.0,-5.0,4.0,0.0,-1.0,1.0,1650849633519495.0
-1.0,-1.0,9.0,-2.0,6.0,15.0,0.0,0.0,1650849633532487.0
-3.0,-5.0,-30.0,-10.0,-5.0,-6.0,1.0,-1.0,1650849633532487.0
3.0,3.0,5.0,2.0,-7.0,-4.0,-1.0,0.0,1650849633539513.0
1.0,-1.0,1.0,-5.0,-1.0,-2.0,0.0,-3.0,1650849633539513.0
-2.0,-3.0,5.0,2.0,-2.0,-10.0,-3.0,-2.0,1650849633555397.0
0.0,3.0,6.0,1.0,-4.0,-9.0,-2.0,-3.0,1650849633555397.0
0.0,-5.0,-3.0,1.0,0.0,4.0,0.0,-1.0,1650849633557409.0
3.0,7.0,0.0,1.0,15.0,24.0,10.0,2.0,1650849633557409.0
0.0,-4.0,-4.0,-8.0,-16.0,-11.0,2.0,0.0,1650849633577367.0
0.0,-4.0,-1.0,6.0,19.0,11.0,-1.0,1.0,1650849633577367.0
-2.0,0.0,-2.0,-1.0,-5.0,-18.0,-5.0,-1.0,1650849633579334.0
-2.0,-4.0,-4.0,0.0,-6.0,-4.0,-3.0,-1.0,1650849633579334.0
-1.0,6.0,-3.0,-5.0,0.0,3.0,-1.0,-2.0,1650849633592367.0
-1.0,-7.0,-5.0,-5.0,-6.0,-6.0,1.0,0.0,1650849633592367.0
1.0,6.0,4.0,5.0,3.0,6.0,1.0,0.0,1650849633599310.0
-2.0,-6.0,-8.0,-6.0,-4.0,-8.0,-3.0,-2.0,1650849633599310.0
-1.0,-4.0,-2.0,-3.0,-4.0,-1.0,-2.0,-2.0,1650849633615237.0
1.0,-1.0,0.0,0.0,-6.0,4.0,3.0,1.0,1650849633615237.0
1.0,0.0,-9.0,1.0,8.0,3.0,2.0,-1.0,1650849633617233.0
1.0,-6.0,-8.0,-4.0,7.0,6.0,0.0,1.0,1650849633617233.0
-1.0,-6.0,7.0,7.0,-1.0,-15.0,-2.0,-1.0,1650849633638176.0
-1.0,18.0,13.0,1.0,-7.0,0.0,-2.0,-3.0,1650849633638176.0
1.0,-9.0,-7.0,-8.0,-6.0,-4.0,1.0,-1.0,1650849633639175.0
1.0,11.0,4.0,7.0,4.0,14.0,4.0,1.0,1650849633639175.0
1.0,0.0,-6.0,-1.0,2.0,0.0,-1.0,0.0,1650849633660144.0
-2.0,-4.0,0.0,3.0,6.0,4.0,-2.0,0.0,1650849633660144.0
-3.0,-1.0,2.0,-3.0,-4.0,-9.0,-2.0,-1.0,1650849633662134.0
-3.0,-2.0,-3.0,-5.0,-8.0,-10.0,-4.0,0.0,1650849633662134.0
-1.0,2.0,0.0,1.0,-2.0,-2.0,-1.0,-1.0,1650849633675303.0
0.0,-3.0,0.0,0.0,-5.0,-10.0,-3.0,0.0,1650849633675303.0
1.0,3.0,1.0,4.0,16.0,28.0,10.0,0.0,1650849633677257.0
0.0,-6.0,-2.0,-2.0,-5.0,-2.0,1.0,1.0,1650849633677257.0
-2.0,2.0,1.0,1.0,1.0,7.0,1.0,1.0,1650849633697452.0
0.0,0.0,-4.0,-3.0,-1.0,-14.0,-2.0,0.0,1650849633697452.0
-1.0,-3.0,0.0,1.0,-8.0,-12.0,-5.0,-1.0,1650849633699447.0
-1.0,3.0,5.0,0.0,0.0,-3.0,-2.0,-3.0,1650849633699447.0
1.0,2.0,0.0,0.0,5.0,14.0,2.0,2.0,1650849633712475.0
0.0,3.0,-3.0,4.0,7.0,8.0,2.0,0.0,1650849633712475.0
-1.0,4.0,5.0,-1.0,-3.0,1.0,-2.0,2.0,1650849633719431.0
-1.0,-3.0,-6.0,-7.0,-4.0,-6.0,-3.0,-3.0,1650849633719431.0
-2.0,-2.0,-3.0,-7.0,-18.0,-27.0,-5.0,-3.0,1650849633742960.0
-1.0,-9.0,3.0,3.0,4.0,30.0,7.0,2.0,1650849633742960.0
2.0,11.0,1.0,7.0,15.0,10.0,2.0,2.0,1650849633744971.0
-2.0,-6.0,-10.0,-7.0,3.0,-8.0,-5.0,-2.0,1650849633744971.0
-1.0,-4.0,1.0,4.0,5.0,-3.0,-2.0,-2.0,1650849633757989.0
1.0,-3.0,-1.0,-3.0,-8.0,-3.0,-3.0,-2.0,1650849633757989.0
-1.0,3.0,-4.0,-9.0,-11.0,-12.0,-3.0,-4.0,1650849633759918.0
0.0,3.0,6.0,11.0,2.0,1.0,0.0,1.0,1650849633759918.0
0.0,-11.0,-10.0,1.0,2.0,-1.0,-1.0,0.0,1650849633771887.0
-2.0,4.0,3.0,-1.0,-5.0,0.0,-3.0,-1.0,1650849633771887.0
-1.0,-4.0,1.0,-1.0,0.0,3.0,2.0,1.0,1650849633778866.0
1.0,1.0,3.0,-3.0,-2.0,5.0,2.0,-1.0,1650849633778866.0
-2.0,1.0,1.0,-1.0,-1.0,5.0,0.0,1.0,1650849633794906.0
0.0,-1.0,-6.0,-2.0,-2.0,-12.0,-2.0,1.0,1650849633794906.0
-3.0,1.0,4.0,5.0,0.0,-5.0,-3.0,0.0,1650849633802886.0
-1.0,-6.0,-2.0,-3.0,-3.0,2.0,0.0,-1.0,1650849633802886.0
1.0,2.0,4.0,3.0,5.0,-2.0,1.0,-1.0,1650849633817844.0
-2.0,-4.0,-10.0,-7.0,-8.0,-19.0,-6.0,-3.0,1650849633817844.0
0.0,7.0,5.0,1.0,2.0,12.0,2.0,1.0,1650849633819838.0
0.0,-4.0,4.0,8.0,3.0,25.0,7.0,2.0,1650849633819838.0
1.0,2.0,7.0,0.0,6.0,2.0,1.0,2.0,1650849633831835.0
-1.0,0.0,-7.0,-3.0,8.0,1.0,-2.0,-2.0,1650849633831835.0
-3.0,-6.0,-1.0,-2.0,-11.0,-20.0,-6.0,-2.0,1650849633846767.0
-3.0,-14.0,-8.0,-2.0,-9.0,-13.0,-8.0,-4.0,1650849633846767.0
0.0,22.0,19.0,3.0,-5.0,7.0,1.0,-2.0,1650849633855758.0
-1.0,-8.0,-8.0,0.0,1.0,2.0,1.0,2.0,1650849633855758.0
0.0,-3.0,-4.0,-3.0,0.0,-6.0,-2.0,0.0,1650849633856752.0
0.0,-4.0,4.0,-1.0,2.0,5.0,0.0,3.0,1650849633856752.0
-2.0,3.0,-4.0,-1.0,-1.0,2.0,-1.0,0.0,1650849633877856.0
-1.0,0.0,2.0,1.0,3.0,0.0,2.0,0.0,1650849633877856.0
1.0,-2.0,-3.0,-1.0,0.0,4.0,1.0,0.0,1650849633883870.0
0.0,5.0,0.0,-4.0,-4.0,-4.0,-3.0,0.0,1650849633883870.0
-1.0,-9.0,-5.0,-2.0,-6.0,-10.0,-4.0,-1.0,1650849633891888.0
-2.0,6.0,3.0,-1.0,-1.0,-3.0,-1.0,-2.0,1650849633891888.0
0.0,-14.0,-7.0,3.0,13.0,30.0,8.0,1.0,1650849633900798.0
-2.0,3.0,8.0,1.0,-10.0,-26.0,-4.0,-4.0,1650849633900798.0
2.0,13.0,4.0,1.0,-5.0,17.0,2.0,2.0,1650849633914931.0
1.0,-5.0,-1.0,2.0,21.0,6.0,3.0,1.0,1650849633914931.0
-1.0,4.0,2.0,-2.0,3.0,1.0,0.0,-1.0,1650849633916899.0
-1.0,-1.0,-5.0,-4.0,-5.0,-8.0,-4.0,1.0,1650849633916899.0
-2.0,-9.0,-12.0,-9.0,-9.0,-11.0,-3.0,-2.0,1650849633937845.0
-1.0,7.0,4.0,0.0,-10.0,-3.0,-1.0,0.0,1650849633937845.0
-1.0,-3.0,-1.0,0.0,2.0,-4.0,-2.0,0.0,1650849633939851.0
0.0,3.0,2.0,-1.0,4.0,2.0,1.0,0.0,1650849633939851.0
-1.0,1.0,2.0,1.0,0.0,-7.0,-1.0,0.0,1650849633951833.0
-1.0,-2.0,3.0,3.0,-1.0,6.0,0.0,-2.0,1650849633951833.0
1.0,1.0,0.0,-2.0,-1.0,-1.0,-1.0,-2.0,1650849633960781.0
-1.0,-1.0,-4.0,-3.0,-2.0,-1.0,0.0,1.0,1650849633960781.0
1.0,-5.0,-5.0,0.0,3.0,5.0,1.0,2.0,1650849633975781.0
0.0,-2.0,-2.0,3.0,0.0,0.0,2.0,1.0,1650849633975781.0
-2.0,2.0,2.0,-2.0,4.0,-2.0,-3.0,0.0,1650849633976766.0
0.0,5.0,2.0,1.0,0.0,-4.0,-1.0,-3.0,1650849633976766.0
-2.0,-5.0,-4.0,-6.0,-6.0,-22.0,-4.0,-3.0,1650849633997713.0
-2.0,-1.0,-4.0,0.0,-10.0,17.0,0.0,-1.0,1650849633997713.0
1.0,3.0,-2.0,4.0,11.0,20.0,5.0,0.0,1650849633999708.0
-1.0,2.0,5.0,2.0,8.0,8.0,0.0,0.0,1650849633999708.0
1.0,2.0,1.0,-1.0,6.0,-6.0,0.0,-1.0,1650849634011704.0
-1.0,-3.0,-1.0,-2.0,-14.0,-18.0,-3.0,-3.0,1650849634011704.0
1.0,-3.0,-2.0,-3.0,-10.0,-10.0,-5.0,-1.0,1650849634020652.0
0.0,-1.0,-5.0,0.0,3.0,2.0,1.0,0.0,1650849634020652.0
-1.0,0.0,-1.0,0.0,3.0,6.0,1.0,0.0,1650849634042660.0
-2.0,0.0,6.0,-3.0,1.0,-6.0,-3.0,0.0,1650849634042660.0
0.0,6.0,5.0,2.0,1.0,1.0,-1.0,1.0,1650849634044588.0
-1.0,-8.0,-3.0,0.0,-5.0,-3.0,2.0,1.0,1650849634044588.0
-1.0,14.0,0.0,0.0,1.0,0.0,0.0,-2.0,1650849634057620.0
3.0,-5.0,-4.0,2.0,3.0,8.0,3.0,2.0,1650849634057620.0
-3.0,-2.0,0.0,-3.0,-2.0,-8.0,-3.0,-3.0,1650849634059548.0
-3.0,1.0,0.0,2.0,-5.0,-10.0,-4.0,-2.0,1650849634059548.0
-1.0,-7.0,-4.0,-3.0,-1.0,-5.0,-2.0,0.0,1650849634071516.0
1.0,1.0,7.0,5.0,6.0,30.0,6.0,3.0,1650849634071516.0
0.0,-3.0,-4.0,-1.0,9.0,11.0,2.0,-2.0,1650849634080492.0
-3.0,15.0,3.0,-2.0,-15.0,-11.0,-3.0,-1.0,1650849634080492.0
0.0,-8.0,-2.0,6.0,18.0,7.0,2.0,1.0,1650849634095478.0
1.0,0.0,-1.0,-4.0,-6.0,-12.0,-3.0,-1.0,1650849634095478.0
0.0,-1.0,0.0,0.0,-8.0,-13.0,-3.0,-1.0,1650849634097478.0
0.0,-8.0,0.0,-3.0,-2.0,-1.0,1.0,0.0,1650849634097478.0
1.0,-3.0,-3.0,-5.0,-9.0,-3.0,-3.0,0.0,1650849634117416.0
-1.0,4.0,0.0,1.0,2.0,-4.0,-3.0,-2.0,1650849634117416.0
-1.0,-5.0,1.0,2.0,-4.0,2.0,1.0,2.0,1650849634124400.0
0.0,8.0,-1.0,-3.0,0.0,-2.0,0.0,-1.0,1650849634124400.0
0.0,-2.0,-1.0,4.0,11.0,9.0,1.0,0.0,1650849634131379.0
0.0,-2.0,-2.0,-6.0,4.0,-3.0,0.0,0.0,1650849634131379.0
-2.0,-3.0,-2.0,-1.0,-7.0,-11.0,-4.0,-1.0,1650849634140356.0
1.0,-2.0,9.0,3.0,-2.0,4.0,0.0,-2.0,1650849634140356.0
-2.0,-1.0,-3.0,-1.0,-4.0,-6.0,-3.0,0.0,1650849634162299.0
-1.0,-2.0,-2.0,1.0,7.0,1.0,0.0,-1.0,1650849634162299.0
-1.0,3.0,1.0,-5.0,2.0,8.0,1.0,1.0,1650849634170275.0
1.0,-4.0,-1.0,0.0,4.0,3.0,2.0,1.0,1650849634170275.0
-1.0,-1.0,0.0,-1.0,-14.0,-3.0,-2.0,-2.0,1650849634178257.0
0.0,-1.0,-2.0,-4.0,1.0,-13.0,-2.0,-3.0,1650849634178257.0
-2.0,2.0,-3.0,-5.0,-4.0,-19.0,-6.0,-2.0,1650849634179263.0
0.0,-7.0,-1.0,7.0,10.0,17.0,2.0,2.0,1650849634179263.0
1.0,0.0,2.0,2.0,-7.0,7.0,9.0,2.0,1650849634191223.0
1.0,1.0,0.0,0.0,4.0,0.0,1.0,1.0,1650849634191223.0
-2.0,1.0,1.0,1.0,4.0,-2.0,-2.0,0.0,1650849634200195.0
0.0,-3.0,-7.0,-4.0,1.0,-12.0,-4.0,-2.0,1650849634200195.0
-1.0,-1.0,-2.0,-1.0,-4.0,-3.0,-3.0,-3.0,1650849634215155.0
-1.0,2.0,1.0,1.0,-7.0,1.0,-1.0,0.0,1650849634215155.0
-1.0,-3.0,0.0,-6.0,-9.0,-7.0,-1.0,-2.0,1650849634217150.0
-2.0,-3.0,-8.0,-2.0,0.0,0.0,0.0,-1.0,1650849634217150.0
1.0,-5.0,1.0,5.0,2.0,-3.0,-1.0,0.0,1650849634238094.0
1.0,3.0,3.0,3.0,13.0,28.0,6.0,1.0,1650849634238094.0
0.0,-1.0,2.0,0.0,-4.0,-8.0,-2.0,-1.0,1650849634239092.0
1.0,0.0,5.0,-2.0,-2.0,-1.0,-1.0,-1.0,1650849634239092.0
-1.0,2.0,-8.0,-4.0,-3.0,-2.0,-1.0,-1.0,1650849634260039.0
-2.0,-5.0,0.0,-2.0,-5.0,-10.0,-3.0,0.0,1650849634260039.0
-2.0,-7.0,-2.0,2.0,-2.0,2.0,1.0,1.0,1650849634262030.0
-1.0,18.0,4.0,-5.0,-2.0,-5.0,-2.0,-1.0,1650849634262030.0
-2.0,-8.0,-9.0,-1.0,2.0,-6.0,-4.0,-2.0,1650849634275806.0
0.0,-6.0,2.0,1.0,-1.0,11.0,2.0,0.0,1650849634275806.0
1.0,9.0,3.0,6.0,-8.0,-8.0,0.0,1.0,1650849634276813.0
0.0,-6.0,-1.0,5.0,26.0,34.0,10.0,3.0,1650849634276813.0
-2.0,2.0,3.0,-9.0,-7.0,-10.0,-3.0,-2.0,1650849634297750.0
-1.0,1.0,-6.0,-2.0,-5.0,-10.0,-4.0,-3.0,1650849634297750.0
-2.0,-8.0,-5.0,0.0,-3.0,-5.0,0.0,-1.0,1650849634299744.0
0.0,2.0,8.0,5.0,-6.0,-5.0,-2.0,0.0,1650849634299744.0
-1.0,3.0,-1.0,1.0,1.0,5.0,0.0,0.0,1650849634320718.0
0.0,-4.0,-1.0,-5.0,3.0,-6.0,-1.0,-1.0,1650849634320718.0
0.0,3.0,-3.0,-1.0,0.0,1.0,-1.0,-1.0,1650849634321687.0
-1.0,-5.0,-8.0,-8.0,-1.0,-2.0,0.0,0.0,1650849634321687.0
-1.0,0.0,3.0,8.0,7.0,9.0,2.0,0.0,1650849634335676.0
0.0,4.0,11.0,5.0,-4.0,-6.0,-2.0,-1.0,1650849634335676.0
-1.0,-3.0,-11.0,0.0,-2.0,-10.0,-2.0,-1.0,1650849634336647.0
1.0,-1.0,-1.0,-4.0,3.0,8.0,0.0,-1.0,1650849634336647.0
0.0,1.0,-5.0,-2.0,1.0,6.0,1.0,2.0,1650849634357591.0
0.0,1.0,6.0,0.0,-3.0,-7.0,1.0,0.0,1650849634357591.0
2.0,3.0,-5.0,-4.0,4.0,8.0,1.0,1.0,1650849634359585.0
0.0,-5.0,-4.0,-2.0,-12.0,-19.0,-4.0,0.0,1650849634359585.0
-1.0,-1.0,3.0,-5.0,4.0,3.0,-1.0,-1.0,1650849634380694.0
1.0,4.0,7.0,12.0,6.0,8.0,3.0,1.0,1650849634380694.0
0.0,1.0,3.0,1.0,1.0,-1.0,0.0,0.0,1650849634381692.0
-5.0,-5.0,-13.0,-2.0,-6.0,-4.0,-3.0,-1.0,1650849634381692.0
-1.0,-1.0,0.0,-13.0,-5.0,-4.0,-2.0,1.0,1650849634394828.0
-1.0,-2.0,-16.0,-7.0,-13.0,-16.0,-4.0,-1.0,1650849634394828.0
0.0,-1.0,19.0,5.0,4.0,17.0,2.0,0.0,1650849634401808.0
2.0,-3.0,-14.0,-1.0,-3.0,0.0,2.0,1.0,1650849634401808.0
1.0,2.0,0.0,10.0,24.0,12.0,3.0,2.0,1650849634417793.0
-1.0,-2.0,-1.0,-2.0,4.0,1.0,0.0,1.0,1650849634417793.0
-1.0,4.0,-1.0,3.0,-4.0,-8.0,-3.0,-2.0,1650849634419761.0
-3.0,-3.0,3.0,-2.0,-5.0,-7.0,-3.0,-2.0,1650849634419761.0
-2.0,-2.0,1.0,-7.0,-17.0,-7.0,-1.0,-1.0,1650849634440705.0
-2.0,-3.0,-1.0,0.0,2.0,-13.0,-5.0,-2.0,1650849634440705.0
-1.0,0.0,2.0,2.0,1.0,16.0,4.0,0.0,1650849634441702.0
1.0,5.0,14.0,10.0,4.0,16.0,2.0,1.0,1650849634441702.0
-1.0,0.0,0.0,1.0,-3.0,-1.0,2.0,2.0,1650849634454696.0
-4.0,-9.0,-23.0,-14.0,-8.0,-10.0,-4.0,-4.0,1650849634454696.0
-1.0,-2.0,-2.0,-9.0,-1.0,-7.0,-3.0,0.0,1650849634461716.0
1.0,-1.0,-2.0,8.0,2.0,-5.0,-1.0,0.0,1650849634461716.0
-1.0,1.0,1.0,3.0,5.0,3.0,-1.0,-1.0,1650849634477845.0
1.0,0.0,5.0,-3.0,-7.0,2.0,-2.0,-1.0,1650849634477845.0
-1.0,-3.0,-4.0,-9.0,-10.0,-10.0,-1.0,0.0,1650849634479773.0
0.0,-1.0,0.0,-3.0,-2.0,1.0,0.0,0.0,1650849634479773.0
-1.0,0.0,0.0,9.0,12.0,0.0,0.0,0.0,1650849634499923.0
1.0,2.0,2.0,3.0,7.0,14.0,2.0,-1.0,1650849634499923.0
0.0,-1.0,-3.0,-8.0,-4.0,-4.0,-1.0,-1.0,1650849634501886.0
0.0,-2.0,2.0,-3.0,-2.0,-2.0,0.0,0.0,1650849634501886.0
0.0,0.0,-1.0,-7.0,-15.0,-10.0,0.0,-2.0,1650849634514879.0
-1.0,2.0,5.0,4.0,6.0,7.0,1.0,1.0,1650849634514879.0
-1.0,-3.0,-2.0,5.0,6.0,-1.0,1.0,0.0,1650849634521860.0
-3.0,0.0,-3.0,-6.0,-11.0,-28.0,-7.0,-2.0,1650849634521860.0
1.0,-2.0,0.0,-1.0,3.0,46.0,8.0,1.0,1650849634537817.0
0.0,-1.0,5.0,3.0,-2.0,-6.0,-1.0,-1.0,1650849634537817.0
0.0,1.0,-8.0,-4.0,-6.0,-1.0,-2.0,-1.0,1650849634539786.0
-1.0,-2.0,1.0,1.0,10.0,-3.0,-2.0,0.0,1650849634539786.0
0.0,-3.0,5.0,3.0,-11.0,-21.0,-5.0,-3.0,1650849634560735.0
1.0,2.0,-3.0,-4.0,4.0,9.0,4.0,1.0,1650849634560735.0
1.0,0.0,10.0,9.0,4.0,8.0,3.0,-1.0,1650849634561726.0
-1.0,-1.0,-1.0,-4.0,0.0,-1.0,-2.0,-1.0,1650849634561726.0
-1.0,-1.0,-8.0,-4.0,0.0,-4.0,-1.0,0.0,1650849634575223.0
1.0,-1.0,4.0,-2.0,-9.0,-4.0,-1.0,-1.0,1650849634575223.0
-2.0,-3.0,-11.0,-1.0,-3.0,-6.0,-2.0,-2.0,1650849634581236.0
1.0,6.0,6.0,7.0,-1.0,8.0,1.0,-1.0,1650849634581236.0
0.0,0.0,4.0,1.0,5.0,3.0,-1.0,1.0,1650849634598292.0
0.0,-3.0,0.0,-3.0,1.0,-5.0,-1.0,1.0,1650849634598292.0
-1.0,0.0,-5.0,-3.0,-1.0,0.0,0.0,-1.0,1650849634599261.0
0.0,-3.0,3.0,-1.0,-4.0,1.0,0.0,-1.0,1650849634599261.0
-1.0,-2.0,-3.0,-4.0,-10.0,-18.0,-6.0,-2.0,1650849634620236.0
-2.0,0.0,-2.0,8.0,2.0,4.0,-1.0,-1.0,1650849634620236.0
1.0,-1.0,10.0,4.0,5.0,-10.0,-2.0,2.0,1650849634622200.0
-1.0,-3.0,-14.0,-2.0,8.0,50.0,10.0,2.0,1650849634622200.0
1.0,1.0,10.0,8.0,3.0,-5.0,-2.0,0.0,1650849634634168.0
-2.0,-1.0,-7.0,-7.0,-8.0,-10.0,-2.0,-1.0,1650849634634168.0
-1.0,0.0,-3.0,-1.0,1.0,-9.0,-2.0,-1.0,1650849634641176.0
-1.0,-3.0,0.0,-4.0,-9.0,-16.0,-6.0,-3.0,1650849634641176.0
-1.0,-2.0,-5.0,-1.0,-3.0,0.0,1.0,-2.0,1650849634658103.0
0.0,4.0,-2.0,2.0,3.0,2.0,2.0,-1.0,1650849634658103.0
0.0,-2.0,0.0,0.0,-2.0,2.0,-2.0,0.0,1650849634659101.0
1.0,-1.0,4.0,0.0,6.0,0.0,-1.0,0.0,1650849634659101.0
1.0,-3.0,0.0,-3.0,-11.0,-1.0,-1.0,-2.0,1650849634680044.0
0.0,0.0,2.0,-3.0,1.0,-4.0,-2.0,0.0,1650849634680044.0
0.0,2.0,-2.0,-5.0,-1.0,3.0,2.0,-1.0,1650849634682040.0
0.0,0.0,-5.0,0.0,-2.0,-6.0,-1.0,1.0,1650849634682040.0
-1.0,2.0,4.0,3.0,1.0,-3.0,2.0,0.0,1650849634695104.0
0.0,-1.0,-4.0,-9.0,-10.0,-9.0,-2.0,-2.0,1650849634695104.0
-1.0,-5.0,-4.0,0.0,5.0,30.0,5.0,0.0,1650849634701118.0
0.0,0.0,7.0,5.0,1.0,-9.0,0.0,-1.0,1650849634701118.0
0.0,0.0,-4.0,-3.0,8.0,3.0,0.0,0.0,1650849634718073.0
-2.0,-2.0,-5.0,-3.0,-5.0,-10.0,-2.0,-1.0,1650849634718073.0
-1.0,-2.0,-1.0,-5.0,-9.0,-4.0,-1.0,-1.0,1650849634719042.0
-2.0,1.0,1.0,1.0,5.0,3.0,-1.0,1.0,1650849634719042.0
1.0,-1.0,-3.0,-1.0,-2.0,-7.0,-1.0,-1.0,1650849634739986.0
0.0,1.0,2.0,4.0,8.0,12.0,1.0,1.0,1650849634739986.0
-1.0,1.0,0.0,-1.0,-4.0,12.0,0.0,-3.0,1650849634741981.0
-2.0,-6.0,-12.0,-9.0,-3.0,-5.0,-1.0,-1.0,1650849634741981.0
-3.0,-3.0,-4.0,-2.0,-4.0,-12.0,-2.0,-3.0,1650849634753975.0
-2.0,1.0,3.0,-3.0,-7.0,-4.0,0.0,2.0,1650849634753975.0
1.0,2.0,12.0,14.0,9.0,4.0,1.0,1.0,1650849634762926.0
0.0,1.0,-2.0,-2.0,2.0,-5.0,-2.0,0.0,1650849634762926.0
1.0,1.0,1.0,0.0,0.0,9.0,1.0,0.0,1650849634777951.0
-2.0,-8.0,-11.0,-12.0,-7.0,-6.0,-4.0,-4.0,1650849634777951.0
0.0,4.0,11.0,8.0,1.0,-11.0,-2.0,-1.0,1650849634779883.0
0.0,0.0,-1.0,-2.0,-6.0,1.0,1.0,-2.0,1650849634779883.0
0.0,0.0,-3.0,0.0,-2.0,-12.0,-2.0,2.0,1650849634799928.0
-2.0,1.0,3.0,9.0,8.0,31.0,7.0,2.0,1650849634799928.0
2.0,1.0,-1.0,-3.0,5.0,-4.0,0.0,0.0,1650849634801918.0
1.0,-2.0,2.0,-1.0,1.0,-3.0,-1.0,-1.0,1650849634801918.0
-2.0,-1.0,-5.0,-5.0,-5.0,-3.0,-2.0,-2.0,1650849634814058.0
-2.0,0.0,0.0,-1.0,-9.0,-14.0,-2.0,-2.0,1650849634814058.0
-2.0,-1.0,-7.0,-1.0,-3.0,-3.0,-3.0,-1.0,1650849634823034.0
-2.0,0.0,1.0,-1.0,2.0,-1.0,-2.0,0.0,1650849634823034.0
0.0,-1.0,-3.0,2.0,-3.0,2.0,1.0,2.0,1650849634838018.0
3.0,1.0,5.0,10.0,-2.0,8.0,2.0,1.0,1650849634838018.0
1.0,0.0,1.0,-8.0,9.0,0.0,0.0,-2.0,1650849634839009.0
0.0,-1.0,-3.0,-5.0,-3.0,-5.0,-1.0,-2.0,1650849634839009.0
-1.0,-1.0,-6.0,0.0,2.0,3.0,-1.0,-1.0,1650849634860003.0
0.0,0.0,1.0,3.0,1.0,-7.0,1.0,0.0,1650849634860003.0
-1.0,-3.0,-2.0,-2.0,-7.0,-2.0,-1.0,2.0,1650849634861931.0
-1.0,2.0,8.0,5.0,3.0,-6.0,-1.0,1.0,1650849634861931.0
-1.0,0.0,-1.0,-1.0,3.0,14.0,0.0,-2.0,1650849634873926.0
-1.0,-6.0,-5.0,-5.0,1.0,-1.0,2.0,0.0,1650849634873926.0
1.0,5.0,1.0,-1.0,-5.0,-9.0,-3.0,-1.0,1650849634882883.0
0.0,-2.0,5.0,5.0,-1.0,1.0,-2.0,-1.0,1650849634882883.0
1.0,5.0,3.0,2.0,1.0,-6.0,-2.0,-1.0,1650849634898002.0
-2.0,-7.0,-11.0,-12.0,-3.0,-8.0,-4.0,-3.0,1650849634898002.0
-1.0,0.0,-1.0,1.0,0.0,3.0,-1.0,1.0,1650849634899000.0
-4.0,-4.0,0.0,-2.0,-7.0,-12.0,-2.0,-1.0,1650849634899000.0
-2.0,2.0,3.0,2.0,6.0,19.0,3.0,0.0,1650849634920083.0
1.0,3.0,6.0,4.0,5.0,0.0,0.0,-1.0,1650849634920083.0
-2.0,-2.0,-9.0,-9.0,-12.0,-11.0,1.0,-2.0,1650849634922051.0
2.0,1.0,2.0,9.0,9.0,10.0,2.0,0.0,1650849634922051.0
-1.0,-1.0,5.0,-7.0,5.0,-3.0,-1.0,2.0,1650849634934045.0
-2.0,2.0,-6.0,-1.0,-3.0,-2.0,-2.0,-1.0,1650849634934045.0
-1.0,-1.0,8.0,3.0,2.0,0.0,-1.0,-1.0,1650849634943002.0
0.0,1.0,-4.0,12.0,-5.0,-7.0,0.0,0.0,1650849634943002.0
-2.0,-6.0,2.0,-10.0,-3.0,-2.0,-1.0,-1.0,1650849634957954.0
1.0,0.0,-7.0,1.0,-3.0,-4.0,-1.0,0.0,1650849634957954.0
-2.0,0.0,-8.0,-8.0,-5.0,4.0,0.0,0.0,1650849634958952.0
-1.0,0.0,-1.0,6.0,9.0,10.0,4.0,0.0,1650849634958952.0
-3.0,-3.0,-5.0,-17.0,0.0,-2.0,-2.0,-3.0,1650849634980263.0
3.0,0.0,2.0,5.0,-2.0,-6.0,-3.0,-1.0,1650849634980263.0
1.0,-1.0,12.0,6.0,-7.0,-9.0,-2.0,-1.0,1650849634982258.0
2.0,1.0,-5.0,-1.0,-10.0,3.0,0.0,-1.0,1650849634982258.0
-3.0,-3.0,-6.0,7.0,7.0,3.0,0.0,0.0,1650849634994290.0
8.0,0.0,-2.0,-12.0,-2.0,-6.0,-2.0,-1.0,1650849634994290.0
-36.0,-3.0,-2.0,2.0,-2.0,-5.0,-2.0,-1.0,1650849635003222.0
2.0,-3.0,-4.0,-4.0,4.0,-1.0,0.0,0.0,1650849635003222.0
-1.0,-1.0,7.0,6.0,-5.0,-11.0,-4.0,-6.0,1650849635018188.0
-10.0,0.0,-3.0,0.0,8.0,26.0,-4.0,-7.0,1650849635018188.0
10.0,6.0,2.0,5.0,1.0,-1.0,1.0,7.0,1650849635019172.0
6.0,-10.0,7.0,1.0,1.0,5.0,24.0,21.0,1650849635019172.0
-4.0,-2.0,-3.0,0.0,-7.0,-16.0,-2.0,2.0,1650849635041116.0
-10.0,-6.0,1.0,1.0,0.0,-5.0,-15.0,-19.0,1650849635041116.0
20.0,17.0,3.0,-4.0,0.0,-4.0,-2.0,4.0,1650849635046107.0
-13.0,-6.0,-8.0,-12.0,0.0,1.0,-3.0,-14.0,1650849635046107.0
-16.0,3.0,6.0,-2.0,-10.0,-2.0,6.0,-29.0,1650849635054092.0
35.0,-1.0,-5.0,5.0,3.0,-11.0,18.0,51.0,1650849635054092.0
-26.0,-13.0,-7.0,-11.0,-3.0,1.0,-9.0,29.0,1650849635063047.0
0.0,-1.0,3.0,2.0,-4.0,-7.0,-2.0,-4.0,1650849635063047.0
-10.0,-7.0,-4.0,-1.0,0.0,5.0,2.0,-5.0,1650849635078069.0
-6.0,-1.0,1.0,2.0,2.0,9.0,-5.0,-28.0,1650849635078069.0
-39.0,-6.0,-4.0,3.0,3.0,-12.0,-5.0,-12.0,1650849635079029.0
-21.0,4.0,10.0,4.0,-2.0,-3.0,-21.0,-19.0,1650849635079029.0
23.0,13.0,0.0,-2.0,-7.0,18.0,2.0,-4.0,1650849635099970.0
13.0,10.0,2.0,2.0,-3.0,-9.0,25.0,30.0,1650849635099970.0
24.0,-6.0,-4.0,-3.0,16.0,13.0,3.0,-4.0,1650849635101937.0
29.0,-4.0,3.0,4.0,3.0,15.0,4.0,5.0,1650849635101937.0
-62.0,-8.0,-5.0,-2.0,-3.0,-10.0,-19.0,-18.0,1650849635113933.0
10.0,8.0,-2.0,-6.0,-12.0,-15.0,-16.0,-27.0,1650849635113933.0
24.0,7.0,8.0,2.0,-9.0,-14.0,18.0,33.0,1650849635122882.0
23.0,16.0,-4.0,-9.0,-3.0,-3.0,-11.0,-4.0,1650849635122882.0
-14.0,-10.0,-5.0,-2.0,4.0,-6.0,-4.0,15.0,1650849635137869.0
-6.0,-5.0,6.0,9.0,8.0,8.0,-4.0,-6.0,1650849635137869.0
-24.0,-9.0,-8.0,-10.0,-11.0,7.0,-5.0,-27.0,1650849635139836.0
24.0,1.0,-4.0,-2.0,5.0,-1.0,4.0,12.0,1650849635139836.0
5.0,-4.0,1.0,8.0,4.0,3.0,3.0,8.0,1650849635160358.0
-31.0,-11.0,2.0,-9.0,-4.0,-1.0,-4.0,-2.0,1650849635160358.0
25.0,24.0,4.0,7.0,-6.0,-5.0,-2.0,-17.0,1650849635162315.0
2.0,-5.0,1.0,0.0,2.0,2.0,5.0,10.0,1650849635162315.0
21.0,4.0,-16.0,2.0,8.0,4.0,4.0,5.0,1650849635183256.0
-4.0,-10.0,7.0,-6.0,-2.0,2.0,0.0,2.0,1650849635183256.0
13.0,-3.0,-1.0,10.0,1.0,6.0,1.0,0.0,1650849635184226.0
-11.0,0.0,3.0,-12.0,-10.0,-9.0,-3.0,-2.0,1650849635184226.0
14.0,7.0,8.0,1.0,0.0,-5.0,-2.0,0.0,1650849635197313.0
10.0,4.0,1.0,5.0,2.0,1.0,2.0,6.0,1650849635197313.0
15.0,-5.0,-2.0,-2.0,5.0,9.0,2.0,-4.0,1650849635204268.0
-53.0,-6.0,-9.0,2.0,-2.0,-6.0,-7.0,-7.0,1650849635204268.0
11.0,-3.0,2.0,-1.0,-1.0,-1.0,6.0,-2.0,1650849635219890.0
-3.0,8.0,-3.0,-7.0,-1.0,7.0,7.0,14.0,1650849635219890.0
-51.0,-16.0,-9.0,2.0,3.0,-2.0,-5.0,-2.0,1650849635221885.0
7.0,2.0,3.0,-10.0,-3.0,-1.0,-7.0,-9.0,1650849635221885.0
16.0,4.0,16.0,16.0,-1.0,2.0,5.0,8.0,1650849635243280.0
-20.0,-10.0,-2.0,6.0,-1.0,-2.0,0.0,-4.0,1650849635243280.0
25.0,2.0,3.0,1.0,8.0,4.0,-2.0,-8.0,1650849635244529.0
-12.0,0.0,-14.0,-20.0,-6.0,-5.0,-13.0,-3.0,1650849635244529.0
-19.0,-9.0,-7.0,-4.0,-11.0,-2.0,12.0,24.0,1650849635257508.0
-1.0,4.0,4.0,4.0,12.0,9.0,11.0,8.0,1650849635257508.0
-50.0,1.0,5.0,3.0,-1.0,2.0,-8.0,-29.0,1650849635259490.0
-4.0,4.0,7.0,-1.0,-3.0,-7.0,8.0,20.0,1650849635259490.0
25.0,-3.0,-17.0,-14.0,-6.0,-7.0,-16.0,-3.0,1650849635280432.0
-2.0,-4.0,6.0,10.0,1.0,-1.0,2.0,-4.0,1650849635280432.0
1.0,1.0,-9.0,-10.0,0.0,5.0,6.0,15.0,1650849635282474.0
14.0,-6.0,2.0,1.0,-2.0,0.0,-2.0,-15.0,1650849635282474.0
2.0,5.0,0.0,10.0,10.0,6.0,5.0,3.0,1650849635302502.0
-4.0,-3.0,18.0,2.0,-6.0,-7.0,-2.0,0.0,1650849635302502.0
17.0,5.0,-18.0,-10.0,0.0,0.0,-2.0,-4.0,1650849635304469.0
-4.0,-5.0,-5.0,3.0,0.0,-10.0,-7.0,-9.0,1650849635304469.0
3.0,1.0,9.0,8.0,9.0,21.0,1.0,0.0,1650849635317472.0
-5.0,1.0,-4.0,-3.0,-8.0,-6.0,-8.0,-11.0,1650849635317472.0
9.0,-5.0,6.0,-8.0,-7.0,-7.0,2.0,-1.0,1650849635319428.0
-11.0,-3.0,-18.0,-2.0,4.0,8.0,13.0,14.0,1650849635319428.0
-6.0,-1.0,11.0,-1.0,-5.0,-6.0,-3.0,-6.0,1650849635339404.0
10.0,3.0,2.0,8.0,-1.0,2.0,-7.0,-6.0,1650849635339404.0
18.0,-3.0,-3.0,6.0,11.0,0.0,-2.0,2.0,1650849635341869.0
-3.0,5.0,10.0,-1.0,-7.0,-1.0,4.0,3.0,1650849635341869.0
2.0,3.0,8.0,12.0,1.0,-3.0,-7.0,-7.0,1650849635362880.0
-1.0,-14.0,-12.0,-7.0,-8.0,-3.0,6.0,-1.0,1650849635362880.0
6.0,1.0,6.0,0.0,5.0,-1.0,-2.0,3.0,1650849635364806.0
1.0,-5.0,-7.0,-2.0,4.0,10.0,3.0,-7.0,1650849635364806.0
4.0,-3.0,-12.0,-14.0,-1.0,-3.0,1.0,7.0,1650849635377773.0
-1.0,4.0,0.0,-3.0,-8.0,-5.0,0.0,-4.0,1650849635377773.0
-12.0,-9.0,-5.0,5.0,-1.0,-1.0,-5.0,-3.0,1650849635383784.0
4.0,4.0,3.0,15.0,11.0,2.0,2.0,-1.0,1650849635383784.0
-48.0,-8.0,10.0,-8.0,-3.0,-1.0,-2.0,0.0,1650849635400711.0
43.0,11.0,-13.0,-3.0,-1.0,1.0,0.0,-8.0,1650849635400711.0
29.0,-2.0,8.0,-7.0,-6.0,-11.0,-8.0,13.0,1650849635401709.0
-12.0,-4.0,-3.0,1.0,-14.0,3.0,2.0,-10.0,1650849635401709.0
28.0,12.0,-5.0,-2.0,14.0,7.0,13.0,18.0,1650849635421829.0
-13.0,-10.0,-12.0,-3.0,4.0,0.0,2.0,6.0,1650849635421829.0
-6.0,0.0,11.0,6.0,-5.0,-1.0,-5.0,-1.0,1650849635430805.0
7.0,5.0,8.0,6.0,-1.0,-6.0,-1.0,-3.0,1650849635430805.0
10.0,-2.0,-2.0,-6.0,-9.0,-3.0,9.0,-4.0,1650849635436817.0
1.0,-1.0,-17.0,-8.0,2.0,0.0,-5.0,1.0,1650849635436817.0
7.0,13.0,15.0,3.0,3.0,3.0,0.0,3.0,1650849635444492.0
30.0,-3.0,-4.0,4.0,1.0,-1.0,-3.0,1.0,1650849635444492.0
-33.0,-4.0,-1.0,-10.0,-9.0,2.0,-3.0,-12.0,1650849635460451.0
19.0,10.0,8.0,3.0,8.0,-2.0,-6.0,1.0,1650849635460451.0
-7.0,-2.0,0.0,2.0,-4.0,-1.0,0.0,-9.0,1650849635461477.0
2.0,1.0,-17.0,-4.0,4.0,3.0,10.0,8.0,1650849635461477.0
9.0,2.0,6.0,3.0,-5.0,-7.0,-6.0,0.0,1650849635482420.0
-5.0,-5.0,4.0,-2.0,3.0,-2.0,2.0,5.0,1650849635482420.0
-2.0,5.0,-18.0,-12.0,-8.0,-3.0,-5.0,-6.0,1650849635484399.0
-10.0,-5.0,5.0,-1.0,0.0,6.0,-5.0,-6.0,1650849635484399.0
21.0,0.0,-6.0,-3.0,-8.0,-9.0,-2.0,-2.0,1650849635497468.0
-12.0,3.0,11.0,13.0,3.0,-6.0,-17.0,-7.0,1650849635497468.0
-17.0,-7.0,2.0,-4.0,7.0,18.0,30.0,13.0,1650849635503479.0
1.0,0.0,0.0,-5.0,2.0,-13.0,-9.0,1.0,1650849635503479.0
-3.0,-4.0,0.0,-4.0,-8.0,19.0,0.0,-1.0,1650849635520419.0
24.0,0.0,-4.0,-12.0,-11.0,-7.0,-10.0,-7.0,1650849635520419.0
-28.0,-5.0,1.0,12.0,0.0,-7.0,-4.0,-5.0,1650849635522400.0
10.0,-1.0,1.0,-8.0,-2.0,2.0,3.0,0.0,1650849635522400.0
-25.0,3.0,-6.0,4.0,3.0,-9.0,-3.0,-8.0,1650849635543393.0
6.0,-1.0,5.0,0.0,-6.0,-6.0,1.0,3.0,1650849635543393.0
19.0,-4.0,-10.0,-13.0,-2.0,3.0,0.0,-2.0,1650849635544397.0
0.0,5.0,8.0,4.0,-5.0,-4.0,-10.0,-3.0,1650849635544397.0
11.0,4.0,2.0,8.0,6.0,-1.0,0.0,-3.0,1650849635557385.0
-25.0,-6.0,-8.0,-7.0,-3.0,13.0,5.0,-4.0,1650849635557385.0
2.0,-3.0,-9.0,2.0,2.0,1.0,3.0,9.0,1650849635564409.0
-13.0,0.0,6.0,1.0,0.0,-3.0,0.0,-1.0,1650849635564409.0
11.0,-8.0,-17.0,-9.0,-5.0,-9.0,-6.0,-6.0,1650849635580296.0
-39.0,1.0,2.0,7.0,10.0,9.0,5.0,1.0,1650849635580296.0
15.0,-1.0,2.0,2.0,-3.0,0.0,-3.0,-1.0,1650849635582291.0
17.0,0.0,-7.0,1.0,-1.0,3.0,-1.0,0.0,1650849635582291.0
-10.0,-5.0,3.0,2.0,4.0,-5.0,0.0,3.0,1650849635603254.0
-8.0,-3.0,-3.0,-6.0,0.0,0.0,4.0,-2.0,1650849635603254.0
7.0,-4.0,3.0,4.0,-1.0,-4.0,-7.0,-5.0,1650849635604232.0
-5.0,-5.0,-9.0,3.0,0.0,2.0,4.0,-1.0,1650849635604232.0
2.0,3.0,0.0,-10.0,-3.0,-3.0,-8.0,-2.0,1650849635617267.0
0.0,-1.0,6.0,-2.0,-4.0,-7.0,6.0,5.0,1650849635617267.0
3.0,-2.0,1.0,0.0,-2.0,5.0,5.0,0.0,1650849635624207.0
-7.0,-8.0,-2.0,8.0,9.0,10.0,-9.0,-4.0,1650849635624207.0
0.0,2.0,2.0,5.0,-1.0,-3.0,10.0,4.0,1650849635640136.0
3.0,1.0,-1.0,2.0,2.0,3.0,-4.0,0.0,1650849635640136.0
-5.0,-2.0,-7.0,-11.0,-9.0,-10.0,-5.0,-9.0,1650849635642140.0
42.0,10.0,3.0,-3.0,-2.0,1.0,1.0,10.0,1650849635642140.0
-16.0,-7.0,-2.0,1.0,4.0,0.0,-2.0,-1.0,1650849635662145.0
8.0,3.0,-2.0,-1.0,-3.0,-5.0,-1.0,-4.0,1650849635662145.0
-11.0,1.0,-1.0,-2.0,-7.0,-3.0,2.0,3.0,1650849635670155.0
4.0,-2.0,-5.0,-2.0,7.0,0.0,-4.0,-4.0,1650849635670155.0
10.0,-3.0,-3.0,1.0,5.0,6.0,0.0,-1.0,1650849635676061.0
23.0,0.0,5.0,5.0,-6.0,-5.0,1.0,5.0,1650849635676061.0
-13.0,5.0,8.0,3.0,6.0,-10.0,-5.0,-3.0,1650849635685016.0
-16.0,1.0,-17.0,-8.0,-7.0,30.0,10.0,3.0,1650849635685016.0
9.0,0.0,23.0,8.0,2.0,-12.0,0.0,1.0,1650849635699057.0
-5.0,-2.0,-12.0,-7.0,0.0,4.0,-3.0,-3.0,1650849635699057.0
9.0,-4.0,-1.0,2.0,1.0,-2.0,-3.0,0.0,1650849635708034.0
-13.0,6.0,3.0,-4.0,-12.0,-28.0,-3.0,-4.0,1650849635708034.0
7.0,2.0,-7.0,-3.0,1.0,13.0,-3.0,-1.0,1650849635723188.0
-1.0,3.0,18.0,6.0,4.0,14.0,7.0,1.0,1650849635723188.0
2.0,-2.0,-9.0,0.0,-3.0,0.0,-4.0,-3.0,1650849635724164.0
-6.0,1.0,4.0,2.0,5.0,-5.0,2.0,0.0,1650849635724164.0
1.0,-5.0,-11.0,-3.0,-1.0,-4.0,-6.0,-2.0,1650849635736132.0
6.0,-2.0,-2.0,-3.0,-4.0,-8.0,-2.0,1.0,1650849635736132.0
-1.0,3.0,3.0,-2.0,-3.0,2.0,2.0,-1.0,1650849635745258.0
6.0,-4.0,-1.0,-3.0,-2.0,-7.0,-5.0,-3.0,1650849635745258.0
0.0,4.0,2.0,2.0,-6.0,-1.0,4.0,1.0,1650849635760104.0
-8.0,-4.0,3.0,1.0,0.0,-6.0,-4.0,-1.0,1650849635760104.0
3.0,-2.0,-8.0,-1.0,-2.0,8.0,1.0,1.0,1650849635762099.0
1.0,1.0,0.0,1.0,7.0,8.0,2.0,3.0,1650849635762099.0
5.0,1.0,1.0,2.0,2.0,-3.0,-3.0,0.0,1650849635783042.0
-9.0,-1.0,-11.0,-9.0,3.0,-8.0,-1.0,-3.0,1650849635783042.0
0.0,-6.0,-3.0,-4.0,-5.0,8.0,-4.0,-2.0,1650849635785038.0
-13.0,1.0,13.0,11.0,1.0,-14.0,-6.0,-3.0,1650849635785038.0
2.0,3.0,0.0,0.0,0.0,31.0,9.0,3.0,1650849635797100.0
-2.0,1.0,-2.0,1.0,3.0,-5.0,3.0,6.0,1650849635797100.0
-1.0,0.0,-1.0,-1.0,8.0,-2.0,-4.0,-3.0,1650849635805106.0
-9.0,-3.0,-6.0,-9.0,-4.0,-7.0,-1.0,-1.0,1650849635805106.0
1.0,-3.0,1.0,-3.0,-6.0,-10.0,-5.0,-1.0,1650849635820209.0
0.0,2.0,-3.0,-5.0,-14.0,0.0,-5.0,-4.0,1650849635820209.0
2.0,0.0,6.0,7.0,4.0,-9.0,3.0,0.0,1650849635828188.0
-5.0,2.0,5.0,2.0,11.0,19.0,7.0,3.0,1650849635828188.0
1.0,-5.0,-5.0,-1.0,-2.0,-9.0,-5.0,-3.0,1650849635843163.0
-6.0,-1.0,-2.0,-7.0,-3.0,3.0,-2.0,-2.0,1650849635843163.0
-1.0,0.0,0.0,-3.0,-8.0,-11.0,-3.0,1.0,1650849635844150.0
-2.0,-3.0,-2.0,-2.0,-9.0,-6.0,-5.0,-3.0,1650849635844150.0
1.0,1.0,2.0,4.0,7.0,9.0,9.0,3.0,1650849635856112.0
-1.0,-1.0,1.0,3.0,0.0,-7.0,-1.0,-2.0,1650849635856112.0
0.0,-1.0,1.0,3.0,4.0,16.0,4.0,1.0,1650849635865089.0
-1.0,-4.0,-4.0,-5.0,0.0,8.0,-1.0,0.0,1650849635865089.0
1.0,-1.0,-3.0,-6.0,-3.0,-11.0,-2.0,1.0,1650849635880053.0
-4.0,2.0,3.0,1.0,0.0,-3.0,-4.0,-1.0,1650849635880053.0
-3.0,-1.0,-5.0,-3.0,-3.0,-9.0,-7.0,-4.0,1650849635882044.0
-3.0,-2.0,-2.0,0.0,-1.0,6.0,8.0,-1.0,1650849635882044.0
2.0,2.0,-2.0,-2.0,3.0,-2.0,3.0,6.0,1650849635902987.0
-2.0,-2.0,-3.0,-3.0,-7.0,3.0,4.0,-3.0,1650849635902987.0
4.0,0.0,-1.0,5.0,9.0,1.0,-2.0,3.0,1650849635903985.0
0.0,1.0,1.0,-2.0,-3.0,-2.0,-2.0,1.0,1650849635903985.0
1.0,2.0,2.0,1.0,-10.0,-2.0,-3.0,-2.0,1650849635916951.0
1.0,1.0,2.0,7.0,20.0,2.0,0.0,-1.0,1650849635916951.0
-1.0,-3.0,-4.0,-7.0,-10.0,2.0,2.0,-1.0,1650849635925934.0
-3.0,0.0,-4.0,-6.0,-2.0,-6.0,-1.0,-1.0,1650849635925934.0
1.0,-1.0,-3.0,8.0,0.0,-13.0,-5.0,-2.0,1650849635939888.0
0.0,-2.0,7.0,3.0,0.0,21.0,3.0,1.0,1650849635939888.0
1.0,2.0,2.0,3.0,10.0,10.0,1.0,0.0,1650849635941884.0
-1.0,-1.0,0.0,-4.0,-3.0,-11.0,1.0,1.0,1650849635941884.0
-1.0,-4.0,-5.0,-12.0,-13.0,-4.0,-4.0,-3.0,1650849635962829.0
0.0,1.0,-3.0,11.0,13.0,5.0,1.0,0.0,1650849635962829.0
1.0,-2.0,-2.0,-3.0,-13.0,-16.0,-2.0,0.0,1650849635964823.0
-1.0,2.0,2.0,2.0,7.0,1.0,2.0,-1.0,1650849635964823.0
3.0,1.0,1.0,-2.0,4.0,7.0,1.0,0.0,1650849635976792.0
-2.0,-3.0,-3.0,-6.0,-9.0,-13.0,-3.0,-1.0,1650849635976792.0
-1.0,-1.0,-2.0,-3.0,5.0,18.0,5.0,2.0,1650849635985803.0
-2.0,-5.0,-6.0,-5.0,-9.0,-10.0,-2.0,1.0,1650849635985803.0
-1.0,5.0,7.0,2.0,3.0,-1.0,-2.0,-2.0,1650849636000742.0
-1.0,-3.0,2.0,0.0,-9.0,1.0,-1.0,-2.0,1650849636000742.0
0.0,1.0,2.0,14.0,11.0,0.0,2.0,1.0,1650849636001748.0
1.0,-2.0,0.0,-11.0,5.0,3.0,0.0,1.0,1650849636001748.0
-4.0,-7.0,-8.0,-3.0,-5.0,-11.0,-3.0,-2.0,1650849636022705.0
-1.0,3.0,-5.0,-1.0,-1.0,1.0,-2.0,-2.0,1650849636022705.0
0.0,0.0,-2.0,-9.0,-8.0,10.0,0.0,-1.0,1650849636024699.0
1.0,5.0,10.0,18.0,12.0,7.0,2.0,1.0,1650849636024699.0
0.0,-4.0,-7.0,-8.0,-2.0,-8.0,-3.0,-3.0,1650849636036792.0
-2.0,-4.0,-10.0,-5.0,-5.0,3.0,-2.0,-1.0,1650849636036792.0
-3.0,-4.0,0.0,-1.0,-2.0,-12.0,-3.0,-2.0,1650849636045735.0
0.0,0.0,-5.0,-3.0,-5.0,0.0,2.0,1.0,1650849636045735.0
0.0,3.0,15.0,9.0,-5.0,-1.0,-1.0,0.0,1650849636060695.0
1.0,-1.0,-6.0,-4.0,4.0,1.0,1.0,-1.0,1650849636060695.0
0.0,-2.0,2.0,-2.0,-1.0,1.0,2.0,1.0,1650849636061692.0
-3.0,-6.0,3.0,9.0,1.0,0.0,-2.0,-3.0,1650849636061692.0
1.0,-2.0,1.0,4.0,4.0,2.0,-2.0,1.0,1650849636082656.0
3.0,3.0,-1.0,-3.0,-7.0,-5.0,0.0,2.0,1650849636082656.0
0.0,1.0,2.0,1.0,2.0,0.0,0.0,-1.0,1650849636084635.0
-2.0,2.0,-8.0,-6.0,-10.0,-7.0,-3.0,-3.0,1650849636084635.0
-2.0,-5.0,2.0,2.0,3.0,5.0,2.0,1.0,1650849636096632.0
-2.0,-2.0,-6.0,2.0,-5.0,1.0,1.0,0.0,1650849636096632.0
1.0,-2.0,-6.0,1.0,6.0,-18.0,-2.0,-1.0,1650849636105575.0
1.0,2.0,-12.0,-7.0,1.0,20.0,4.0,-1.0,1650849636105575.0
2.0,7.0,17.0,4.0,4.0,4.0,3.0,1.0,1650849636120536.0
-1.0,-1.0,-3.0,9.0,4.0,3.0,-1.0,-1.0,1650849636120536.0
-1.0,0.0,0.0,-6.0,0.0,-6.0,-1.0,0.0,1650849636121533.0
-3.0,-6.0,-2.0,-1.0,-9.0,-23.0,-7.0,-2.0,1650849636121533.0
-2.0,-2.0,-12.0,1.0,0.0,24.0,3.0,-1.0,1650849636142986.0
1.0,2.0,10.0,-4.0,-1.0,-5.0,0.0,3.0,1650849636142986.0
1.0,2.0,5.0,9.0,7.0,5.0,0.0,0.0,1650849636143981.0
0.0,0.0,1.0,-3.0,2.0,1.0,0.0,0.0,1650849636143981.0
-1.0,0.0,-6.0,-8.0,-7.0,-13.0,-2.0,-2.0,1650849636164957.0
-1.0,0.0,5.0,-1.0,4.0,12.0,-1.0,-1.0,1650849636164957.0
-1.0,-2.0,-8.0,-5.0,-8.0,-1.0,1.0,0.0,1650849636166919.0
0.0,0.0,9.0,3.0,6.0,1.0,-1.0,0.0,1650849636166919.0
-2.0,-4.0,-6.0,-3.0,-6.0,-11.0,-6.0,-1.0,1650849636180920.0
-4.0,-1.0,0.0,-3.0,-1.0,-2.0,-1.0,-1.0,1650849636180920.0
0.0,0.0,-7.0,-8.0,-2.0,-9.0,-2.0,-1.0,1650849636182897.0
-2.0,-3.0,5.0,6.0,0.0,17.0,5.0,1.0,1650849636182897.0
1.0,3.0,2.0,4.0,8.0,6.0,2.0,0.0,1650849636202882.0
1.0,1.0,0.0,-3.0,5.0,-4.0,-2.0,-1.0,1650849636202882.0
0.0,0.0,-2.0,-3.0,-7.0,0.0,-2.0,0.0,1650849636204857.0
-1.0,-1.0,4.0,0.0,-12.0,-15.0,-3.0,-3.0,1650849636204857.0
0.0,-1.0,-9.0,-6.0,1.0,-3.0,-2.0,-2.0,1650849636225788.0
1.0,0.0,-1.0,3.0,-1.0,-8.0,-2.0,-1.0,1650849636225788.0
0.0,-1.0,2.0,-1.0,-1.0,15.0,1.0,1.0,1650849636227784.0
-2.0,-1.0,-1.0,2.0,3.0,-9.0,-2.0,-1.0,1650849636227784.0
0.0,-1.0,-1.0,-3.0,-5.0,16.0,10.0,2.0,1650849636240748.0
0.0,-2.0,-1.0,-3.0,2.0,-8.0,-4.0,-1.0,1650849636240748.0
-1.0,0.0,0.0,2.0,5.0,1.0,-1.0,0.0,1650849636242275.0
-1.0,-2.0,-1.0,-5.0,-12.0,-10.0,-3.0,0.0,1650849636242275.0
-1.0,0.0,0.0,-1.0,6.0,2.0,-3.0,-1.0,1650849636263196.0
-2.0,-2.0,-7.0,-5.0,-8.0,-9.0,-1.0,-4.0,1650849636263196.0
0.0,0.0,3.0,2.0,-8.0,11.0,3.0,1.0,1650849636264207.0
0.0,1.0,9.0,6.0,13.0,6.0,2.0,1.0,1650849636264207.0
0.0,0.0,-9.0,-2.0,-8.0,-13.0,-3.0,-1.0,1650849636285135.0
-1.0,0.0,3.0,6.0,5.0,3.0,1.0,0.0,1650849636285135.0
-1.0,1.0,-1.0,1.0,1.0,-3.0,-3.0,-3.0,1650849636287131.0
-2.0,-2.0,-6.0,-8.0,-13.0,-13.0,-4.0,-2.0,1650849636287131.0
-2.0,0.0,1.0,0.0,6.0,16.0,2.0,0.0,1650849636300141.0
0.0,0.0,-1.0,-2.0,-4.0,3.0,0.0,0.0,1650849636300141.0
0.0,0.0,0.0,-1.0,-1.0,-3.0,1.0,-1.0,1650849636306080.0
0.0,-1.0,-2.0,1.0,1.0,-3.0,-1.0,-1.0,1650849636306080.0
0.0,0.0,2.0,0.0,2.0,-5.0,-5.0,0.0,1650849636323064.0
0.0,1.0,-1.0,-3.0,-8.0,-3.0,-3.0,1.0,1650849636323064.0
-2.0,-1.0,-1.0,0.0,1.0,-11.0,-3.0,-3.0,1650849636324061.0
0.0,1.0,-3.0,1.0,0.0,18.0,3.0,0.0,1650849636324061.0
-1.0,0.0,2.0,1.0,2.0,3.0,2.0,0.0,1650849636346278.0
-1.0,-1.0,3.0,2.0,6.0,-1.0,1.0,0.0,1650849636346278.0
0.0,0.0,-1.0,-1.0,2.0,0.0,-1.0,-2.0,1650849636347854.0
-1.0,0.0,-3.0,-4.0,-4.0,-10.0,-4.0,-2.0,1650849636347854.0
-3.0,-1.0,-6.0,-5.0,-10.0,-9.0,-3.0,-1.0,1650849636359795.0
-1.0,-4.0,-2.0,-10.0,-17.0,-6.0,-2.0,0.0,1650849636359795.0
-1.0,-1.0,15.0,16.0,10.0,2.0,-2.0,-2.0,1650849636366844.0
1.0,1.0,-7.0,0.0,6.0,10.0,4.0,1.0,1650849636366844.0
0.0,0.0,1.0,1.0,5.0,1.0,4.0,0.0,1650849636382801.0
0.0,-2.0,-6.0,-3.0,-4.0,-3.0,0.0,0.0,1650849636382801.0
-2.0,0.0,-1.0,-7.0,-4.0,-2.0,-4.0,0.0,1650849636384757.0
0.0,-2.0,1.0,-3.0,-4.0,-3.0,-1.0,-2.0,1650849636384757.0
-2.0,0.0,0.0,2.0,-3.0,-6.0,-2.0,-3.0,1650849636404896.0
-1.0,0.0,-1.0,-3.0,-8.0,-9.0,-1.0,0.0,1650849636404896.0
0.0,0.0,-3.0,1.0,9.0,5.0,1.0,0.0,1650849636406890.0
2.0,2.0,7.0,5.0,7.0,15.0,2.0,2.0,1650849636406890.0
0.0,0.0,3.0,3.0,-3.0,-5.0,-1.0,0.0,1650849636419883.0
0.0,-1.0,-2.0,0.0,11.0,6.0,1.0,-1.0,1650849636419883.0
-2.0,-2.0,-5.0,-2.0,-9.0,-3.0,-1.0,0.0,1650849636426838.0
-2.0,-1.0,-4.0,-6.0,-3.0,-7.0,-3.0,-2.0,1650849636426838.0
0.0,-1.0,1.0,-1.0,-4.0,-4.0,-2.0,-2.0,1650849636442794.0
-1.0,0.0,2.0,1.0,-2.0,2.0,0.0,0.0,1650849636442794.0
0.0,-1.0,-3.0,-5.0,-4.0,-3.0,0.0,1.0,1650849636444789.0
-3.0,-2.0,-2.0,-1.0,0.0,-1.0,-2.0,0.0,1650849636444789.0
-1.0,-1.0,3.0,5.0,3.0,-1.0,1.0,-1.0,1650849636465832.0
-1.0,0.0,2.0,2.0,-7.0,-15.0,-2.0,-1.0,1650849636465832.0
-1.0,1.0,-1.0,2.0,12.0,25.0,4.0,1.0,1650849636466830.0
1.0,-1.0,-1.0,-1.0,-2.0,0.0,3.0,0.0,1650849636466830.0
1.0,-1.0,1.0,-2.0,3.0,-2.0,-3.0,0.0,1650849636479852.0
-1.0,-1.0,-3.0,-3.0,0.0,0.0,0.0,-2.0,1650849636479852.0
-1.0,-2.0,-1.0,-4.0,-18.0,-26.0,-6.0,-2.0,1650849636486793.0
2.0,-1.0,0.0,-1.0,3.0,0.0,-1.0,-1.0,1650849636486793.0
-1.0,-1.0,-4.0,0.0,4.0,6.0,2.0,0.0,1650849636502750.0
1.0,0.0,7.0,10.0,11.0,9.0,1.0,-2.0,1650849636502750.0
-2.0,-1.0,2.0,-5.0,-12.0,-5.0,1.0,0.0,1650849636504737.0
-1.0,-1.0,0.0,1.0,2.0,0.0,-2.0,0.0,1650849636504737.0
-1.0,-1.0,-1.0,-3.0,-7.0,-7.0,-3.0,-2.0,1650849636525794.0
0.0,0.0,-2.0,-5.0,2.0,5.0,-2.0,0.0,1650849636525794.0
-2.0,-1.0,0.0,1.0,2.0,-3.0,-2.0,-1.0,1650849636526791.0
-1.0,1.0,-2.0,0.0,-1.0,0.0,-1.0,-1.0,1650849636526791.0
-2.0,0.0,3.0,6.0,-1.0,-8.0,-2.0,0.0,1650849636539781.0
-2.0,-1.0,2.0,2.0,-1.0,-1.0,0.0,0.0,1650849636539781.0
2.0,0.0,-2.0,-2.0,3.0,14.0,9.0,2.0,1650849636546850.0
1.0,0.0,-1.0,-3.0,-2.0,-1.0,1.0,1.0,1650849636546850.0
-1.0,0.0,-1.0,-3.0,6.0,9.0,1.0,0.0,1650849636563391.0
-2.0,1.0,-2.0,0.0,3.0,-5.0,-1.0,-2.0,1650849636563391.0
-1.0,0.0,-5.0,-5.0,-12.0,-25.0,-7.0,-5.0,1650849636564391.0
0.0,-1.0,1.0,1.0,-4.0,0.0,-1.0,-1.0,1650849636564391.0
2.0,2.0,2.0,1.0,6.0,12.0,6.0,0.0,1650849636585361.0
1.0,-1.0,-2.0,0.0,4.0,4.0,0.0,1.0,1650849636585361.0
-1.0,-1.0,-1.0,-3.0,-2.0,-1.0,-2.0,-1.0,1650849636587329.0
-3.0,-2.0,-2.0,-1.0,-6.0,-10.0,-2.0,-2.0,1650849636587329.0
-2.0,1.0,-1.0,-1.0,-7.0,-10.0,-5.0,0.0,1650849636599296.0
1.0,0.0,-2.0,0.0,2.0,5.0,1.0,-1.0,1650849636599296.0
0.0,0.0,-1.0,-4.0,0.0,-3.0,-2.0,-1.0,1650849636606305.0
0.0,-2.0,2.0,0.0,1.0,9.0,-2.0,-2.0,1650849636606305.0
0.0,-1.0,-4.0,-2.0,-10.0,-6.0,0.0,1.0,1650849636630282.0
-1.0,1.0,6.0,8.0,23.0,11.0,3.0,2.0,1650849636630282.0
-1.0,0.0,-3.0,-4.0,-3.0,-4.0,-2.0,0.0,1650849636632238.0
-1.0,-1.0,-3.0,-4.0,-4.0,-2.0,-1.0,-1.0,1650849636632238.0
-1.0,-3.0,-6.0,-5.0,-5.0,-2.0,-2.0,-1.0,1650849636645804.0
0.0,0.0,-1.0,-3.0,-12.0,-5.0,-1.0,-2.0,1650849636645804.0
-2.0,-1.0,3.0,4.0,7.0,6.0,0.0,0.0,1650849636646803.0
-1.0,0.0,0.0,1.0,4.0,0.0,0.0,-1.0,1650849636646803.0
-1.0,-1.0,-2.0,-5.0,-5.0,-8.0,-4.0,-3.0,1650849636658771.0
-1.0,-3.0,-1.0,1.0,-6.0,-23.0,-5.0,-2.0,1650849636658771.0
3.0,1.0,4.0,3.0,7.0,42.0,16.0,5.0,1650849636667849.0
-1.0,2.0,-1.0,7.0,-7.0,0.0,-1.0,0.0,1650849636667849.0
-1.0,1.0,1.0,0.0,15.0,6.0,0.0,0.0,1650849636682808.0
-3.0,0.0,-3.0,-8.0,-13.0,-11.0,-6.0,-2.0,1650849636682808.0
-3.0,-2.0,-3.0,-3.0,-6.0,-13.0,-5.0,-3.0,1650849636684803.0
0.0,-2.0,-1.0,-3.0,-6.0,-2.0,0.0,-2.0,1650849636684803.0
0.0,-2.0,-3.0,-1.0,-4.0,-4.0,-1.0,-1.0,1650849636705776.0
1.0,0.0,-2.0,-1.0,5.0,10.0,0.0,-1.0,1650849636705776.0
-1.0,-2.0,-2.0,-3.0,-7.0,-8.0,-3.0,0.0,1650849636706745.0
0.0,-2.0,-1.0,-2.0,-13.0,-17.0,-1.0,1.0,1650849636706745.0
3.0,1.0,5.0,5.0,23.0,27.0,4.0,1.0,1650849636718741.0
1.0,0.0,6.0,9.0,9.0,20.0,8.0,1.0,1650849636718741.0
-1.0,-3.0,-3.0,-2.0,-1.0,-5.0,-3.0,0.0,1650849636727688.0
-2.0,-1.0,-3.0,-5.0,-6.0,-11.0,-3.0,-2.0,1650849636727688.0
-1.0,-2.0,-4.0,-3.0,-11.0,-13.0,-6.0,-3.0,1650849636742809.0
0.0,-1.0,-3.0,-4.0,-6.0,-1.0,-1.0,-1.0,1650849636742809.0
1.0,1.0,-1.0,1.0,3.0,-2.0,-2.0,0.0,1650849636744817.0
0.0,-1.0,0.0,0.0,5.0,1.0,-1.0,1.0,1650849636744817.0
0.0,-1.0,0.0,-5.0,-11.0,-18.0,-4.0,-2.0,1650849636765778.0
-1.0,-1.0,0.0,0.0,-1.0,11.0,0.0,0.0,1650849636765778.0
1.0,3.0,4.0,11.0,11.0,2.0,1.0,0.0,1650849636766745.0
1.0,0.0,2.0,1.0,7.0,11.0,7.0,2.0,1650849636766745.0
-3.0,-2.0,-3.0,0.0,-2.0,1.0,0.0,-2.0,1650849636778784.0
-1.0,-1.0,0.0,-2.0,-4.0,-12.0,-1.0,-1.0,1650849636778784.0
-4.0,-4.0,-6.0,-3.0,0.0,-7.0,-6.0,-1.0,1650849636787814.0
-1.0,0.0,-1.0,0.0,3.0,4.0,-2.0,-3.0,1650849636787814.0
1.0,1.0,1.0,-1.0,-5.0,-2.0,0.0,-2.0,1650849636802800.0
-1.0,0.0,-1.0,-5.0,-2.0,-5.0,-3.0,0.0,1650849636802800.0
-1.0,-2.0,0.0,-7.0,-4.0,3.0,0.0,-2.0,1650849636804768.0
0.0,0.0,0.0,2.0,-2.0,0.0,-1.0,0.0,1650849636804768.0
1.0,0.0,1.0,2.0,-8.0,-6.0,1.0,1.0,1650849636824802.0
1.0,-1.0,2.0,5.0,13.0,16.0,4.0,3.0,1650849636824802.0
1.0,-1.0,0.0,-2.0,12.0,3.0,0.0,0.0,1650849636832794.0
-3.0,-2.0,-4.0,-8.0,-7.0,-4.0,-2.0,-1.0,1650849636832794.0
-3.0,-2.0,-4.0,-3.0,-2.0,-6.0,-1.0,-1.0,1650849636838792.0
-3.0,-1.0,-3.0,-3.0,-11.0,-5.0,-3.0,-1.0,1650849636838792.0
0.0,0.0,2.0,2.0,-5.0,-4.0,0.0,0.0,1650849636847761.0
-1.0,0.0,-1.0,0.0,3.0,-12.0,-3.0,0.0,1650849636847761.0
0.0,2.0,1.0,-2.0,1.0,11.0,1.0,0.0,1650849636863344.0
-2.0,-3.0,-2.0,1.0,-9.0,6.0,0.0,0.0,1650849636863344.0
2.0,1.0,4.0,13.0,18.0,15.0,5.0,3.0,1650849636864347.0
-1.0,0.0,-4.0,-4.0,-1.0,-2.0,-2.0,-1.0,1650849636864347.0
1.0,-1.0,3.0,0.0,-1.0,-3.0,-1.0,0.0,1650849636885430.0
-2.0,-2.0,-5.0,-10.0,-9.0,-11.0,-4.0,-3.0,1650849636885430.0
-1.0,-1.0,-1.0,-4.0,-7.0,-10.0,-4.0,0.0,1650849636887432.0
-1.0,0.0,1.0,3.0,3.0,6.0,1.0,0.0,1650849636887432.0
-3.0,-3.0,-2.0,-3.0,3.0,0.0,0.0,-3.0,1650849636899455.0
-2.0,-2.0,-2.0,-3.0,0.0,-4.0,0.0,1.0,1650849636899455.0
-1.0,0.0,-1.0,0.0,-20.0,-19.0,-4.0,-3.0,1650849636908340.0
5.0,4.0,4.0,3.0,15.0,32.0,5.0,2.0,1650849636908340.0
1.0,1.0,3.0,11.0,20.0,8.0,5.0,1.0,1650849636922460.0
0.0,-1.0,-7.0,-5.0,-2.0,-4.0,-1.0,0.0,1650849636922460.0
-1.0,-2.0,1.0,-4.0,-8.0,-5.0,-3.0,-3.0,1650849636924444.0
-1.0,-2.0,-1.0,-3.0,-10.0,-15.0,-5.0,-3.0,1650849636924444.0
-2.0,-2.0,-3.0,-7.0,-11.0,-12.0,-5.0,0.0,1650849636945380.0
0.0,-2.0,-1.0,3.0,2.0,-4.0,-1.0,-3.0,1650849636945380.0
1.0,1.0,4.0,10.0,19.0,35.0,7.0,1.0,1650849636947401.0
-1.0,0.0,-1.0,-2.0,-10.0,-6.0,0.0,1.0,1650849636947401.0
-1.0,0.0,1.0,2.0,12.0,7.0,1.0,0.0,1650849636959369.0
-2.0,0.0,-2.0,-6.0,-18.0,-28.0,-5.0,-1.0,1650849636959369.0
0.0,0.0,-2.0,-4.0,-3.0,7.0,-2.0,0.0,1650849636968317.0
0.0,-1.0,1.0,2.0,4.0,7.0,2.0,0.0,1650849636968317.0
1.0,0.0,-1.0,-1.0,-7.0,2.0,0.0,1.0,1650849636983300.0
0.0,0.0,-1.0,4.0,2.0,-3.0,-2.0,-2.0,1650849636983300.0
0.0,0.0,1.0,0.0,5.0,-3.0,-1.0,0.0,1650849636984275.0
-1.0,-1.0,0.0,-1.0,-6.0,-4.0,-1.0,-2.0,1650849636984275.0
0.0,-1.0,-6.0,-2.0,-7.0,-10.0,-2.0,1.0,1650849637004900.0
-1.0,-1.0,-2.0,-1.0,8.0,11.0,3.0,-1.0,1650849637004900.0
-2.0,0.0,2.0,3.0,-6.0,-3.0,-1.0,-2.0,1650849637006868.0
-1.0,0.0,0.0,-4.0,1.0,-5.0,-2.0,1.0,1650849637006868.0
-3.0,-2.0,0.0,-1.0,-6.0,-8.0,-4.0,-3.0,1650849637018862.0
1.0,2.0,3.0,12.0,10.0,25.0,4.0,2.0,1650849637018862.0
-2.0,-1.0,-5.0,-7.0,-1.0,-8.0,0.0,0.0,1650849637027811.0
-1.0,0.0,0.0,1.0,11.0,8.0,1.0,0.0,1650849637027811.0
0.0,1.0,-1.0,-2.0,-8.0,-2.0,-2.0,0.0,1650849637042799.0
1.0,0.0,0.0,-4.0,-3.0,-1.0,0.0,1.0,1650849637042799.0
-2.0,-1.0,-1.0,-3.0,1.0,-9.0,-4.0,-3.0,1650849637044767.0
-1.0,0.0,1.0,5.0,-5.0,-5.0,-1.0,0.0,1650849637044767.0
-1.0,-1.0,0.0,1.0,-5.0,5.0,3.0,1.0,1650849637065842.0
1.0,1.0,1.0,0.0,6.0,-4.0,-1.0,1.0,1650849637065842.0
-1.0,0.0,-4.0,-6.0,-11.0,0.0,-3.0,0.0,1650849637066795.0
1.0,0.0,-1.0,-1.0,20.0,15.0,5.0,0.0,1650849637066795.0
-1.0,-1.0,0.0,-5.0,0.0,-5.0,-1.0,-2.0,1650849637087769.0
-1.0,-2.0,3.0,0.0,-10.0,-3.0,-1.0,-1.0,1650849637087769.0
1.0,-3.0,2.0,-2.0,-5.0,-18.0,-5.0,-3.0,1650849637093754.0
-2.0,-1.0,-5.0,-3.0,-10.0,-8.0,-1.0,-1.0,1650849637093754.0
0.0,1.0,2.0,8.0,26.0,18.0,3.0,5.0,1650849637102699.0
1.0,2.0,-3.0,-3.0,6.0,13.0,3.0,1.0,1650849637102699.0
0.0,-3.0,-3.0,-2.0,-7.0,-2.0,-2.0,-1.0,1650849637104694.0
0.0,-1.0,1.0,-2.0,-9.0,-7.0,-2.0,-2.0,1650849637104694.0
0.0,1.0,-2.0,-2.0,-8.0,-7.0,-1.0,-1.0,1650849637125637.0
-2.0,-1.0,1.0,-3.0,-6.0,-17.0,-3.0,-2.0,1650849637125637.0
1.0,1.0,1.0,2.0,10.0,27.0,4.0,-1.0,1650849637126646.0
0.0,-1.0,1.0,2.0,-7.0,-8.0,0.0,1.0,1650849637126646.0
-1.0,-1.0,0.0,2.0,8.0,3.0,-2.0,0.0,1650849637147646.0
1.0,-3.0,1.0,6.0,-1.0,7.0,2.0,1.0,1650849637147646.0
0.0,0.0,-1.0,-1.0,5.0,-17.0,-2.0,1.0,1650849637149574.0
0.0,-2.0,-2.0,-3.0,-3.0,12.0,-1.0,-1.0,1650849637149574.0
0.0,-1.0,0.0,-2.0,-6.0,-3.0,0.0,-2.0,1650849637162545.0
-1.0,-1.0,-3.0,-6.0,-2.0,-7.0,-2.0,-2.0,1650849637162545.0
-1.0,3.0,-1.0,-1.0,1.0,-1.0,2.0,1.0,1650849637164534.0
0.0,-1.0,0.0,1.0,-6.0,-7.0,-3.0,-1.0,1650849637164534.0
-1.0,0.0,8.0,8.0,10.0,-3.0,-2.0,0.0,1650849637185704.0
-1.0,0.0,-2.0,-1.0,2.0,10.0,1.0,-1.0,1650849637185704.0
0.0,-3.0,-2.0,-1.0,-4.0,-4.0,0.0,0.0,1650849637186704.0
-1.0,2.0,0.0,1.0,7.0,8.0,4.0,2.0,1650849637186704.0
-2.0,-1.0,-2.0,-4.0,-11.0,-3.0,0.0,-1.0,1650849637207676.0
-1.0,0.0,-2.0,-2.0,2.0,-5.0,-3.0,0.0,1650849637207676.0
-1.0,-2.0,2.0,-1.0,-3.0,-2.0,-1.0,0.0,1650849637209643.0
-1.0,-3.0,-1.0,-1.0,-3.0,-5.0,-4.0,-2.0,1650849637209643.0
1.0,-3.0,-3.0,-6.0,-15.0,-5.0,-1.0,-1.0,1650849637222607.0
-1.0,-1.0,1.0,6.0,13.0,4.0,-1.0,0.0,1650849637222607.0
0.0,1.0,-2.0,-5.0,-3.0,6.0,1.0,0.0,1650849637228592.0
2.0,0.0,2.0,6.0,13.0,10.0,3.0,0.0,1650849637228592.0
-3.0,-2.0,-4.0,-5.0,-10.0,-11.0,-2.0,0.0,1650849637245559.0
-2.0,0.0,1.0,-1.0,3.0,2.0,-1.0,0.0,1650849637245559.0
-2.0,0.0,0.0,-1.0,-9.0,16.0,6.0,-1.0,1650849637246544.0
0.0,0.0,-2.0,-2.0,3.0,-8.0,-3.0,-2.0,1650849637246544.0
0.0,1.0,-2.0,-2.0,1.0,2.0,0.0,-2.0,1650849637267643.0
-1.0,-2.0,-3.0,-6.0,-18.0,-22.0,-6.0,-1.0,1650849637267643.0
1.0,-1.0,2.0,9.0,19.0,26.0,4.0,2.0,1650849637269611.0
0.0,-2.0,-5.0,-5.0,-5.0,-4.0,-1.0,0.0,1650849637269611.0
1.0,1.0,3.0,9.0,3.0,2.0,0.0,-1.0,1650849637282655.0
0.0,2.0,2.0,0.0,9.0,14.0,1.0,-1.0,1650849637282655.0
-1.0,0.0,-3.0,-4.0,-9.0,-22.0,-5.0,-2.0,1650849637288587.0
-1.0,-1.0,0.0,-2.0,1.0,-1.0,0.0,-1.0,1650849637288587.0
0.0,0.0,-3.0,-3.0,-7.0,-2.0,0.0,0.0,1650849637305515.0
-1.0,-2.0,-3.0,-2.0,-2.0,-1.0,1.0,-2.0,1650849637305515.0
0.0,0.0,0.0,0.0,-3.0,-5.0,-1.0,-1.0,1650849637306532.0
0.0,0.0,1.0,3.0,2.0,-1.0,-1.0,-2.0,1650849637306532.0
0.0,1.0,-2.0,-1.0,4.0,1.0,-1.0,-1.0,1650849637335458.0
1.0,1.0,0.0,-3.0,-5.0,7.0,3.0,-1.0,1650849637335458.0
0.0,-1.0,-2.0,0.0,-3.0,-9.0,-4.0,0.0,1650849637336449.0
-2.0,0.0,0.0,6.0,11.0,5.0,-2.0,0.0,1650849637336449.0
1.0,-1.0,1.0,-5.0,-2.0,5.0,3.0,-2.0,1650849637342436.0
0.0,-2.0,0.0,3.0,2.0,-3.0,-1.0,-1.0,1650849637342436.0
0.0,1.0,-1.0,-5.0,-12.0,-10.0,-2.0,-2.0,1650849637349425.0
-1.0,-2.0,-6.0,-6.0,-6.0,-15.0,-4.0,-1.0,1650849637349425.0
-1.0,-2.0,-2.0,0.0,10.0,13.0,1.0,0.0,1650849637365447.0
-1.0,0.0,-1.0,-1.0,1.0,17.0,2.0,0.0,1650849637365447.0
0.0,-2.0,-1.0,0.0,-4.0,-9.0,-2.0,-1.0,1650849637366474.0
0.0,0.0,-1.0,-3.0,9.0,1.0,1.0,1.0,1650849637366474.0
-1.0,0.0,1.0,2.0,-10.0,-7.0,0.0,1.0,1650849637387421.0
0.0,-1.0,4.0,4.0,8.0,-2.0,1.0,0.0,1650849637387421.0
-1.0,-3.0,-3.0,-1.0,6.0,2.0,-1.0,-1.0,1650849637389386.0
-1.0,1.0,0.0,-3.0,-14.0,-9.0,-3.0,-1.0,1650849637389386.0
-1.0,0.0,-1.0,-2.0,-3.0,-6.0,-2.0,0.0,1650849637402378.0
-2.0,0.0,-5.0,-6.0,1.0,6.0,-1.0,-2.0,1650849637402378.0
0.0,-1.0,0.0,2.0,-1.0,5.0,5.0,0.0,1650849637409360.0
-1.0,2.0,5.0,4.0,2.0,-1.0,2.0,-1.0,1650849637409360.0
0.0,0.0,2.0,-2.0,9.0,8.0,0.0,1.0,1650849637425316.0
-3.0,-2.0,-7.0,-4.0,-9.0,-22.0,-6.0,-2.0,1650849637425316.0
-3.0,-2.0,3.0,0.0,4.0,14.0,3.0,0.0,1650849637427305.0
-3.0,-3.0,-1.0,-6.0,-11.0,-8.0,-2.0,-2.0,1650849637427305.0
-2.0,-1.0,-2.0,3.0,4.0,6.0,-1.0,-1.0,1650849637455237.0
1.0,2.0,1.0,0.0,2.0,-1.0,1.0,0.0,1650849637455237.0
-1.0,2.0,-2.0,1.0,-16.0,-4.0,-1.0,-2.0,1650849637457224.0
2.0,3.0,4.0,7.0,15.0,6.0,2.0,2.0,1650849637457224.0
1.0,-2.0,1.0,-4.0,-1.0,-3.0,-2.0,0.0,1650849637462201.0
0.0,-3.0,-2.0,-4.0,-3.0,0.0,0.0,-1.0,1650849637462201.0
-1.0,-1.0,-2.0,1.0,-1.0,-8.0,-3.0,-2.0,1650849637469172.0
-1.0,-4.0,0.0,-2.0,-8.0,0.0,-1.0,0.0,1650849637469172.0
-1.0,-3.0,-3.0,-3.0,-2.0,0.0,1.0,-1.0,1650849637486154.0
-1.0,1.0,-4.0,0.0,4.0,5.0,0.0,0.0,1650849637486154.0
0.0,6.0,5.0,3.0,2.0,-6.0,-1.0,-1.0,1650849637488132.0
-1.0,1.0,-4.0,-6.0,-4.0,2.0,0.0,-2.0,1650849637488132.0
-3.0,-11.0,-1.0,3.0,-4.0,-6.0,-4.0,-1.0,1650849637508068.0
2.0,23.0,14.0,1.0,-6.0,-10.0,-3.0,1.0,1650849637508068.0
0.0,-4.0,-3.0,1.0,11.0,16.0,3.0,1.0,1650849637509064.0
1.0,0.0,1.0,1.0,-2.0,9.0,6.0,0.0,1650849637509064.0
0.0,0.0,3.0,4.0,7.0,-1.0,-1.0,-1.0,1650849637522031.0
-1.0,-7.0,0.0,2.0,0.0,7.0,-1.0,1.0,1650849637522031.0
-2.0,-1.0,-11.0,-7.0,-8.0,-16.0,-5.0,-2.0,1650849637529012.0
0.0,-2.0,-3.0,-9.0,6.0,4.0,-1.0,0.0,1650849637529012.0
-2.0,-1.0,5.0,6.0,0.0,-7.0,-2.0,-1.0,1650849637544970.0
-2.0,-4.0,-10.0,-2.0,-8.0,-5.0,0.0,0.0,1650849637544970.0
0.0,-1.0,-4.0,-12.0,7.0,9.0,-1.0,0.0,1650849637546965.0
-1.0,1.0,10.0,18.0,-6.0,-4.0,-2.0,-1.0,1650849637546965.0
0.0,4.0,1.0,-10.0,2.0,3.0,0.0,-1.0,1650849637567926.0
2.0,-3.0,-14.0,-5.0,-5.0,-1.0,2.0,0.0,1650849637567926.0
-3.0,-6.0,-18.0,-3.0,3.0,-2.0,-1.0,-2.0,1650849637569885.0
-1.0,-2.0,-13.0,-7.0,-2.0,-3.0,-2.0,0.0,1650849637569885.0
-3.0,0.0,11.0,14.0,-2.0,-3.0,-1.0,-3.0,1650849637581892.0
-1.0,-1.0,14.0,12.0,10.0,4.0,1.0,0.0,1650849637581892.0
0.0,-1.0,6.0,-21.0,-11.0,-6.0,2.0,2.0,1650849637590829.0
-2.0,-2.0,-4.0,-6.0,-10.0,-20.0,-3.0,-1.0,1650849637590829.0
-2.0,3.0,-8.0,11.0,1.0,16.0,1.0,-3.0,1650849637612744.0
2.0,-6.0,-8.0,0.0,7.0,17.0,3.0,2.0,1650849637612744.0
-2.0,-3.0,-7.0,4.0,8.0,3.0,1.0,-3.0,1650849637614764.0
18.0,-1.0,8.0,-15.0,-12.0,-6.0,-3.0,-6.0,1650849637614764.0
-25.0,3.0,-5.0,-16.0,-8.0,-9.0,1.0,7.0,1650849637627702.0
24.0,3.0,6.0,3.0,2.0,-16.0,-3.0,-2.0,1650849637627702.0
-9.0,3.0,19.0,18.0,2.0,9.0,3.0,4.0,1650849637629704.0
6.0,-10.0,4.0,23.0,6.0,0.0,-3.0,1.0,1650849637629704.0
4.0,-1.0,-2.0,-13.0,-6.0,-6.0,-1.0,-4.0,1650849637650643.0
10.0,5.0,-6.0,-6.0,-3.0,3.0,-1.0,2.0,1650849637650643.0
2.0,-2.0,6.0,-14.0,2.0,-2.0,1.0,-2.0,1650849637651672.0
-8.0,1.0,-15.0,-5.0,-3.0,8.0,2.0,-1.0,1650849637651672.0
10.0,4.0,9.0,-2.0,-3.0,1.0,0.0,2.0,1650849637665668.0
-11.0,-10.0,14.0,16.0,6.0,1.0,-1.0,-2.0,1650849637665668.0
6.0,1.0,-35.0,-14.0,1.0,-1.0,-2.0,1.0,1650849637666642.0
-2.0,6.0,43.0,16.0,5.0,3.0,2.0,1.0,1650849637666642.0
-6.0,-2.0,-40.0,-19.0,-8.0,-4.0,0.0,-2.0,1650849637687570.0
-3.0,-4.0,-11.0,-6.0,-15.0,-12.0,-4.0,-4.0,1650849637687570.0
0.0,2.0,9.0,19.0,3.0,-6.0,-1.0,0.0,1650849637689557.0
0.0,-4.0,-8.0,-17.0,6.0,27.0,7.0,3.0,1650849637689557.0
11.0,5.0,23.0,13.0,-1.0,1.0,0.0,0.0,1650849637701569.0
-10.0,-5.0,-44.0,-17.0,0.0,-9.0,-3.0,-2.0,1650849637701569.0
0.0,3.0,30.0,14.0,2.0,3.0,-2.0,1.0,1650849637710483.0
-1.0,-5.0,-6.0,-9.0,-2.0,-4.0,-1.0,-2.0,1650849637710483.0
7.0,12.0,21.0,9.0,12.0,7.0,5.0,1.0,1650849637725468.0
-10.0,1.0,9.0,-13.0,-9.0,-2.0,-2.0,-3.0,1650849637725468.0
3.0,-22.0,-12.0,-1.0,-5.0,-4.0,-3.0,0.0,1650849637727457.0
-2.0,12.0,26.0,14.0,3.0,-3.0,0.0,0.0,1650849637727457.0
-5.0,0.0,-15.0,-4.0,-2.0,-3.0,-3.0,-6.0,1650849637748380.0
-1.0,1.0,-3.0,-1.0,-3.0,-1.0,-1.0,1.0,1650849637748380.0
6.0,21.0,19.0,3.0,-4.0,-1.0,1.0,-1.0,1650849637749378.0
-8.0,-21.0,-16.0,-6.0,-1.0,-2.0,-1.0,0.0,1650849637749378.0
1.0,-6.0,-6.0,8.0,2.0,-2.0,-2.0,2.0,1650849637770765.0
1.0,-1.0,1.0,-4.0,6.0,5.0,2.0,1.0,1650849637770765.0
-4.0,1.0,0.0,-20.0,-7.0,-1.0,-2.0,-2.0,1650849637771768.0
-5.0,-7.0,-21.0,3.0,-11.0,-10.0,-5.0,-2.0,1650849637771768.0
2.0,16.0,19.0,-9.0,-1.0,3.0,-1.0,-1.0,1650849637785726.0
-7.0,-18.0,-10.0,26.0,18.0,10.0,3.0,-1.0,1650849637785726.0
2.0,-1.0,3.0,-2.0,8.0,1.0,2.0,0.0,1650849637786723.0
0.0,1.0,-10.0,-12.0,-17.0,-9.0,-3.0,-1.0,1650849637786723.0
2.0,-5.0,3.0,7.0,5.0,-4.0,-1.0,-1.0,1650849637807694.0
-7.0,-18.0,20.0,-17.0,-22.0,-7.0,-3.0,-3.0,1650849637807694.0
