EMG_s0,EMG_s1,EMG_s2,EMG_s3,EMG_s4,EMG_s5,EMG_s6,EMG_s7,timestamp
-2.0,2.0,-1.0,4.0,-2.0,0.0,-1.0,-2.0,1650849746373985.0
-2.0,-2.0,-2.0,-4.0,-4.0,-3.0,-1.0,-2.0,1650849746373985.0
-1.0,-4.0,-1.0,-3.0,-2.0,-5.0,-2.0,-2.0,1650849746378955.0
-2.0,-1.0,-1.0,1.0,1.0,-2.0,-2.0,-1.0,1650849746378955.0
-1.0,-3.0,-1.0,0.0,0.0,-3.0,-1.0,-1.0,1650849746380949.0
-1.0,-2.0,-1.0,-4.0,-2.0,-2.0,-3.0,0.0,1650849746380949.0
-1.0,2.0,0.0,1.0,-4.0,-6.0,1.0,1.0,1650849746381947.0
-1.0,0.0,-2.0,2.0,0.0,8.0,1.0,0.0,1650849746381947.0
0.0,-1.0,0.0,-2.0,8.0,3.0,0.0,-1.0,1650849746399926.0
-2.0,1.0,-2.0,-1.0,-3.0,-3.0,-2.0,-2.0,1650849746399926.0
-2.0,-1.0,-1.0,2.0,-2.0,-3.0,-2.0,-2.0,1650849746401898.0
-1.0,-2.0,-2.0,-2.0,2.0,-4.0,0.0,-1.0,1650849746401898.0
-2.0,-1.0,-3.0,-3.0,-5.0,-13.0,-3.0,-1.0,1650849746407888.0
0.0,0.0,0.0,5.0,5.0,24.0,5.0,1.0,1650849746407888.0
-2.0,0.0,0.0,2.0,3.0,4.0,0.0,0.0,1650849746416853.0
0.0,-2.0,0.0,-2.0,-4.0,-6.0,-3.0,-1.0,1650849746416853.0
-1.0,-2.0,0.0,2.0,-9.0,-4.0,-1.0,-1.0,1650849746432811.0
-1.0,-2.0,0.0,1.0,3.0,-7.0,-4.0,-2.0,1650849746432811.0
0.0,0.0,0.0,-3.0,3.0,1.0,1.0,-1.0,1650849746446794.0
0.0,0.0,1.0,0.0,0.0,3.0,-1.0,-1.0,1650849746446794.0
-1.0,1.0,-2.0,-1.0,0.0,0.0,0.0,1.0,1650849746449786.0
0.0,-2.0,0.0,-2.0,-7.0,-10.0,1.0,-1.0,1650849746449786.0
0.0,-1.0,0.0,1.0,-2.0,3.0,1.0,0.0,1650849746466720.0
0.0,-2.0,1.0,2.0,7.0,1.0,-1.0,-1.0,1650849746466720.0
1.0,1.0,-1.0,-1.0,2.0,-5.0,-1.0,1.0,1650849746506613.0
-1.0,0.0,-2.0,2.0,-3.0,-8.0,-3.0,-3.0,1650849746506613.0
2.0,-2.0,0.0,-3.0,3.0,17.0,4.0,0.0,1650849746506613.0
1.0,-1.0,0.0,-4.0,-8.0,-10.0,-1.0,-1.0,1650849746506613.0
-1.0,0.0,0.0,4.0,-1.0,7.0,0.0,0.0,1650849746507611.0
0.0,-1.0,0.0,0.0,9.0,-2.0,-1.0,1.0,1650849746507611.0
1.0,0.0,0.0,-4.0,-5.0,-8.0,-3.0,-1.0,1650849746512607.0
-1.0,0.0,-3.0,2.0,2.0,2.0,-1.0,-2.0,1650849746512607.0
-2.0,-2.0,0.0,-3.0,-5.0,-4.0,-1.0,-2.0,1650849746518582.0
0.0,-2.0,-1.0,-4.0,-3.0,-2.0,-1.0,-2.0,1650849746518582.0
-1.0,0.0,-1.0,0.0,1.0,-1.0,-2.0,-1.0,1650849746527571.0
-2.0,1.0,2.0,-1.0,-1.0,1.0,-1.0,0.0,1650849746527571.0
1.0,-1.0,-1.0,-6.0,-6.0,-6.0,-3.0,0.0,1650849746533567.0
0.0,1.0,1.0,3.0,12.0,12.0,2.0,0.0,1650849746533567.0
-2.0,-2.0,0.0,3.0,1.0,-3.0,-1.0,-2.0,1650849746550560.0
-1.0,-1.0,-1.0,-1.0,-3.0,-3.0,1.0,-2.0,1650849746550560.0
-1.0,-1.0,-1.0,0.0,-5.0,-2.0,1.0,0.0,1650849746556582.0
0.0,0.0,-1.0,0.0,-4.0,5.0,1.0,0.0,1650849746556582.0
-3.0,-1.0,-3.0,-1.0,3.0,-10.0,-4.0,-1.0,1650849746579341.0
-2.0,0.0,-1.0,-2.0,3.0,6.0,0.0,0.0,1650849746579341.0
-1.0,0.0,1.0,-1.0,0.0,2.0,2.0,0.0,1650849746580331.0
1.0,1.0,-1.0,1.0,-7.0,-5.0,0.0,-1.0,1650849746580331.0
1.0,0.0,0.0,0.0,4.0,4.0,0.0,1.0,1650849746594333.0
1.0,-1.0,-2.0,-1.0,-4.0,-5.0,-1.0,-1.0,1650849746594333.0
0.0,0.0,-2.0,1.0,3.0,1.0,0.0,-1.0,1650849746595292.0
-1.0,0.0,0.0,-1.0,0.0,6.0,0.0,-1.0,1650849746595292.0
0.0,-1.0,-1.0,-1.0,-8.0,-12.0,-2.0,-2.0,1650849746617448.0
-1.0,-1.0,0.0,2.0,9.0,7.0,0.0,0.0,1650849746617448.0
-1.0,0.0,-1.0,-2.0,1.0,2.0,-1.0,-2.0,1650849746617448.0
-1.0,-1.0,0.0,-4.0,-6.0,-6.0,-2.0,-1.0,1650849746617448.0
-1.0,1.0,0.0,0.0,-3.0,2.0,1.0,0.0,1650849746639474.0
1.0,-2.0,-2.0,0.0,1.0,-2.0,0.0,0.0,1650849746639474.0
-1.0,-1.0,-1.0,0.0,-4.0,-1.0,0.0,-2.0,1650849746640407.0
0.0,-1.0,-1.0,0.0,1.0,0.0,0.0,0.0,1650849746640407.0
0.0,0.0,-1.0,1.0,6.0,1.0,0.0,0.0,1650849746654437.0
1.0,0.0,0.0,0.0,-1.0,0.0,0.0,1.0,1650849746654437.0
0.0,0.0,-2.0,-3.0,1.0,-4.0,-2.0,-2.0,1650849746655368.0
-3.0,-2.0,-1.0,-2.0,-11.0,-13.0,-2.0,-1.0,1650849746655368.0
1.0,0.0,0.0,1.0,4.0,24.0,6.0,2.0,1650849746677556.0
0.0,2.0,0.0,0.0,-2.0,-4.0,0.0,-2.0,1650849746677556.0
0.0,-3.0,0.0,0.0,4.0,-1.0,-1.0,-1.0,1650849746677556.0
-1.0,1.0,0.0,-3.0,-2.0,-2.0,-1.0,-1.0,1650849746677556.0
-1.0,-1.0,-1.0,0.0,-2.0,-6.0,-1.0,0.0,1650849746699612.0
1.0,0.0,-2.0,0.0,1.0,6.0,0.0,1.0,1650849746699612.0
-1.0,0.0,-1.0,0.0,-3.0,-1.0,-1.0,0.0,1650849746700542.0
-1.0,-1.0,-1.0,0.0,-1.0,-3.0,0.0,0.0,1650849746700542.0
-2.0,-1.0,-1.0,-3.0,-4.0,-2.0,-3.0,-1.0,1650849746714571.0
-1.0,1.0,-1.0,-1.0,1.0,-2.0,1.0,0.0,1650849746714571.0
-1.0,-1.0,-2.0,-1.0,0.0,-3.0,1.0,0.0,1650849746715502.0
0.0,-1.0,0.0,-1.0,1.0,3.0,0.0,-1.0,1650849746715502.0
0.0,-3.0,0.0,0.0,-3.0,-7.0,-2.0,0.0,1650849746737471.0
-2.0,-3.0,-1.0,-3.0,-10.0,1.0,-2.0,-1.0,1650849746737471.0
0.0,0.0,0.0,2.0,7.0,6.0,2.0,0.0,1650849746737471.0
1.0,-1.0,0.0,1.0,8.0,3.0,0.0,0.0,1650849746737471.0
-3.0,1.0,0.0,-1.0,-4.0,-9.0,-2.0,-1.0,1650849746759549.0
0.0,0.0,-1.0,1.0,5.0,15.0,1.0,-1.0,1650849746759549.0
-1.0,0.0,-1.0,-2.0,-11.0,-7.0,-2.0,-2.0,1650849746760480.0
1.0,-1.0,0.0,2.0,4.0,2.0,-1.0,-1.0,1650849746760480.0
1.0,-1.0,-1.0,-3.0,0.0,-2.0,0.0,-2.0,1650849746774502.0
0.0,-1.0,-1.0,2.0,4.0,0.0,0.0,-1.0,1650849746774502.0
-2.0,-1.0,-1.0,0.0,-3.0,0.0,-1.0,-1.0,1650849746775440.0
0.0,-3.0,-3.0,-1.0,-3.0,-4.0,-1.0,-1.0,1650849746775440.0
-1.0,1.0,-1.0,-1.0,0.0,1.0,-3.0,-2.0,1650849746797527.0
0.0,0.0,1.0,-2.0,-2.0,-8.0,-1.0,-1.0,1650849746797527.0
-1.0,2.0,0.0,0.0,3.0,4.0,-1.0,1.0,1650849746797527.0
-1.0,-1.0,-1.0,-1.0,-3.0,-2.0,-1.0,-1.0,1650849746797527.0
0.0,-1.0,-1.0,1.0,-1.0,2.0,0.0,1.0,1650849746819614.0
0.0,-1.0,1.0,-1.0,1.0,4.0,-1.0,-1.0,1650849746819614.0
0.0,-2.0,0.0,-1.0,3.0,-5.0,-1.0,0.0,1650849746820611.0
0.0,-2.0,1.0,0.0,1.0,2.0,-1.0,-1.0,1650849746820611.0
0.0,-1.0,1.0,-2.0,-2.0,-1.0,0.0,0.0,1650849746834572.0
-1.0,-1.0,0.0,-2.0,-7.0,-11.0,-3.0,-1.0,1650849746834572.0
3.0,-1.0,-1.0,1.0,13.0,19.0,4.0,2.0,1650849746835571.0
-1.0,-2.0,-2.0,-3.0,-2.0,-1.0,0.0,-2.0,1650849746835571.0
-3.0,-1.0,-1.0,-1.0,1.0,0.0,0.0,0.0,1650849746857512.0
-3.0,-2.0,0.0,-3.0,-6.0,-8.0,-3.0,-1.0,1650849746857512.0
0.0,-2.0,0.0,0.0,-7.0,-4.0,-2.0,-2.0,1650849746857512.0
-1.0,1.0,-1.0,-1.0,1.0,1.0,0.0,-1.0,1650849746857512.0
2.0,0.0,0.0,1.0,2.0,0.0,2.0,0.0,1650849746879520.0
-1.0,0.0,0.0,0.0,5.0,3.0,1.0,-1.0,1650849746879520.0
-1.0,-1.0,1.0,-2.0,-1.0,-2.0,-1.0,0.0,1650849746880453.0
0.0,2.0,0.0,-1.0,-2.0,-1.0,0.0,1.0,1650849746880453.0
-1.0,0.0,-3.0,-2.0,-5.0,-8.0,-3.0,-3.0,1650849746894929.0
0.0,-1.0,-1.0,1.0,0.0,3.0,1.0,0.0,1650849746894929.0
-2.0,-1.0,-1.0,1.0,6.0,3.0,0.0,-2.0,1650849746895454.0
0.0,-1.0,-1.0,-1.0,-6.0,-6.0,-1.0,0.0,1650849746895454.0
-1.0,1.0,-1.0,-2.0,-9.0,1.0,-1.0,-1.0,1650849746918515.0
1.0,-1.0,-1.0,2.0,10.0,2.0,0.0,1.0,1650849746918515.0
0.0,-1.0,0.0,0.0,-3.0,-8.0,-2.0,-1.0,1650849746919524.0
0.0,-2.0,-1.0,1.0,5.0,3.0,-1.0,0.0,1650849746919524.0
-1.0,-2.0,1.0,1.0,1.0,2.0,0.0,1.0,1650849746939525.0
-2.0,-1.0,-1.0,-3.0,-3.0,-8.0,-3.0,0.0,1650849746939525.0
-1.0,0.0,-2.0,-3.0,-5.0,-7.0,-1.0,-1.0,1650849746940456.0
-2.0,0.0,1.0,2.0,0.0,9.0,4.0,1.0,1650849746940456.0
0.0,0.0,2.0,3.0,1.0,5.0,2.0,0.0,1650849746954485.0
2.0,1.0,0.0,0.0,10.0,2.0,0.0,0.0,1650849746954485.0
-2.0,0.0,-1.0,-1.0,-6.0,-6.0,-2.0,-1.0,1650849746955416.0
0.0,-1.0,-1.0,0.0,0.0,-3.0,0.0,-1.0,1650849746955416.0
0.0,0.0,-1.0,-3.0,-5.0,-2.0,-2.0,0.0,1650849746977472.0
-1.0,-2.0,-1.0,-1.0,-6.0,-2.0,-1.0,-2.0,1650849746977472.0
-1.0,-1.0,-1.0,-1.0,0.0,1.0,-2.0,2.0,1650849746977472.0
0.0,-2.0,-3.0,-1.0,-2.0,-5.0,-2.0,0.0,1650849746977472.0
-1.0,-1.0,1.0,0.0,-7.0,-3.0,-1.0,-3.0,1650849746999634.0
0.0,-1.0,0.0,5.0,7.0,4.0,1.0,-1.0,1650849746999634.0
2.0,0.0,1.0,-2.0,1.0,0.0,1.0,-2.0,1650849747000632.0
1.0,1.0,0.0,-1.0,0.0,-1.0,0.0,-1.0,1650849747000632.0
1.0,0.0,-3.0,-3.0,0.0,-6.0,-2.0,-1.0,1650849747014621.0
-1.0,0.0,-1.0,0.0,-2.0,2.0,-1.0,-1.0,1650849747014621.0
-1.0,-2.0,-2.0,-2.0,-6.0,-11.0,-3.0,-2.0,1650849747015592.0
-1.0,-1.0,1.0,0.0,8.0,22.0,4.0,1.0,1650849747015592.0
1.0,-1.0,1.0,0.0,3.0,-5.0,-1.0,-1.0,1650849747037532.0
-2.0,-1.0,0.0,-1.0,-6.0,-2.0,0.0,-2.0,1650849747037532.0
-1.0,-1.0,-3.0,2.0,-6.0,2.0,1.0,0.0,1650849747037532.0
0.0,1.0,0.0,-1.0,5.0,-7.0,-3.0,1.0,1650849747037532.0
0.0,0.0,0.0,-1.0,-3.0,1.0,1.0,0.0,1650849747058891.0
1.0,-1.0,0.0,0.0,1.0,-1.0,-2.0,1.0,1650849747058891.0
-1.0,-1.0,1.0,-2.0,-1.0,-4.0,-3.0,0.0,1650849747066871.0
0.0,-1.0,-1.0,-2.0,-7.0,-3.0,-1.0,0.0,1650849747066871.0
-2.0,-3.0,0.0,-1.0,6.0,6.0,1.0,-1.0,1650849747074876.0
-1.0,-2.0,-1.0,-2.0,-7.0,-7.0,0.0,-3.0,1650849747074876.0
-1.0,0.0,-1.0,0.0,-5.0,-2.0,1.0,-2.0,1650849747074876.0
-2.0,0.0,0.0,-1.0,1.0,0.0,0.0,1.0,1650849747074876.0
0.0,-1.0,-1.0,1.0,10.0,6.0,-1.0,0.0,1650849747104838.0
-1.0,-1.0,0.0,0.0,-1.0,7.0,4.0,1.0,1650849747104838.0
1.0,-1.0,0.0,-2.0,4.0,9.0,1.0,0.0,1650849747105766.0
0.0,-1.0,2.0,-3.0,-5.0,-8.0,-2.0,-2.0,1650849747105766.0
-2.0,0.0,-3.0,-3.0,-7.0,-11.0,-4.0,-2.0,1650849747119762.0
1.0,-1.0,0.0,-1.0,-9.0,-5.0,-1.0,-1.0,1650849747119762.0
0.0,-2.0,0.0,1.0,11.0,7.0,1.0,-1.0,1650849747119762.0
0.0,-1.0,0.0,0.0,-3.0,-4.0,-2.0,0.0,1650849747119762.0
0.0,0.0,-1.0,1.0,1.0,2.0,1.0,-1.0,1650849747134716.0
0.0,0.0,-1.0,-2.0,-4.0,-2.0,-1.0,0.0,1650849747134716.0
-1.0,-1.0,1.0,-1.0,-1.0,-1.0,0.0,-1.0,1650849747135687.0
0.0,0.0,-3.0,1.0,7.0,0.0,0.0,-2.0,1650849747135687.0
-1.0,-2.0,1.0,0.0,-1.0,0.0,1.0,-1.0,1650849747156717.0
0.0,0.0,-1.0,-1.0,-12.0,-3.0,0.0,0.0,1650849747156717.0
2.0,1.0,0.0,1.0,9.0,-4.0,1.0,1.0,1650849747157716.0
-1.0,-1.0,-2.0,-2.0,0.0,4.0,-1.0,-1.0,1650849747157716.0
0.0,0.0,0.0,-1.0,-5.0,-4.0,-1.0,0.0,1650849747179686.0
-2.0,-1.0,-1.0,1.0,4.0,6.0,0.0,-1.0,1650849747179686.0
-1.0,-1.0,0.0,0.0,-1.0,4.0,1.0,1.0,1650849747180655.0
-2.0,0.0,0.0,-4.0,-9.0,-10.0,-4.0,-2.0,1650849747180655.0
1.0,-1.0,0.0,0.0,1.0,4.0,0.0,1.0,1650849747194618.0
-1.0,-2.0,-1.0,0.0,3.0,-6.0,-2.0,-2.0,1650849747194618.0
-1.0,-1.0,0.0,-1.0,-4.0,0.0,-2.0,-2.0,1650849747195614.0
0.0,-1.0,1.0,0.0,-3.0,0.0,0.0,-1.0,1650849747195614.0
-1.0,0.0,-1.0,-1.0,-1.0,-2.0,-1.0,0.0,1650849747225562.0
0.0,0.0,0.0,0.0,1.0,-1.0,-1.0,0.0,1650849747225562.0
0.0,-2.0,1.0,0.0,2.0,3.0,-1.0,0.0,1650849747225562.0
-1.0,-3.0,-2.0,-2.0,-6.0,-4.0,0.0,-1.0,1650849747225562.0
0.0,-2.0,-1.0,1.0,-4.0,-1.0,1.0,0.0,1650849747239565.0
-2.0,0.0,-1.0,-1.0,0.0,5.0,1.0,0.0,1650849747239565.0
-1.0,0.0,-1.0,1.0,5.0,-3.0,-1.0,1.0,1650849747240496.0
0.0,-1.0,-1.0,-1.0,-2.0,4.0,2.0,0.0,1650849747240496.0
0.0,-2.0,-1.0,-1.0,-1.0,-6.0,-2.0,-2.0,1650849747254971.0
-1.0,-2.0,-2.0,-3.0,-1.0,4.0,-3.0,-3.0,1650849747254971.0
1.0,-1.0,0.0,1.0,-7.0,-3.0,0.0,0.0,1650849747254971.0
-3.0,1.0,-1.0,0.0,-11.0,-6.0,0.0,1.0,1650849747254971.0
-1.0,-1.0,-1.0,2.0,19.0,8.0,3.0,2.0,1650849747276868.0
0.0,0.0,-1.0,-1.0,3.0,-5.0,1.0,0.0,1650849747276868.0
-1.0,-2.0,-1.0,-1.0,-3.0,-1.0,-3.0,-2.0,1650849747277865.0
-1.0,-1.0,-3.0,0.0,1.0,1.0,-1.0,0.0,1650849747277865.0
-1.0,0.0,-1.0,-2.0,-12.0,-8.0,-3.0,-1.0,1650849747299835.0
1.0,2.0,0.0,2.0,4.0,0.0,-1.0,1.0,1650849747299835.0
0.0,0.0,1.0,-2.0,-1.0,2.0,0.0,0.0,1650849747299835.0
0.0,0.0,0.0,1.0,5.0,1.0,-1.0,-2.0,1650849747299835.0
-1.0,0.0,0.0,-1.0,-2.0,-5.0,-2.0,-3.0,1650849747313769.0
-2.0,-1.0,0.0,0.0,4.0,2.0,-1.0,0.0,1650849747313769.0
-1.0,0.0,-1.0,-4.0,-2.0,2.0,1.0,1.0,1650849747321793.0
0.0,-2.0,1.0,-1.0,3.0,0.0,0.0,0.0,1650849747321793.0
-1.0,0.0,-2.0,0.0,-5.0,-1.0,-1.0,0.0,1650849747336709.0
-1.0,-3.0,-1.0,-3.0,-3.0,-4.0,-1.0,-2.0,1650849747336709.0
-2.0,0.0,0.0,1.0,0.0,-12.0,-6.0,-2.0,1650849747337705.0
0.0,0.0,-1.0,1.0,4.0,19.0,5.0,1.0,1650849747337705.0
0.0,-2.0,-1.0,0.0,8.0,2.0,-1.0,0.0,1650849747359642.0
0.0,-1.0,0.0,-5.0,-9.0,-4.0,-1.0,0.0,1650849747359642.0
0.0,-1.0,-1.0,0.0,-1.0,-6.0,-1.0,-2.0,1650849747360573.0
-1.0,0.0,0.0,-1.0,-1.0,-7.0,0.0,0.0,1650849747360573.0
1.0,0.0,0.0,1.0,4.0,8.0,2.0,-2.0,1650849747381661.0
-1.0,0.0,0.0,1.0,2.0,0.0,0.0,0.0,1650849747381661.0
0.0,-2.0,0.0,-3.0,-3.0,-3.0,-3.0,-1.0,1650849747382630.0
-2.0,1.0,0.0,0.0,-12.0,-7.0,-1.0,-1.0,1650849747382630.0
0.0,-1.0,1.0,0.0,0.0,6.0,0.0,1.0,1650849747396740.0
-3.0,0.0,0.0,1.0,-1.0,-4.0,1.0,-2.0,1650849747396740.0
1.0,1.0,1.0,-1.0,8.0,10.0,2.0,1.0,1650849747397717.0
1.0,-2.0,-1.0,-1.0,1.0,-3.0,-3.0,-2.0,1650849747397717.0
-3.0,-2.0,-1.0,-3.0,-9.0,-6.0,-1.0,-1.0,1650849747419658.0
1.0,-1.0,-1.0,-1.0,-1.0,-2.0,-2.0,0.0,1650849747419658.0
1.0,-1.0,-1.0,1.0,-4.0,-1.0,-1.0,0.0,1650849747420656.0
1.0,1.0,0.0,-1.0,-2.0,-2.0,-2.0,-1.0,1650849747420656.0
0.0,1.0,1.0,2.0,5.0,12.0,3.0,1.0,1650849747433650.0
-1.0,-1.0,0.0,0.0,-1.0,-2.0,-1.0,1.0,1650849747433650.0
-2.0,0.0,1.0,0.0,-3.0,1.0,-1.0,0.0,1650849747441638.0
1.0,-1.0,0.0,0.0,-1.0,-7.0,-2.0,-1.0,1650849747441638.0
0.0,0.0,-1.0,-2.0,-3.0,-1.0,-1.0,-1.0,1650849747456868.0
1.0,0.0,0.0,-3.0,6.0,5.0,1.0,-2.0,1650849747456868.0
0.0,-1.0,-2.0,-1.0,-3.0,-2.0,0.0,-1.0,1650849747457869.0
-1.0,0.0,-1.0,0.0,1.0,-6.0,-3.0,-1.0,1650849747457869.0
0.0,-2.0,-1.0,-3.0,-6.0,-2.0,-2.0,-1.0,1650849747479896.0
0.0,2.0,0.0,1.0,-10.0,3.0,0.0,0.0,1650849747479896.0
-1.0,0.0,-2.0,1.0,10.0,2.0,0.0,-1.0,1650849747479896.0
-1.0,0.0,1.0,-1.0,-5.0,-3.0,-1.0,-1.0,1650849747479896.0
-1.0,1.0,-1.0,2.0,5.0,1.0,1.0,0.0,1650849747501835.0
0.0,-2.0,-2.0,-2.0,-1.0,-5.0,-1.0,-2.0,1650849747501835.0
1.0,0.0,-3.0,-1.0,-6.0,-1.0,0.0,0.0,1650849747502823.0
0.0,-2.0,0.0,-1.0,1.0,-3.0,-1.0,-1.0,1650849747502823.0
0.0,-1.0,3.0,0.0,5.0,13.0,3.0,-1.0,1650849747524793.0
1.0,-3.0,-1.0,-2.0,-3.0,-2.0,-1.0,0.0,1650849747524793.0
0.0,0.0,1.0,2.0,2.0,5.0,1.0,1.0,1650849747525753.0
-1.0,0.0,-1.0,-2.0,2.0,-2.0,-1.0,-2.0,1650849747525753.0
-1.0,0.0,-1.0,1.0,-1.0,-4.0,-1.0,0.0,1650849747539746.0
-1.0,0.0,-1.0,-2.0,-1.0,-1.0,0.0,-2.0,1650849747539746.0
-1.0,0.0,-2.0,-2.0,-4.0,-4.0,-1.0,-3.0,1650849747539746.0
0.0,-1.0,0.0,1.0,0.0,1.0,0.0,0.0,1650849747539746.0
-1.0,1.0,0.0,-3.0,2.0,-2.0,0.0,0.0,1650849747561682.0
-1.0,0.0,1.0,0.0,-3.0,-2.0,0.0,0.0,1650849747561682.0
-1.0,-1.0,-2.0,-2.0,-12.0,-4.0,0.0,0.0,1650849747562653.0
1.0,1.0,0.0,1.0,17.0,9.0,2.0,0.0,1650849747562653.0
-1.0,-1.0,-2.0,-4.0,-8.0,-8.0,-3.0,-2.0,1650849747585596.0
0.0,-1.0,0.0,1.0,1.0,-1.0,0.0,-1.0,1650849747585596.0
0.0,-1.0,-1.0,-5.0,-5.0,-13.0,-2.0,-1.0,1650849747586589.0
-1.0,-2.0,-2.0,1.0,1.0,23.0,4.0,1.0,1650849747586589.0
0.0,-3.0,0.0,0.0,-1.0,-6.0,-2.0,-1.0,1650849747599583.0
0.0,-2.0,-2.0,0.0,-1.0,0.0,-2.0,-1.0,1650849747599583.0
1.0,-1.0,0.0,0.0,0.0,-4.0,-3.0,-1.0,1650849747600571.0
-1.0,1.0,-1.0,-1.0,-3.0,-5.0,0.0,-1.0,1650849747600571.0
2.0,0.0,-2.0,-1.0,3.0,4.0,0.0,0.0,1650849747630598.0
-1.0,1.0,-1.0,-4.0,-5.0,-8.0,0.0,1.0,1650849747630598.0
-1.0,-1.0,0.0,0.0,2.0,9.0,-1.0,0.0,1650849747630598.0
0.0,1.0,-1.0,3.0,0.0,-3.0,2.0,1.0,1650849747630598.0
-1.0,-2.0,1.0,1.0,-5.0,-5.0,-1.0,-1.0,1650849747645556.0
0.0,0.0,0.0,2.0,12.0,3.0,-1.0,0.0,1650849747645556.0
-2.0,-2.0,-2.0,-1.0,-5.0,-4.0,0.0,-1.0,1650849747645556.0
-3.0,-1.0,-1.0,0.0,-3.0,1.0,-1.0,-1.0,1650849747645556.0
-2.0,-2.0,-1.0,-3.0,-9.0,-6.0,-2.0,-4.0,1650849747659519.0
1.0,1.0,1.0,2.0,10.0,16.0,6.0,2.0,1650849747659519.0
-1.0,-1.0,-1.0,-2.0,-4.0,-1.0,-1.0,-1.0,1650849747660492.0
1.0,-1.0,-1.0,-1.0,1.0,-3.0,-3.0,0.0,1650849747660492.0
-2.0,0.0,-2.0,-1.0,-1.0,-10.0,-4.0,-1.0,1650849747681462.0
-1.0,0.0,1.0,-1.0,-7.0,-6.0,-3.0,-1.0,1650849747681462.0
1.0,0.0,0.0,1.0,4.0,11.0,3.0,0.0,1650849747682460.0
-2.0,-3.0,0.0,-1.0,2.0,-7.0,0.0,-1.0,1650849747682460.0
0.0,0.0,-2.0,0.0,3.0,6.0,1.0,1.0,1650849747705465.0
-1.0,-1.0,0.0,-1.0,-3.0,-3.0,-2.0,-1.0,1650849747705465.0
-1.0,1.0,-2.0,0.0,-1.0,-5.0,-2.0,1.0,1650849747706396.0
0.0,1.0,1.0,0.0,-2.0,2.0,-2.0,-1.0,1650849747706396.0
-2.0,0.0,1.0,-1.0,2.0,-4.0,0.0,-1.0,1650849747719361.0
-1.0,-4.0,-1.0,-1.0,-5.0,0.0,-3.0,-1.0,1650849747719361.0
-1.0,1.0,-1.0,2.0,10.0,0.0,2.0,-1.0,1650849747720370.0
-2.0,-1.0,0.0,0.0,-9.0,-7.0,-2.0,-1.0,1650849747720370.0
0.0,-1.0,0.0,1.0,7.0,17.0,5.0,2.0,1650849747742364.0
1.0,-1.0,0.0,-2.0,-8.0,-10.0,-3.0,-2.0,1650849747742364.0
-1.0,0.0,0.0,-2.0,0.0,0.0,1.0,-1.0,1650849747742364.0
1.0,-1.0,-1.0,-3.0,0.0,-5.0,0.0,0.0,1650849747742364.0
-1.0,-2.0,-1.0,-2.0,-5.0,-6.0,-2.0,1.0,1650849747765238.0
-2.0,-2.0,0.0,-1.0,3.0,4.0,0.0,1.0,1650849747765238.0
-1.0,-1.0,-1.0,1.0,1.0,-4.0,0.0,0.0,1650849747766236.0
-1.0,0.0,-2.0,-2.0,-2.0,3.0,1.0,0.0,1650849747766236.0
1.0,0.0,1.0,1.0,-5.0,1.0,1.0,-2.0,1650849747780197.0
0.0,0.0,-1.0,2.0,8.0,-3.0,1.0,-1.0,1650849747780197.0
-1.0,-2.0,-1.0,-2.0,-8.0,-2.0,0.0,-1.0,1650849747780197.0
0.0,1.0,-2.0,-1.0,-1.0,0.0,0.0,0.0,1650849747780197.0
0.0,1.0,-2.0,-1.0,3.0,-5.0,-1.0,0.0,1650849747802140.0
-3.0,1.0,-2.0,0.0,-2.0,-3.0,-1.0,-1.0,1650849747802140.0
-1.0,-1.0,0.0,1.0,0.0,5.0,-1.0,-1.0,1650849747803138.0
0.0,-1.0,0.0,-1.0,2.0,6.0,3.0,2.0,1650849747803138.0
0.0,0.0,-1.0,-1.0,-4.0,-4.0,-1.0,-1.0,1650849747825164.0
0.0,0.0,0.0,0.0,0.0,1.0,1.0,-1.0,1650849747825164.0
0.0,-1.0,1.0,-2.0,-1.0,-9.0,-4.0,1.0,1650849747826164.0
-2.0,-1.0,-1.0,-1.0,4.0,1.0,0.0,0.0,1650849747826164.0
0.0,-2.0,-1.0,0.0,-2.0,1.0,-1.0,-1.0,1650849747839200.0
0.0,0.0,1.0,-3.0,-1.0,-4.0,0.0,-1.0,1650849747839200.0
-1.0,1.0,0.0,1.0,-5.0,7.0,2.0,1.0,1650849747847135.0
-1.0,-1.0,1.0,2.0,9.0,1.0,-1.0,-1.0,1650849747847135.0
-1.0,0.0,0.0,-2.0,0.0,-3.0,-1.0,-1.0,1650849747862067.0
-1.0,0.0,-3.0,-2.0,-5.0,-4.0,-2.0,-1.0,1650849747862067.0
0.0,-1.0,-1.0,-1.0,-1.0,-2.0,0.0,0.0,1650849747863065.0
-1.0,-1.0,-3.0,-2.0,-10.0,-16.0,-2.0,-1.0,1650849747863065.0
-1.0,-1.0,1.0,0.0,-3.0,5.0,-1.0,-1.0,1650849747885142.0
1.0,-3.0,3.0,3.0,15.0,13.0,5.0,3.0,1650849747885142.0
0.0,0.0,-1.0,-2.0,3.0,0.0,-1.0,0.0,1650849747886139.0
1.0,1.0,-3.0,-1.0,-2.0,-1.0,-2.0,0.0,1650849747886139.0
0.0,-1.0,-1.0,-4.0,-9.0,-14.0,-6.0,-1.0,1650849747900132.0
0.0,0.0,-3.0,-1.0,-9.0,-1.0,0.0,-1.0,1650849747900132.0
0.0,1.0,0.0,-1.0,1.0,4.0,2.0,0.0,1650849747901099.0
-1.0,-1.0,0.0,2.0,15.0,8.0,1.0,0.0,1650849747901099.0
-1.0,0.0,0.0,0.0,-3.0,-6.0,0.0,0.0,1650849747922111.0
0.0,0.0,-1.0,0.0,-2.0,3.0,-2.0,-1.0,1650849747922111.0
-2.0,1.0,-1.0,0.0,4.0,-2.0,1.0,-1.0,1650849747923041.0
0.0,-3.0,-2.0,-3.0,-11.0,-4.0,-2.0,-2.0,1650849747923041.0
-1.0,-1.0,-1.0,1.0,3.0,3.0,1.0,1.0,1650849747945012.0
-2.0,-1.0,2.0,-2.0,-2.0,-2.0,-1.0,-1.0,1650849747945012.0
0.0,-1.0,-1.0,-1.0,-8.0,-12.0,-3.0,-3.0,1650849747945980.0
-1.0,0.0,0.0,0.0,0.0,8.0,1.0,-1.0,1650849747945980.0
2.0,1.0,-1.0,1.0,8.0,5.0,2.0,1.0,1650849747959943.0
1.0,0.0,-3.0,-1.0,-2.0,-5.0,-4.0,-2.0,1650849747959943.0
0.0,-1.0,-1.0,-1.0,-3.0,1.0,1.0,1.0,1650849747959943.0
0.0,1.0,-1.0,-2.0,2.0,-1.0,-2.0,0.0,1650849747959943.0
0.0,-2.0,-1.0,-2.0,-4.0,-3.0,0.0,0.0,1650849747981474.0
0.0,-1.0,0.0,0.0,-5.0,-3.0,-1.0,-1.0,1650849747981474.0
-1.0,-2.0,0.0,0.0,1.0,-2.0,0.0,-3.0,1650849747982459.0
-1.0,0.0,2.0,-1.0,2.0,3.0,2.0,0.0,1650849747982459.0
-1.0,0.0,-2.0,1.0,0.0,6.0,-1.0,1.0,1650849748005639.0
0.0,1.0,0.0,0.0,7.0,-1.0,0.0,-1.0,1650849748005639.0
-1.0,-2.0,0.0,-3.0,-3.0,-1.0,-1.0,0.0,1650849748005639.0
1.0,0.0,0.0,0.0,-7.0,-7.0,-1.0,-2.0,1650849748005639.0
-2.0,0.0,-1.0,-1.0,-4.0,-9.0,-2.0,-3.0,1650849748018634.0
0.0,0.0,0.0,1.0,0.0,20.0,3.0,0.0,1650849748018634.0
-1.0,0.0,-1.0,0.0,10.0,0.0,0.0,-1.0,1650849748026612.0
0.0,-1.0,0.0,-2.0,-7.0,-4.0,0.0,0.0,1650849748026612.0
-1.0,-1.0,0.0,-1.0,0.0,-6.0,-2.0,0.0,1650849748041612.0
0.0,-3.0,-3.0,-2.0,-3.0,-9.0,-3.0,-1.0,1650849748041612.0
-1.0,-1.0,2.0,1.0,2.0,3.0,-2.0,-1.0,1650849748042550.0
-1.0,-1.0,-2.0,-2.0,-11.0,-7.0,-2.0,-1.0,1650849748042550.0
-1.0,0.0,-1.0,1.0,-1.0,0.0,0.0,0.0,1650849748065508.0
0.0,0.0,1.0,3.0,14.0,11.0,2.0,1.0,1650849748065508.0
-1.0,-1.0,0.0,1.0,-8.0,2.0,0.0,0.0,1650849748065508.0
-2.0,0.0,-1.0,-2.0,5.0,-4.0,-2.0,-1.0,1650849748065508.0
0.0,-2.0,-2.0,-4.0,-5.0,-3.0,-2.0,-3.0,1650849748078473.0
-3.0,-2.0,-1.0,-1.0,-6.0,-7.0,-1.0,-1.0,1650849748078473.0
0.0,0.0,-1.0,-2.0,-2.0,-9.0,-1.0,-1.0,1650849748094952.0
1.0,-1.0,0.0,2.0,7.0,24.0,4.0,1.0,1650849748094952.0
0.0,1.0,-1.0,-1.0,2.0,-2.0,2.0,-1.0,1650849748101496.0
-1.0,0.0,-1.0,-2.0,-10.0,-8.0,-2.0,0.0,1650849748101496.0
-1.0,0.0,-1.0,-1.0,3.0,-1.0,-1.0,1.0,1650849748102465.0
-1.0,-1.0,1.0,0.0,-6.0,-11.0,-4.0,0.0,1650849748102465.0
0.0,-1.0,1.0,2.0,0.0,6.0,1.0,-1.0,1650849748124962.0
2.0,-2.0,1.0,-1.0,8.0,-1.0,2.0,0.0,1650849748124962.0
1.0,0.0,-1.0,-2.0,-11.0,-9.0,-2.0,-2.0,1650849748124962.0
0.0,0.0,1.0,1.0,12.0,11.0,1.0,-1.0,1650849748124962.0
0.0,-2.0,1.0,0.0,2.0,2.0,0.0,0.0,1650849748138994.0
-2.0,-1.0,-1.0,-1.0,-6.0,-8.0,-2.0,-1.0,1650849748138994.0
-1.0,-2.0,-1.0,1.0,-8.0,6.0,1.0,0.0,1650849748147049.0
0.0,0.0,1.0,1.0,5.0,0.0,-1.0,0.0,1650849748147049.0
0.0,-1.0,-2.0,0.0,5.0,1.0,-1.0,-1.0,1650849748162010.0
-2.0,-2.0,1.0,-2.0,-7.0,-10.0,-1.0,-2.0,1650849748162010.0
-1.0,0.0,-2.0,-1.0,2.0,5.0,0.0,-2.0,1650849748162980.0
0.0,-1.0,-1.0,0.0,-6.0,4.0,3.0,0.0,1650849748162980.0
0.0,1.0,0.0,-2.0,4.0,-1.0,-2.0,0.0,1650849748184037.0
0.0,-1.0,-2.0,-1.0,0.0,2.0,-2.0,-1.0,1650849748184037.0
-2.0,-1.0,-1.0,-1.0,-2.0,-5.0,-2.0,-1.0,1650849748185024.0
-1.0,-1.0,1.0,-3.0,-8.0,-13.0,-2.0,-2.0,1650849748185024.0
0.0,-1.0,0.0,4.0,6.0,6.0,4.0,0.0,1650849748198997.0
-1.0,1.0,1.0,1.0,2.0,3.0,1.0,1.0,1650849748198997.0
1.0,0.0,1.0,1.0,7.0,5.0,-1.0,1.0,1650849748206895.0
-2.0,-4.0,-3.0,-2.0,-5.0,-3.0,-2.0,-1.0,1650849748206895.0
-1.0,0.0,0.0,-2.0,-6.0,-4.0,-1.0,0.0,1650849748221857.0
1.0,-1.0,0.0,-2.0,-5.0,-5.0,-1.0,-1.0,1650849748221857.0
-2.0,-2.0,-1.0,1.0,-6.0,3.0,1.0,-1.0,1650849748222854.0
1.0,-1.0,-1.0,3.0,10.0,3.0,0.0,0.0,1650849748222854.0
-1.0,-1.0,-2.0,-1.0,2.0,0.0,-2.0,0.0,1650849748244795.0
0.0,0.0,-2.0,-2.0,-3.0,-3.0,-1.0,-1.0,1650849748244795.0
0.0,1.0,0.0,-2.0,-5.0,-2.0,0.0,1.0,1650849748244795.0
0.0,0.0,0.0,-1.0,-9.0,-17.0,-3.0,-2.0,1650849748244795.0
0.0,0.0,-1.0,0.0,5.0,20.0,4.0,2.0,1650849748258785.0
-1.0,0.0,-1.0,-1.0,2.0,-2.0,-1.0,-1.0,1650849748258785.0
-1.0,-1.0,-3.0,-1.0,6.0,-1.0,-1.0,0.0,1650849748266761.0
0.0,0.0,-1.0,-3.0,-12.0,-10.0,-2.0,-2.0,1650849748266761.0
1.0,-1.0,-1.0,0.0,2.0,0.0,-2.0,-1.0,1650849748281784.0
0.0,-1.0,-1.0,0.0,-3.0,2.0,2.0,-1.0,1650849748281784.0
0.0,-1.0,-2.0,0.0,1.0,3.0,1.0,-2.0,1650849748282783.0
-1.0,1.0,1.0,0.0,7.0,1.0,0.0,0.0,1650849748282783.0
-2.0,-1.0,-2.0,-4.0,-5.0,-11.0,-3.0,0.0,1650849748304724.0
-1.0,-2.0,1.0,-1.0,-9.0,4.0,1.0,-1.0,1650849748304724.0
-1.0,-1.0,1.0,0.0,8.0,2.0,2.0,1.0,1650849748304724.0
0.0,-1.0,-2.0,0.0,1.0,2.0,-1.0,0.0,1650849748304724.0
0.0,1.0,1.0,1.0,1.0,-1.0,-1.0,-2.0,1650849748318706.0
-1.0,-1.0,-1.0,-1.0,1.0,-2.0,-1.0,-1.0,1650849748318706.0
-2.0,-2.0,-1.0,-2.0,-7.0,-12.0,-2.0,-2.0,1650849748326665.0
0.0,0.0,0.0,0.0,4.0,20.0,2.0,1.0,1650849748326665.0
0.0,0.0,0.0,0.0,-4.0,-6.0,0.0,1.0,1650849748341664.0
1.0,0.0,-3.0,1.0,-1.0,0.0,-3.0,-1.0,1650849748341664.0
0.0,1.0,-1.0,-1.0,-2.0,-3.0,-1.0,-1.0,1650849748342623.0
-1.0,-3.0,-1.0,0.0,-1.0,-2.0,-2.0,0.0,1650849748342623.0
-1.0,-1.0,1.0,-1.0,-4.0,1.0,2.0,-1.0,1650849748372894.0
0.0,-1.0,-1.0,-1.0,0.0,0.0,0.0,1.0,1650849748372894.0
-1.0,-2.0,1.0,0.0,4.0,3.0,-1.0,-1.0,1650849748373857.0
-1.0,-1.0,-2.0,-3.0,0.0,-10.0,-2.0,-1.0,1650849748373857.0
-1.0,-1.0,-1.0,-1.0,-2.0,5.0,1.0,1.0,1650849748387786.0
-1.0,1.0,1.0,2.0,-1.0,-1.0,1.0,0.0,1650849748387786.0
-1.0,0.0,0.0,0.0,-2.0,-2.0,0.0,-1.0,1650849748388804.0
0.0,-1.0,0.0,0.0,-5.0,4.0,1.0,0.0,1650849748388804.0
-1.0,-2.0,-3.0,1.0,3.0,-5.0,-3.0,-2.0,1650849748401748.0
-1.0,-1.0,-1.0,-3.0,-1.0,0.0,0.0,-1.0,1650849748401748.0
-1.0,-1.0,2.0,-4.0,-7.0,-15.0,-4.0,0.0,1650849748402746.0
0.0,0.0,1.0,0.0,-3.0,10.0,0.0,0.0,1650849748402746.0
1.0,0.0,-1.0,2.0,2.0,6.0,4.0,1.0,1650849748424715.0
0.0,-2.0,-3.0,0.0,5.0,-3.0,-1.0,-1.0,1650849748424715.0
0.0,-1.0,-3.0,-1.0,-3.0,-3.0,-2.0,-1.0,1650849748425684.0
-2.0,-1.0,0.0,0.0,2.0,-3.0,-3.0,-1.0,1650849748425684.0
0.0,-1.0,1.0,-1.0,-4.0,-2.0,-2.0,0.0,1650849748447659.0
-1.0,0.0,0.0,-1.0,-2.0,1.0,-2.0,0.0,1650849748447659.0
-1.0,-1.0,-1.0,3.0,3.0,-2.0,1.0,1.0,1650849748448624.0
-1.0,-1.0,0.0,-2.0,0.0,0.0,-1.0,-2.0,1650849748448624.0
-1.0,-1.0,-1.0,-1.0,2.0,3.0,1.0,-1.0,1650849748461619.0
-1.0,-1.0,0.0,-1.0,-3.0,-3.0,0.0,0.0,1650849748461619.0
1.0,0.0,-2.0,1.0,8.0,6.0,-1.0,-1.0,1650849748462586.0
0.0,-2.0,-2.0,-4.0,-4.0,-10.0,-1.0,0.0,1650849748462586.0
-1.0,-1.0,0.0,-1.0,-18.0,-2.0,2.0,-2.0,1650849748484528.0
-1.0,0.0,0.0,1.0,13.0,0.0,-1.0,0.0,1650849748484528.0
0.0,1.0,2.0,0.0,7.0,8.0,1.0,1.0,1650849748485526.0
-2.0,0.0,1.0,0.0,2.0,-1.0,0.0,0.0,1650849748485526.0
-1.0,0.0,-2.0,-2.0,-4.0,-7.0,-5.0,-1.0,1650849748507506.0
1.0,-2.0,0.0,-3.0,-10.0,-16.0,-4.0,-1.0,1650849748507506.0
0.0,-2.0,-1.0,0.0,2.0,18.0,2.0,0.0,1650849748508476.0
0.0,-2.0,0.0,1.0,1.0,-6.0,1.0,-1.0,1650849748508476.0
-3.0,0.0,0.0,0.0,7.0,2.0,-1.0,-2.0,1650849748522441.0
-1.0,-1.0,-1.0,-4.0,-7.0,1.0,0.0,-1.0,1650849748522441.0
0.0,1.0,0.0,0.0,2.0,-5.0,-2.0,0.0,1650849748522441.0
-1.0,0.0,-2.0,-1.0,-7.0,-4.0,0.0,0.0,1650849748522441.0
1.0,-2.0,0.0,0.0,11.0,-1.0,-1.0,1.0,1650849748544904.0
0.0,-1.0,0.0,0.0,-1.0,3.0,0.0,-1.0,1650849748544904.0
-1.0,-1.0,0.0,-1.0,-14.0,-3.0,0.0,-2.0,1650849748545391.0
2.0,1.0,-1.0,2.0,9.0,6.0,1.0,-1.0,1650849748545391.0
-1.0,0.0,-1.0,-1.0,-1.0,-6.0,1.0,-1.0,1650849748567334.0
-2.0,0.0,-1.0,-2.0,4.0,1.0,-2.0,-2.0,1650849748567334.0
-1.0,0.0,0.0,-2.0,-6.0,-5.0,1.0,1.0,1650849748568339.0
1.0,0.0,-2.0,-2.0,-4.0,-1.0,0.0,-1.0,1650849748568339.0
0.0,-1.0,2.0,2.0,0.0,0.0,-3.0,-1.0,1650849748582322.0
-1.0,-1.0,-2.0,2.0,4.0,1.0,-3.0,-1.0,1650849748582322.0
-1.0,0.0,-1.0,0.0,0.0,11.0,3.0,1.0,1650849748582322.0
-2.0,-1.0,0.0,-1.0,4.0,2.0,-1.0,-1.0,1650849748582322.0
0.0,-3.0,0.0,-1.0,-5.0,-1.0,1.0,1.0,1650849748604236.0
0.0,-1.0,0.0,-1.0,1.0,-8.0,-1.0,0.0,1650849748604236.0
-2.0,-1.0,-2.0,-2.0,0.0,-3.0,0.0,0.0,1650849748605234.0
-1.0,1.0,-2.0,-2.0,-1.0,5.0,0.0,1.0,1650849748605234.0
-1.0,-1.0,-2.0,0.0,-4.0,-4.0,-2.0,1.0,1650849748627962.0
-1.0,-1.0,0.0,-3.0,-4.0,1.0,-1.0,0.0,1650849748627962.0
-1.0,-2.0,1.0,-2.0,-6.0,-7.0,-4.0,-3.0,1650849748628892.0
-1.0,0.0,-1.0,0.0,7.0,1.0,0.0,-1.0,1650849748628892.0
-1.0,-1.0,-2.0,-2.0,2.0,-1.0,-1.0,-1.0,1650849748641919.0
-2.0,2.0,-2.0,0.0,1.0,1.0,0.0,0.0,1650849748641919.0
1.0,0.0,-3.0,1.0,0.0,-2.0,-3.0,0.0,1650849748642856.0
1.0,-2.0,-2.0,-1.0,-5.0,-6.0,-2.0,-1.0,1650849748642856.0
0.0,1.0,0.0,-1.0,-4.0,-2.0,-2.0,-1.0,1650849748664797.0
2.0,-1.0,1.0,-1.0,-1.0,-2.0,-1.0,-1.0,1650849748664797.0
-1.0,1.0,0.0,4.0,20.0,25.0,5.0,2.0,1650849748664797.0
0.0,-1.0,-2.0,-2.0,-6.0,-6.0,-1.0,0.0,1650849748664797.0
0.0,-2.0,-2.0,-2.0,-5.0,-6.0,0.0,-1.0,1650849748687748.0
-1.0,-1.0,0.0,-3.0,-1.0,-1.0,-1.0,-1.0,1650849748687748.0
2.0,-2.0,-1.0,-3.0,-5.0,-7.0,-2.0,-2.0,1650849748688732.0
-1.0,-1.0,0.0,1.0,0.0,3.0,0.0,-1.0,1650849748688732.0
-1.0,0.0,0.0,-1.0,3.0,3.0,1.0,0.0,1650849748702724.0
-1.0,0.0,-2.0,-1.0,-6.0,-2.0,-1.0,0.0,1650849748702724.0
-2.0,-2.0,-2.0,0.0,-8.0,-6.0,-1.0,0.0,1650849748703693.0
-1.0,1.0,0.0,3.0,8.0,2.0,1.0,0.0,1650849748703693.0
-1.0,-1.0,-1.0,-1.0,-2.0,-1.0,1.0,-2.0,1650849748724703.0
0.0,-1.0,0.0,2.0,0.0,4.0,2.0,-1.0,1650849748724703.0
0.0,0.0,0.0,-2.0,-1.0,-2.0,0.0,-1.0,1650849748731649.0
-2.0,1.0,0.0,0.0,-4.0,-7.0,-2.0,0.0,1650849748731649.0
0.0,-2.0,0.0,-1.0,-2.0,3.0,-2.0,1.0,1650849748747574.0
1.0,1.0,-1.0,1.0,1.0,4.0,1.0,1.0,1650849748747574.0
0.0,1.0,-2.0,0.0,5.0,12.0,3.0,-1.0,1650849748748572.0
0.0,-1.0,0.0,-1.0,-1.0,-4.0,-2.0,-3.0,1650849748748572.0
1.0,0.0,0.0,0.0,0.0,-2.0,-3.0,-1.0,1650849748770514.0
-2.0,-1.0,-1.0,0.0,-5.0,-6.0,-3.0,-2.0,1650849748770514.0
-2.0,0.0,-2.0,1.0,10.0,0.0,-2.0,-1.0,1650849748770514.0
0.0,-1.0,-1.0,-4.0,-6.0,-2.0,-1.0,1.0,1650849748770514.0
-3.0,0.0,0.0,-2.0,-11.0,-5.0,-1.0,0.0,1650849748784476.0
-1.0,-1.0,0.0,3.0,15.0,4.0,1.0,1.0,1650849748784476.0
0.0,-1.0,0.0,-3.0,-7.0,-8.0,-3.0,-1.0,1650849748785473.0
-3.0,0.0,0.0,3.0,3.0,3.0,-1.0,-2.0,1650849748785473.0
0.0,0.0,-2.0,-2.0,0.0,-1.0,0.0,0.0,1650849748807482.0
1.0,-1.0,0.0,-1.0,-6.0,7.0,2.0,-1.0,1650849748807482.0
0.0,-3.0,0.0,-1.0,-2.0,-6.0,1.0,1.0,1650849748808412.0
0.0,0.0,-1.0,0.0,3.0,4.0,1.0,-2.0,1650849748808412.0
0.0,2.0,1.0,-2.0,-1.0,-10.0,-4.0,-2.0,1650849748821378.0
-1.0,-1.0,-1.0,-1.0,-3.0,8.0,-2.0,-2.0,1650849748821378.0
1.0,1.0,1.0,2.0,3.0,-2.0,-1.0,0.0,1650849748829356.0
1.0,-1.0,0.0,-1.0,-11.0,-6.0,0.0,-1.0,1650849748829356.0
-1.0,0.0,-1.0,-1.0,-2.0,1.0,0.0,-1.0,1650849748844316.0
0.0,1.0,-2.0,0.0,9.0,-4.0,1.0,-1.0,1650849748844316.0
-1.0,-1.0,-1.0,-3.0,-7.0,-9.0,-2.0,-2.0,1650849748845313.0
0.0,-2.0,-1.0,0.0,-2.0,2.0,-1.0,-1.0,1650849748845313.0
1.0,1.0,-2.0,0.0,3.0,-1.0,1.0,1.0,1650849748867278.0
-1.0,1.0,0.0,-2.0,-5.0,5.0,1.0,1.0,1650849748867278.0
-1.0,0.0,0.0,1.0,2.0,4.0,1.0,0.0,1650849748868253.0
0.0,0.0,2.0,-1.0,-2.0,-4.0,0.0,0.0,1650849748868253.0
1.0,-3.0,1.0,-1.0,4.0,1.0,-1.0,-2.0,1650849748882242.0
0.0,-2.0,-2.0,-2.0,-10.0,-9.0,0.0,0.0,1650849748882242.0
-2.0,0.0,0.0,-2.0,-1.0,0.0,-1.0,-1.0,1650849748883212.0
-2.0,0.0,-1.0,0.0,0.0,6.0,0.0,-1.0,1650849748883212.0
0.0,1.0,-1.0,4.0,8.0,9.0,4.0,2.0,1650849748904402.0
-2.0,0.0,-2.0,-2.0,-5.0,-4.0,-2.0,-1.0,1650849748904402.0
-1.0,0.0,0.0,-2.0,-1.0,-4.0,-1.0,-3.0,1650849748905372.0
-1.0,-2.0,-1.0,0.0,-1.0,-9.0,-3.0,-1.0,1650849748905372.0
-1.0,-2.0,-2.0,0.0,-1.0,-2.0,-3.0,-3.0,1650849748927975.0
0.0,-2.0,-3.0,-1.0,4.0,8.0,1.0,-1.0,1650849748927975.0
-1.0,-1.0,-1.0,0.0,-6.0,1.0,0.0,-1.0,1650849748928945.0
-1.0,2.0,0.0,-2.0,8.0,5.0,1.0,1.0,1650849748928945.0
0.0,-2.0,-2.0,-4.0,-4.0,-3.0,-1.0,-1.0,1650849748941877.0
-1.0,0.0,0.0,0.0,-6.0,-6.0,-4.0,0.0,1650849748941877.0
0.0,2.0,-1.0,0.0,9.0,1.0,-2.0,2.0,1650849748949848.0
-1.0,-2.0,-1.0,-1.0,-6.0,-1.0,-2.0,1.0,1650849748949848.0
0.0,0.0,-2.0,0.0,-4.0,-1.0,0.0,-1.0,1650849748964809.0
-1.0,-1.0,0.0,2.0,0.0,-4.0,0.0,-1.0,1650849748964809.0
1.0,-1.0,-1.0,-1.0,-2.0,-8.0,-2.0,0.0,1650849748964809.0
-1.0,-1.0,-1.0,-2.0,1.0,9.0,0.0,1.0,1650849748964809.0
-1.0,0.0,0.0,4.0,7.0,6.0,4.0,1.0,1650849748987778.0
-1.0,0.0,-1.0,-2.0,-1.0,-1.0,-2.0,-2.0,1650849748987778.0
0.0,-1.0,1.0,-3.0,-6.0,-6.0,-2.0,-1.0,1650849748988747.0
0.0,1.0,-1.0,-1.0,-4.0,-14.0,-4.0,-1.0,1650849748988747.0
-1.0,-1.0,-1.0,-1.0,-3.0,2.0,0.0,-1.0,1650849749001741.0
1.0,1.0,2.0,1.0,-1.0,7.0,4.0,1.0,1650849749001741.0
-1.0,0.0,-1.0,3.0,14.0,3.0,-1.0,-1.0,1650849749009758.0
-1.0,-3.0,-1.0,-3.0,-3.0,-4.0,-1.0,-1.0,1650849749009758.0
-1.0,-1.0,-2.0,-2.0,-7.0,-6.0,-2.0,-1.0,1650849749024922.0
0.0,-2.0,-1.0,-2.0,-13.0,-5.0,1.0,0.0,1650849749024922.0
1.0,1.0,-1.0,2.0,9.0,4.0,0.0,1.0,1650849749024922.0
0.0,1.0,2.0,1.0,0.0,4.0,1.0,-1.0,1650849749024922.0
-1.0,-2.0,-1.0,2.0,5.0,4.0,-1.0,0.0,1650849749048009.0
-1.0,-2.0,0.0,-1.0,-3.0,-7.0,-3.0,-1.0,1650849749048009.0
-1.0,-1.0,-2.0,-1.0,-7.0,0.0,1.0,-1.0,1650849749048993.0
-1.0,0.0,-1.0,2.0,1.0,2.0,2.0,0.0,1650849749048993.0
0.0,0.0,-1.0,-2.0,-3.0,-7.0,-2.0,-1.0,1650849749061014.0
1.0,-1.0,0.0,-1.0,1.0,-10.0,-3.0,-1.0,1650849749061014.0
-1.0,-2.0,-2.0,-3.0,-2.0,17.0,1.0,-2.0,1650849749069922.0
2.0,0.0,1.0,-2.0,-5.0,-1.0,1.0,1.0,1650849749069922.0
-1.0,0.0,2.0,-2.0,-2.0,-4.0,-1.0,-1.0,1650849749084898.0
-1.0,-1.0,0.0,1.0,9.0,5.0,2.0,0.0,1650849749084898.0
-2.0,-1.0,-1.0,-3.0,0.0,-4.0,-2.0,-1.0,1650849749084898.0
-2.0,-2.0,-3.0,-1.0,-7.0,-6.0,-1.0,-2.0,1650849749084898.0
1.0,0.0,-1.0,0.0,3.0,3.0,1.0,-1.0,1650849749107877.0
0.0,0.0,0.0,-2.0,-11.0,-8.0,-1.0,-1.0,1650849749107877.0
1.0,0.0,1.0,5.0,17.0,12.0,2.0,1.0,1650849749108834.0
1.0,-2.0,-2.0,-2.0,5.0,0.0,-1.0,0.0,1650849749108834.0
0.0,0.0,0.0,-3.0,-7.0,1.0,-1.0,-1.0,1650849749129779.0
-2.0,0.0,-2.0,-4.0,0.0,3.0,-2.0,-1.0,1650849749129779.0
0.0,-2.0,-1.0,-1.0,-8.0,-4.0,0.0,0.0,1650849749130749.0
0.0,1.0,-3.0,-1.0,-5.0,-6.0,-3.0,-2.0,1650849749130749.0
-1.0,0.0,-1.0,1.0,3.0,0.0,-2.0,-2.0,1650849749144885.0
0.0,0.0,0.0,-2.0,-5.0,-11.0,-3.0,0.0,1650849749144885.0
0.0,0.0,0.0,-2.0,-9.0,6.0,0.0,-2.0,1650849749144885.0
-1.0,1.0,2.0,1.0,14.0,9.0,3.0,1.0,1650849749144885.0
0.0,-2.0,-1.0,-3.0,-3.0,-6.0,1.0,0.0,1650849749167851.0
-1.0,-2.0,-1.0,0.0,5.0,6.0,0.0,0.0,1650849749167851.0
0.0,-1.0,0.0,-2.0,-6.0,-14.0,-5.0,-1.0,1650849749168830.0
-2.0,0.0,0.0,-1.0,-4.0,-2.0,0.0,-2.0,1650849749168830.0
-1.0,2.0,1.0,0.0,3.0,5.0,2.0,1.0,1650849749180789.0
0.0,-1.0,0.0,-2.0,2.0,-3.0,0.0,-1.0,1650849749180789.0
0.0,0.0,0.0,-4.0,-13.0,-9.0,-3.0,0.0,1650849749189766.0
2.0,2.0,1.0,5.0,5.0,5.0,4.0,1.0,1650849749189766.0
-1.0,1.0,0.0,1.0,8.0,8.0,1.0,1.0,1650849749204753.0
0.0,-1.0,-1.0,-2.0,0.0,1.0,1.0,-3.0,1650849749204753.0
0.0,0.0,-1.0,-1.0,-3.0,-4.0,-1.0,-2.0,1650849749204753.0
0.0,-3.0,-1.0,-2.0,-7.0,-5.0,-2.0,-2.0,1650849749204753.0
-1.0,-2.0,-1.0,-2.0,-5.0,-7.0,-2.0,0.0,1650849749227732.0
-1.0,0.0,-2.0,0.0,-5.0,-7.0,-3.0,0.0,1650849749227732.0
-1.0,1.0,2.0,4.0,18.0,27.0,7.0,3.0,1650849749228662.0
-1.0,-2.0,1.0,0.0,-2.0,0.0,-1.0,1.0,1650849749228662.0
1.0,-1.0,-2.0,0.0,1.0,-2.0,-1.0,-1.0,1650849749241140.0
-1.0,-2.0,1.0,-1.0,-1.0,-2.0,0.0,1.0,1650849749241140.0
0.0,0.0,-3.0,-1.0,-5.0,-12.0,-1.0,-2.0,1650849749249119.0
-1.0,-1.0,-3.0,-3.0,0.0,1.0,-1.0,-1.0,1650849749249119.0
0.0,0.0,1.0,4.0,-8.0,-6.0,-3.0,-1.0,1650849749264124.0
0.0,0.0,0.0,3.0,6.0,7.0,0.0,0.0,1650849749264124.0
0.0,-2.0,1.0,0.0,3.0,2.0,-1.0,-1.0,1650849749265110.0
0.0,0.0,0.0,-2.0,2.0,-3.0,0.0,0.0,1650849749265110.0
-3.0,1.0,0.0,-3.0,-4.0,-1.0,-1.0,0.0,1650849749288063.0
-1.0,0.0,-1.0,-1.0,-5.0,2.0,2.0,-1.0,1650849749288063.0
-1.0,-2.0,-1.0,-3.0,0.0,-6.0,-2.0,-1.0,1650849749288063.0
0.0,-2.0,0.0,1.0,-3.0,-4.0,-1.0,-1.0,1650849749288063.0
0.0,-2.0,-1.0,-1.0,5.0,7.0,2.0,0.0,1650849749310059.0
0.0,1.0,-1.0,-1.0,-3.0,-1.0,1.0,1.0,1650849749310059.0
-1.0,0.0,-1.0,-2.0,-1.0,-4.0,-1.0,1.0,1650849749310990.0
0.0,-1.0,-1.0,-1.0,-4.0,-2.0,-1.0,-1.0,1650849749310990.0
1.0,-1.0,-1.0,0.0,-6.0,-9.0,-3.0,-2.0,1650849749324964.0
1.0,0.0,2.0,2.0,17.0,27.0,5.0,1.0,1650849749324964.0
-1.0,-2.0,-3.0,-2.0,-6.0,-8.0,-3.0,-3.0,1650849749324964.0
-1.0,0.0,-2.0,-1.0,1.0,-1.0,0.0,-1.0,1650849749324964.0
-2.0,0.0,-1.0,0.0,-3.0,-3.0,-1.0,-2.0,1650849749347207.0
0.0,-1.0,0.0,1.0,0.0,0.0,0.0,0.0,1650849749347207.0
-1.0,1.0,1.0,-1.0,-6.0,-2.0,-1.0,1.0,1650849749348175.0
0.0,-2.0,-1.0,1.0,3.0,-5.0,-2.0,1.0,1650849749348175.0
0.0,-1.0,-1.0,-1.0,4.0,14.0,4.0,-1.0,1650849749370115.0
0.0,2.0,0.0,-2.0,-1.0,-6.0,-2.0,-2.0,1650849749370115.0
-1.0,-1.0,0.0,0.0,-1.0,-4.0,0.0,0.0,1650849749371149.0
-1.0,-1.0,0.0,-2.0,-5.0,-3.0,-2.0,-1.0,1650849749371149.0
1.0,0.0,1.0,-1.0,5.0,-1.0,-1.0,0.0,1650849749384106.0
-1.0,-1.0,-1.0,0.0,-5.0,0.0,-2.0,-2.0,1650849749384106.0
0.0,-1.0,0.0,-1.0,-1.0,-2.0,0.0,-3.0,1650849749385095.0
0.0,0.0,1.0,-2.0,-5.0,-2.0,0.0,1.0,1650849749385095.0
0.0,0.0,1.0,2.0,0.0,-2.0,-1.0,1.0,1650849749408082.0
-1.0,-1.0,-3.0,0.0,3.0,4.0,1.0,0.0,1650849749408082.0
0.0,-3.0,1.0,-2.0,0.0,-2.0,1.0,-1.0,1650849749408082.0
-1.0,0.0,-2.0,-2.0,-1.0,-1.0,-2.0,-3.0,1650849749408082.0
0.0,-2.0,-2.0,-2.0,-9.0,-7.0,1.0,0.0,1650849749429888.0
-1.0,0.0,1.0,0.0,6.0,-3.0,-1.0,2.0,1650849749429888.0
0.0,2.0,-2.0,2.0,-6.0,17.0,4.0,0.0,1650849749430885.0
-1.0,0.0,2.0,2.0,10.0,4.0,1.0,2.0,1650849749430885.0
-2.0,0.0,0.0,-3.0,0.0,1.0,-1.0,-3.0,1650849749444957.0
0.0,1.0,-2.0,-1.0,-1.0,-6.0,-2.0,-1.0,1650849749444957.0
0.0,-1.0,-1.0,-1.0,-3.0,-7.0,-1.0,-2.0,1650849749444957.0
-1.0,-2.0,-1.0,-1.0,-4.0,5.0,-1.0,0.0,1650849749444957.0
0.0,-1.0,-1.0,-1.0,-5.0,-7.0,-3.0,-2.0,1650849749467901.0
-1.0,0.0,0.0,0.0,5.0,3.0,-1.0,0.0,1650849749467901.0
0.0,0.0,-1.0,1.0,1.0,0.0,-1.0,-1.0,1650849749468886.0
0.0,0.0,0.0,-1.0,-10.0,-4.0,-2.0,-2.0,1650849749468886.0
-1.0,0.0,-1.0,0.0,6.0,-1.0,1.0,0.0,1650849749489816.0
-2.0,-2.0,-2.0,-4.0,-2.0,-2.0,-1.0,-1.0,1650849749489816.0
-1.0,1.0,1.0,0.0,0.0,-2.0,0.0,-1.0,1650849749490817.0
0.0,-1.0,0.0,-2.0,1.0,-4.0,-3.0,-1.0,1650849749490817.0
1.0,0.0,-1.0,-1.0,-4.0,4.0,0.0,-1.0,1650849749504774.0
1.0,0.0,0.0,-1.0,0.0,2.0,2.0,0.0,1650849749504774.0
-1.0,-2.0,0.0,-1.0,1.0,-4.0,-2.0,-1.0,1650849749504774.0
0.0,-1.0,-1.0,-2.0,-3.0,-9.0,-5.0,-1.0,1650849749504774.0
-2.0,-2.0,0.0,1.0,-11.0,2.0,-1.0,-3.0,1650849749527960.0
1.0,0.0,1.0,0.0,8.0,10.0,3.0,2.0,1650849749527960.0
-2.0,0.0,1.0,1.0,2.0,-4.0,-2.0,1.0,1650849749528890.0
0.0,0.0,-2.0,-2.0,-1.0,4.0,1.0,0.0,1650849749528890.0
0.0,-2.0,-2.0,-4.0,-1.0,-4.0,-1.0,-1.0,1650849749549939.0
-2.0,-2.0,-1.0,0.0,-6.0,-8.0,-3.0,-3.0,1650849749549939.0
-1.0,-2.0,-2.0,-1.0,-2.0,0.0,-2.0,-1.0,1650849749550936.0
0.0,-1.0,-1.0,-4.0,-2.0,-6.0,-2.0,0.0,1650849749550936.0
-3.0,-1.0,1.0,4.0,-1.0,4.0,-1.0,-1.0,1650849749564899.0
2.0,0.0,-2.0,2.0,4.0,8.0,3.0,0.0,1650849749564899.0
-1.0,0.0,-2.0,-1.0,7.0,-1.0,-1.0,1.0,1650849749564899.0
0.0,-1.0,1.0,1.0,-1.0,1.0,1.0,0.0,1650849749564899.0
0.0,-1.0,-1.0,-3.0,-1.0,-4.0,-2.0,-1.0,1650849749587866.0
-2.0,-1.0,-3.0,-1.0,-7.0,-6.0,-2.0,-1.0,1650849749587866.0
0.0,-1.0,0.0,0.0,-4.0,-1.0,-2.0,-1.0,1650849749588856.0
1.0,2.0,-1.0,0.0,1.0,3.0,-1.0,-1.0,1650849749588856.0
1.0,0.0,-1.0,-1.0,-2.0,-4.0,0.0,1.0,1650849749609846.0
-2.0,-2.0,0.0,0.0,-3.0,-4.0,0.0,-1.0,1650849749609846.0
1.0,1.0,1.0,2.0,16.0,17.0,3.0,3.0,1650849749610776.0
-2.0,0.0,-1.0,-1.0,-6.0,-3.0,0.0,2.0,1650849749610776.0
0.0,0.0,1.0,-1.0,0.0,4.0,-1.0,1.0,1650849749624429.0
-2.0,0.0,-1.0,-2.0,-1.0,-8.0,-3.0,-2.0,1650849749624429.0
-2.0,0.0,-3.0,-4.0,-11.0,-12.0,-4.0,-2.0,1650849749625449.0
0.0,0.0,-1.0,1.0,0.0,3.0,0.0,1.0,1650849749625449.0
1.0,1.0,-3.0,0.0,-2.0,10.0,6.0,2.0,1650849749647966.0
-1.0,0.0,0.0,-1.0,2.0,2.0,-1.0,1.0,1650849749647966.0
1.0,-1.0,0.0,-1.0,4.0,5.0,1.0,1.0,1650849749648932.0
-1.0,0.0,-3.0,-1.0,-1.0,-6.0,0.0,-3.0,1650849749648932.0
-1.0,-1.0,1.0,0.0,-1.0,-6.0,-2.0,1.0,1650849749670351.0
-1.0,0.0,0.0,-1.0,-2.0,-1.0,0.0,-2.0,1650849749670351.0
-2.0,0.0,0.0,-1.0,-4.0,-4.0,-1.0,-3.0,1650849749671379.0
0.0,-2.0,0.0,-1.0,-3.0,0.0,0.0,-1.0,1650849749671379.0
0.0,0.0,0.0,2.0,-2.0,1.0,1.0,-1.0,1650849749684314.0
0.0,1.0,0.0,0.0,11.0,3.0,0.0,1.0,1650849749684314.0
-1.0,-1.0,0.0,-2.0,-3.0,-3.0,-1.0,0.0,1650849749685315.0
-2.0,-2.0,-1.0,2.0,5.0,7.0,0.0,0.0,1650849749685315.0
-1.0,0.0,-1.0,-3.0,-2.0,-1.0,-2.0,-3.0,1650849749707901.0
0.0,0.0,-1.0,-2.0,-4.0,-3.0,-2.0,-3.0,1650849749707901.0
0.0,-1.0,-2.0,-3.0,-9.0,-10.0,-2.0,-1.0,1650849749708881.0
0.0,-1.0,0.0,1.0,-6.0,5.0,1.0,0.0,1650849749708881.0
0.0,2.0,3.0,1.0,14.0,-1.0,2.0,0.0,1650849749729895.0
1.0,0.0,1.0,-2.0,-1.0,12.0,2.0,-1.0,1650849749729895.0
1.0,-3.0,1.0,-2.0,-12.0,-6.0,1.0,0.0,1650849749730901.0
-1.0,0.0,0.0,2.0,18.0,7.0,1.0,1.0,1650849749730901.0
-1.0,-1.0,0.0,-2.0,-6.0,-8.0,-2.0,-1.0,1650849749744951.0
-2.0,-1.0,-3.0,-2.0,-6.0,-7.0,-3.0,-1.0,1650849749744951.0
0.0,1.0,2.0,1.0,4.0,5.0,1.0,0.0,1650849749744951.0
-1.0,0.0,0.0,-1.0,-7.0,-5.0,-1.0,-1.0,1650849749744951.0
0.0,-3.0,-2.0,-1.0,0.0,-2.0,-3.0,-1.0,1650849749767934.0
-1.0,-1.0,0.0,-2.0,-6.0,-5.0,2.0,0.0,1650849749767934.0
-2.0,-1.0,-2.0,0.0,-1.0,-2.0,-1.0,-1.0,1650849749768904.0
-1.0,1.0,1.0,1.0,-4.0,5.0,0.0,-1.0,1650849749768904.0
1.0,1.0,-1.0,0.0,13.0,11.0,3.0,0.0,1650849749789848.0
-1.0,0.0,0.0,-1.0,-6.0,-5.0,-3.0,1.0,1650849749789848.0
0.0,-1.0,0.0,-2.0,1.0,-3.0,-1.0,-1.0,1650849749790845.0
1.0,-1.0,-1.0,-1.0,0.0,-3.0,-2.0,-3.0,1650849749790845.0
-2.0,-1.0,0.0,-1.0,-3.0,-2.0,-1.0,-1.0,1650849749804835.0
0.0,-2.0,0.0,0.0,1.0,0.0,-2.0,1.0,1650849749804835.0
0.0,-1.0,-1.0,1.0,-3.0,0.0,-1.0,0.0,1650849749804835.0
1.0,-2.0,0.0,1.0,2.0,-1.0,-1.0,0.0,1650849749804835.0
0.0,0.0,0.0,-4.0,-1.0,1.0,0.0,0.0,1650849749827810.0
1.0,0.0,0.0,3.0,0.0,-2.0,0.0,0.0,1650849749827810.0
-2.0,0.0,-1.0,-2.0,-2.0,0.0,0.0,-1.0,1650849749828771.0
1.0,-1.0,-2.0,-1.0,-2.0,-6.0,0.0,1.0,1650849749828771.0
-1.0,-2.0,-1.0,-2.0,-4.0,-7.0,-2.0,1.0,1650849749849834.0
1.0,2.0,1.0,3.0,11.0,23.0,5.0,1.0,1650849749849834.0
-2.0,-1.0,0.0,0.0,-2.0,-3.0,-2.0,-3.0,1650849749850805.0
-1.0,0.0,-1.0,-1.0,-3.0,-2.0,0.0,-1.0,1650849749850805.0
-2.0,0.0,0.0,0.0,-6.0,-8.0,0.0,-2.0,1650849749864882.0
-2.0,-3.0,-2.0,-1.0,-2.0,-6.0,-1.0,-3.0,1650849749864882.0
1.0,-1.0,-2.0,-2.0,0.0,5.0,2.0,-1.0,1650849749864882.0
-1.0,-1.0,1.0,-1.0,-2.0,-6.0,-1.0,-2.0,1650849749864882.0
-1.0,-2.0,-3.0,1.0,4.0,4.0,-2.0,1.0,1650849749887821.0
0.0,-1.0,1.0,-1.0,-2.0,4.0,0.0,-1.0,1650849749887821.0
-1.0,0.0,-1.0,0.0,1.0,1.0,2.0,0.0,1650849749888818.0
-2.0,0.0,0.0,-1.0,-1.0,-3.0,-1.0,-2.0,1650849749888818.0
-1.0,-1.0,2.0,-1.0,-5.0,2.0,-2.0,-1.0,1650849749909829.0
-1.0,-2.0,-1.0,-1.0,0.0,-4.0,0.0,-1.0,1650849749909829.0
-1.0,0.0,1.0,1.0,5.0,1.0,-1.0,1.0,1650849749910766.0
-2.0,-1.0,0.0,-2.0,-2.0,1.0,1.0,-1.0,1650849749910766.0
-1.0,0.0,2.0,-1.0,1.0,1.0,1.0,-3.0,1650849749923732.0
0.0,-1.0,0.0,-1.0,-6.0,-6.0,0.0,-1.0,1650849749923732.0
-1.0,2.0,-1.0,-1.0,-2.0,-2.0,-1.0,0.0,1650849749931734.0
-1.0,-2.0,-2.0,0.0,1.0,4.0,1.0,-1.0,1650849749931734.0
-2.0,-1.0,0.0,-3.0,2.0,-1.0,-1.0,0.0,1650849749947808.0
-2.0,-1.0,-2.0,-3.0,-8.0,-8.0,-1.0,0.0,1650849749947808.0
0.0,0.0,-1.0,2.0,1.0,2.0,0.0,1.0,1650849749948799.0
1.0,1.0,0.0,0.0,3.0,3.0,-1.0,1.0,1650849749948799.0
0.0,0.0,-2.0,-1.0,-1.0,2.0,-1.0,-1.0,1650849749969752.0
0.0,-1.0,0.0,-2.0,-1.0,-3.0,-2.0,-2.0,1650849749969752.0
-1.0,-2.0,-2.0,-2.0,-8.0,-19.0,-3.0,-2.0,1650849749970733.0
-1.0,-2.0,1.0,1.0,-1.0,15.0,1.0,-1.0,1650849749970733.0
1.0,0.0,0.0,3.0,1.0,-1.0,3.0,2.0,1650849749983713.0
1.0,0.0,1.0,1.0,11.0,10.0,1.0,1.0,1650849749983713.0
0.0,-1.0,-1.0,-1.0,0.0,-2.0,0.0,-1.0,1650849749999615.0
-1.0,0.0,-1.0,-2.0,-5.0,-11.0,-3.0,-1.0,1650849749999615.0
-1.0,-1.0,-2.0,-1.0,-8.0,-2.0,-1.0,-2.0,1650849750007564.0
-1.0,0.0,1.0,2.0,0.0,-2.0,-1.0,-1.0,1650849750007564.0
1.0,0.0,-1.0,-2.0,2.0,-1.0,0.0,-1.0,1650849750008576.0
-1.0,-1.0,-3.0,-4.0,0.0,-1.0,-2.0,0.0,1650849750008576.0
-1.0,-2.0,-3.0,-2.0,-4.0,0.0,-1.0,0.0,1650849750029957.0
-1.0,-2.0,-1.0,-1.0,-1.0,-1.0,-2.0,0.0,1650849750029957.0
-1.0,0.0,0.0,-1.0,-1.0,4.0,0.0,0.0,1650849750030889.0
0.0,0.0,1.0,-1.0,-5.0,-3.0,-1.0,0.0,1650849750030889.0
2.0,3.0,-1.0,3.0,3.0,1.0,-1.0,-1.0,1650849750044283.0
0.0,0.0,0.0,0.0,3.0,-1.0,-1.0,1.0,1650849750044283.0
1.0,-2.0,-1.0,0.0,-4.0,1.0,-1.0,-2.0,1650849750052263.0
-1.0,0.0,0.0,-1.0,2.0,1.0,1.0,0.0,1650849750052263.0
-1.0,0.0,-2.0,-3.0,-5.0,-6.0,-1.0,-1.0,1650849750067254.0
-1.0,-2.0,-2.0,0.0,-2.0,-4.0,-1.0,-2.0,1650849750067254.0
0.0,-2.0,1.0,0.0,5.0,4.0,-1.0,0.0,1650849750068221.0
1.0,-1.0,0.0,1.0,4.0,12.0,4.0,1.0,1650849750068221.0
-1.0,-2.0,-1.0,1.0,0.0,2.0,-2.0,0.0,1650849750090190.0
0.0,0.0,0.0,-1.0,-1.0,-3.0,1.0,0.0,1650849750090190.0
-2.0,0.0,-2.0,-1.0,-2.0,-3.0,-2.0,0.0,1650849750091160.0
0.0,-1.0,-1.0,0.0,-3.0,-6.0,-2.0,-3.0,1650849750091160.0
0.0,0.0,1.0,0.0,3.0,-1.0,0.0,1.0,1650849750104152.0
0.0,-1.0,-1.0,-4.0,-2.0,-3.0,-1.0,-2.0,1650849750104152.0
-1.0,-2.0,-1.0,-1.0,0.0,1.0,-1.0,0.0,1650849750112171.0
-1.0,1.0,-1.0,0.0,-2.0,-3.0,-2.0,0.0,1650849750112171.0
0.0,-1.0,-1.0,0.0,-2.0,-1.0,-1.0,-1.0,1650849750128130.0
-2.0,0.0,0.0,1.0,-2.0,-3.0,-2.0,0.0,1650849750128130.0
-1.0,-1.0,2.0,2.0,10.0,11.0,4.0,1.0,1650849750128130.0
0.0,-1.0,-3.0,-1.0,1.0,-2.0,-1.0,0.0,1650849750128130.0
0.0,-1.0,-1.0,-2.0,-4.0,-2.0,-1.0,-2.0,1650849750150089.0
0.0,-1.0,-2.0,-4.0,-4.0,-1.0,-3.0,0.0,1650849750150089.0
1.0,0.0,-2.0,0.0,-8.0,-6.0,-2.0,-1.0,1650849750151086.0
0.0,-2.0,0.0,0.0,-4.0,-5.0,-1.0,0.0,1650849750151086.0
0.0,-1.0,2.0,1.0,13.0,10.0,3.0,1.0,1650849750164052.0
-3.0,0.0,-1.0,0.0,-5.0,-3.0,-1.0,-1.0,1650849750164052.0
0.0,0.0,-2.0,-2.0,-6.0,-1.0,-2.0,1.0,1650849750172057.0
-3.0,-2.0,-2.0,-3.0,-8.0,-19.0,-3.0,-1.0,1650849750172057.0
1.0,1.0,0.0,3.0,1.0,14.0,1.0,1.0,1650849750188016.0
1.0,1.0,0.0,2.0,8.0,2.0,1.0,1.0,1650849750188016.0
-1.0,-1.0,0.0,0.0,3.0,3.0,-2.0,-1.0,1650849750188016.0
-3.0,-3.0,1.0,1.0,1.0,-2.0,0.0,-1.0,1650849750188016.0
-2.0,-2.0,-2.0,-5.0,-3.0,-11.0,-3.0,-1.0,1650849750209996.0
-1.0,0.0,-1.0,0.0,-7.0,0.0,-2.0,0.0,1650849750209996.0
-1.0,2.0,1.0,-2.0,-1.0,-3.0,0.0,-1.0,1650849750210926.0
2.0,0.0,1.0,-2.0,2.0,4.0,0.0,-1.0,1650849750210926.0
1.0,-2.0,0.0,-2.0,-5.0,2.0,2.0,-1.0,1650849750232895.0
1.0,0.0,0.0,-1.0,5.0,4.0,1.0,0.0,1650849750232895.0
0.0,0.0,-1.0,0.0,-3.0,-3.0,-3.0,1.0,1650849750233865.0
0.0,-1.0,-2.0,1.0,2.0,1.0,-1.0,1.0,1650849750233865.0
-3.0,-1.0,-1.0,0.0,4.0,-5.0,-2.0,-1.0,1650849750247947.0
-1.0,-2.0,-1.0,-3.0,-4.0,-1.0,-1.0,-1.0,1650849750247947.0
-1.0,0.0,0.0,-1.0,-3.0,-5.0,-1.0,0.0,1650849750248915.0
0.0,-1.0,1.0,0.0,5.0,8.0,1.0,0.0,1650849750248915.0
0.0,-1.0,1.0,0.0,0.0,-5.0,-2.0,-1.0,1650849750268943.0
-1.0,-2.0,1.0,-3.0,-8.0,-6.0,0.0,-2.0,1650849750268943.0
0.0,-2.0,0.0,-1.0,-1.0,1.0,3.0,0.0,1650849750276923.0
1.0,0.0,2.0,2.0,5.0,-8.0,-1.0,1.0,1650849750276923.0
-4.0,0.0,-1.0,-2.0,1.0,9.0,0.0,0.0,1650849750292892.0
-1.0,0.0,-1.0,0.0,2.0,-2.0,0.0,0.0,1650849750292892.0
0.0,-1.0,-3.0,-3.0,-6.0,-5.0,-3.0,-2.0,1650849750293876.0
-1.0,-1.0,-2.0,-1.0,-3.0,-3.0,-1.0,-3.0,1650849750293876.0
0.0,0.0,-1.0,1.0,-1.0,-6.0,-2.0,-1.0,1650849750314934.0
-1.0,-3.0,-1.0,1.0,4.0,0.0,-1.0,0.0,1650849750314934.0
1.0,0.0,0.0,2.0,4.0,11.0,2.0,0.0,1650849750315908.0
0.0,1.0,-2.0,-2.0,0.0,1.0,0.0,1.0,1650849750315908.0
1.0,0.0,1.0,-3.0,-4.0,-4.0,-1.0,-2.0,1650849750329900.0
-1.0,0.0,-1.0,-1.0,-9.0,-3.0,-1.0,0.0,1650849750329900.0
0.0,0.0,-2.0,0.0,0.0,-4.0,1.0,-1.0,1650849750331880.0
-2.0,-1.0,-2.0,0.0,6.0,5.0,2.0,-1.0,1650849750331880.0
-2.0,-1.0,-1.0,-2.0,-7.0,-6.0,-2.0,0.0,1650849750352799.0
0.0,0.0,-2.0,1.0,5.0,6.0,-1.0,-1.0,1650849750352799.0
-2.0,-2.0,1.0,0.0,2.0,-2.0,-1.0,-2.0,1650849750353796.0
0.0,-1.0,-1.0,-2.0,-5.0,-2.0,0.0,0.0,1650849750353796.0
0.0,-1.0,-2.0,0.0,-1.0,-1.0,-1.0,1.0,1650849750365795.0
-2.0,-1.0,1.0,-4.0,-10.0,-17.0,-4.0,-2.0,1650849750365795.0
0.0,1.0,1.0,1.0,6.0,15.0,2.0,0.0,1650849750375741.0
2.0,1.0,1.0,3.0,5.0,4.0,3.0,-1.0,1650849750375741.0
-1.0,-2.0,0.0,-2.0,2.0,-4.0,1.0,-1.0,1650849750389728.0
1.0,-1.0,-2.0,-1.0,-2.0,1.0,0.0,0.0,1650849750389728.0
-1.0,-1.0,-1.0,-2.0,-6.0,-9.0,-3.0,-2.0,1650849750391697.0
-2.0,0.0,-2.0,-2.0,-6.0,-3.0,-3.0,0.0,1650849750391697.0
0.0,1.0,-1.0,1.0,5.0,-2.0,-2.0,-1.0,1650849750413159.0
-1.0,-1.0,-1.0,-1.0,-3.0,1.0,1.0,0.0,1650849750413159.0
0.0,-2.0,-1.0,0.0,-6.0,2.0,-1.0,0.0,1650849750414158.0
1.0,0.0,0.0,0.0,3.0,4.0,1.0,1.0,1650849750414158.0
0.0,0.0,-2.0,0.0,-1.0,-4.0,-1.0,0.0,1650849750435101.0
-2.0,0.0,0.0,0.0,0.0,0.0,0.0,-1.0,1650849750435101.0
-1.0,-1.0,-2.0,0.0,-1.0,-5.0,-2.0,-3.0,1650849750437096.0
-2.0,1.0,0.0,-3.0,-12.0,-11.0,-3.0,-1.0,1650849750437096.0
-2.0,-3.0,2.0,2.0,1.0,5.0,0.0,1.0,1650849750450061.0
1.0,-1.0,1.0,2.0,12.0,10.0,2.0,0.0,1650849750450061.0
0.0,0.0,0.0,-2.0,-5.0,-1.0,1.0,1.0,1650849750452057.0
1.0,-2.0,0.0,-2.0,1.0,0.0,-1.0,-4.0,1650849750452057.0
-1.0,-2.0,1.0,-1.0,-4.0,-3.0,-3.0,-2.0,1650849750473137.0
0.0,-3.0,-1.0,-1.0,-2.0,-5.0,-2.0,-2.0,1650849750473137.0
0.0,0.0,-1.0,-4.0,-3.0,-5.0,-1.0,0.0,1650849750474114.0
0.0,0.0,-1.0,2.0,-1.0,16.0,4.0,2.0,1650849750474114.0
0.0,2.0,0.0,1.0,0.0,-1.0,2.0,-1.0,1650849750486110.0
0.0,0.0,0.0,0.0,2.0,3.0,0.0,0.0,1650849750486110.0
-1.0,-1.0,-2.0,1.0,2.0,-6.0,-1.0,-1.0,1650849750495098.0
-1.0,-3.0,1.0,-1.0,-3.0,-7.0,-4.0,-1.0,1650849750495098.0
0.0,0.0,-1.0,-1.0,-4.0,2.0,0.0,-1.0,1650849750510130.0
0.0,-2.0,0.0,0.0,-1.0,-3.0,-1.0,-1.0,1650849750510130.0
-1.0,-2.0,-1.0,1.0,3.0,1.0,-1.0,-1.0,1650849750512082.0
-1.0,-3.0,0.0,-1.0,-2.0,-2.0,0.0,-2.0,1650849750512082.0
0.0,-2.0,-4.0,-2.0,-3.0,-2.0,0.0,-3.0,1650849750532999.0
-1.0,2.0,-2.0,0.0,-2.0,-4.0,0.0,0.0,1650849750532999.0
1.0,0.0,1.0,1.0,3.0,1.0,1.0,0.0,1650849750533997.0
-1.0,-1.0,0.0,0.0,-3.0,-3.0,1.0,-2.0,1650849750533997.0
0.0,0.0,0.0,0.0,4.0,4.0,-1.0,0.0,1650849750546838.0
-1.0,-1.0,-2.0,-1.0,-6.0,-2.0,1.0,0.0,1650849750546838.0
1.0,0.0,-1.0,-2.0,1.0,1.0,1.0,0.0,1650849750554820.0
1.0,7.0,2.0,-1.0,0.0,-3.0,-2.0,-1.0,1650849750554820.0
-2.0,-6.0,-1.0,-3.0,-3.0,-2.0,-1.0,-1.0,1650849750569807.0
-1.0,-1.0,0.0,0.0,-1.0,1.0,-2.0,-1.0,1650849750569807.0
-1.0,-1.0,-1.0,1.0,0.0,0.0,1.0,1.0,1650849750571780.0
0.0,1.0,-2.0,-2.0,0.0,-3.0,-2.0,0.0,1650849750571780.0
0.0,2.0,0.0,-2.0,-6.0,-4.0,0.0,1.0,1650849750592728.0
0.0,-3.0,0.0,-2.0,3.0,5.0,0.0,0.0,1650849750592728.0
1.0,1.0,2.0,0.0,3.0,-2.0,-2.0,-1.0,1650849750594727.0
-1.0,-1.0,-5.0,-1.0,0.0,-5.0,-1.0,-1.0,1650849750594727.0
0.0,-1.0,0.0,1.0,-1.0,18.0,3.0,-1.0,1650849750606680.0
-1.0,0.0,-1.0,-2.0,-2.0,-6.0,-2.0,-3.0,1650849750606680.0
-2.0,1.0,-2.0,-2.0,-8.0,2.0,1.0,-1.0,1650849750615657.0
0.0,-3.0,1.0,2.0,8.0,0.0,0.0,2.0,1650849750615657.0
-1.0,-3.0,-2.0,-4.0,-2.0,-9.0,-3.0,0.0,1650849750629684.0
0.0,1.0,-1.0,0.0,-2.0,-1.0,-1.0,-1.0,1650849750629684.0
-1.0,-1.0,1.0,-1.0,2.0,3.0,-1.0,-3.0,1650849750631615.0
-1.0,-2.0,0.0,0.0,-1.0,0.0,-1.0,-2.0,1650849750631615.0
0.0,2.0,1.0,1.0,-4.0,4.0,0.0,-1.0,1650849750652671.0
1.0,-1.0,-1.0,1.0,0.0,-3.0,-2.0,3.0,1650849750652671.0
-2.0,-2.0,-4.0,-3.0,0.0,-3.0,-2.0,0.0,1650849750654639.0
-2.0,-4.0,-1.0,-2.0,-3.0,-1.0,0.0,-2.0,1650849750654639.0
-1.0,2.0,-1.0,-1.0,-3.0,-9.0,-2.0,-1.0,1650849750666735.0
0.0,1.0,0.0,2.0,11.0,18.0,6.0,1.0,1650849750666735.0
1.0,1.0,-2.0,-1.0,-7.0,-3.0,-1.0,1.0,1650849750675702.0
0.0,-2.0,0.0,-2.0,6.0,5.0,0.0,0.0,1650849750675702.0
-1.0,-1.0,0.0,0.0,-2.0,-14.0,-2.0,1.0,1650849750689690.0
-2.0,-2.0,-2.0,-5.0,-7.0,0.0,-1.0,-2.0,1650849750689690.0
0.0,0.0,1.0,2.0,4.0,5.0,1.0,0.0,1650849750691659.0
-3.0,-1.0,-2.0,-1.0,-3.0,-4.0,1.0,1.0,1650849750691659.0
0.0,0.0,-2.0,-1.0,5.0,5.0,0.0,-3.0,1650849750712672.0
0.0,-1.0,0.0,1.0,-2.0,-7.0,-1.0,0.0,1650849750712672.0
1.0,-1.0,-1.0,-1.0,-1.0,-2.0,0.0,1.0,1650849750714624.0
-1.0,-1.0,0.0,-1.0,-6.0,0.0,-2.0,-1.0,1650849750714624.0
0.0,1.0,1.0,0.0,7.0,4.0,1.0,-1.0,1650849750726568.0
1.0,-1.0,0.0,-2.0,-5.0,-2.0,-1.0,-2.0,1650849750726568.0
0.0,0.0,-1.0,1.0,-2.0,-2.0,2.0,-1.0,1650849750735570.0
1.0,0.0,1.0,-1.0,7.0,-2.0,-1.0,0.0,1650849750735570.0
0.0,2.0,0.0,0.0,-4.0,-7.0,-4.0,0.0,1650849750750591.0
-1.0,0.0,-1.0,2.0,1.0,18.0,5.0,2.0,1650849750750591.0
-3.0,-3.0,1.0,-1.0,2.0,-2.0,-2.0,-2.0,1650849750751585.0
0.0,-2.0,0.0,0.0,-7.0,-5.0,-1.0,0.0,1650849750751585.0
0.0,-2.0,0.0,1.0,0.0,1.0,-1.0,0.0,1650849750772557.0
-3.0,1.0,0.0,-3.0,2.0,-10.0,0.0,0.0,1650849750772557.0
0.0,1.0,1.0,0.0,0.0,10.0,1.0,1.0,1650849750774524.0
1.0,0.0,0.0,2.0,5.0,4.0,1.0,-1.0,1650849750774524.0
0.0,-2.0,0.0,-1.0,-5.0,-3.0,0.0,-1.0,1650849750786492.0
-2.0,-1.0,0.0,-1.0,-6.0,-8.0,-3.0,-2.0,1650849750786492.0
2.0,0.0,-1.0,0.0,0.0,-1.0,0.0,-1.0,1650849750795487.0
-1.0,0.0,-2.0,-1.0,-2.0,2.0,-2.0,0.0,1650849750795487.0
-1.0,0.0,-2.0,-2.0,-1.0,1.0,2.0,0.0,1650849750810450.0
0.0,-1.0,1.0,-1.0,0.0,-1.0,-1.0,-1.0,1650849750810450.0
0.0,-1.0,-2.0,-1.0,1.0,-3.0,-2.0,-1.0,1650849750811446.0
-1.0,-1.0,0.0,-1.0,-3.0,1.0,0.0,0.0,1650849750811446.0
0.0,1.0,0.0,-1.0,-9.0,-3.0,2.0,-1.0,1650849750832393.0
0.0,-1.0,-1.0,1.0,8.0,2.0,0.0,-1.0,1650849750832393.0
0.0,-1.0,-1.0,1.0,4.0,5.0,0.0,0.0,1650849750834386.0
0.0,-2.0,-1.0,-2.0,-8.0,-9.0,-3.0,-2.0,1650849750834386.0
-2.0,-2.0,-1.0,0.0,6.0,21.0,4.0,1.0,1650849750846882.0
0.0,0.0,0.0,-3.0,-4.0,-7.0,-3.0,-3.0,1650849750846882.0
-2.0,-1.0,-1.0,-2.0,0.0,-3.0,0.0,-1.0,1650849750854862.0
-1.0,1.0,-2.0,-3.0,-1.0,-2.0,0.0,0.0,1650849750854862.0
-1.0,-1.0,1.0,0.0,-9.0,-7.0,-2.0,1.0,1650849750869972.0
0.0,-2.0,-2.0,2.0,4.0,4.0,1.0,1.0,1650849750869972.0
0.0,1.0,0.0,0.0,3.0,1.0,1.0,2.0,1650849750871940.0
-1.0,1.0,0.0,-2.0,-1.0,2.0,-2.0,0.0,1650849750871940.0
0.0,-2.0,-2.0,-2.0,-1.0,-5.0,-3.0,-1.0,1650849750892884.0
-1.0,0.0,-1.0,-2.0,-1.0,-5.0,-2.0,-1.0,1650849750892884.0
-1.0,-1.0,0.0,-3.0,-5.0,-1.0,-2.0,-2.0,1650849750893894.0
-2.0,-1.0,0.0,1.0,-3.0,1.0,1.0,-1.0,1650849750893894.0
-1.0,-2.0,0.0,2.0,16.0,9.0,0.0,0.0,1650849750905876.0
-1.0,-1.0,0.0,-3.0,-7.0,-4.0,0.0,0.0,1650849750905876.0
-1.0,-2.0,-1.0,-1.0,-2.0,-4.0,-3.0,-1.0,1650849750914824.0
3.0,-2.0,-1.0,-1.0,-2.0,2.0,0.0,-1.0,1650849750914824.0
0.0,0.0,-2.0,0.0,0.0,-5.0,-1.0,-1.0,1650849750929851.0
0.0,0.0,-1.0,0.0,-7.0,-1.0,-1.0,0.0,1650849750929851.0
0.0,0.0,0.0,1.0,7.0,0.0,1.0,1.0,1650849750931780.0
-1.0,-1.0,0.0,-1.0,-9.0,-14.0,-2.0,0.0,1650849750931780.0
-1.0,-1.0,0.0,-1.0,5.0,11.0,1.0,1.0,1650849750952853.0
-1.0,1.0,-1.0,2.0,9.0,10.0,3.0,1.0,1650849750952853.0
0.0,-1.0,-1.0,-4.0,-5.0,-3.0,-2.0,-1.0,1650849750953843.0
0.0,-2.0,1.0,-1.0,-4.0,-6.0,-2.0,-1.0,1650849750953843.0
-1.0,-2.0,0.0,0.0,-4.0,-8.0,-2.0,-1.0,1650849750966787.0
1.0,-2.0,0.0,-1.0,-1.0,-1.0,0.0,-1.0,1650849750966787.0
-1.0,-2.0,-2.0,-1.0,-1.0,1.0,-1.0,-1.0,1650849750975764.0
-2.0,-1.0,-1.0,1.0,4.0,0.0,0.0,0.0,1650849750975764.0
-1.0,0.0,-1.0,-2.0,-8.0,-9.0,0.0,-3.0,1650849750990751.0
1.0,-1.0,0.0,1.0,2.0,9.0,0.0,0.0,1650849750990751.0
-1.0,1.0,-2.0,1.0,-3.0,-5.0,-2.0,-2.0,1650849750992719.0
1.0,-2.0,-1.0,-1.0,-1.0,3.0,-2.0,-1.0,1650849750992719.0
-1.0,0.0,-1.0,-1.0,2.0,1.0,1.0,-1.0,1650849751012733.0
0.0,-2.0,1.0,-2.0,-2.0,-6.0,-2.0,0.0,1650849751012733.0
-3.0,-3.0,0.0,0.0,-5.0,-2.0,-1.0,-1.0,1650849751014687.0
0.0,1.0,-1.0,1.0,8.0,8.0,2.0,0.0,1650849751014687.0
-1.0,-2.0,-4.0,-1.0,-5.0,-13.0,-4.0,-1.0,1650849751026631.0
1.0,0.0,-1.0,1.0,4.0,17.0,2.0,0.0,1650849751026631.0
-2.0,-2.0,-1.0,-2.0,-2.0,-4.0,-1.0,0.0,1650849751035603.0
-1.0,0.0,0.0,-2.0,-3.0,0.0,1.0,-2.0,1650849751035603.0
-1.0,2.0,1.0,0.0,3.0,0.0,-1.0,1.0,1650849751049885.0
0.0,-1.0,-1.0,-1.0,-3.0,-10.0,-4.0,-1.0,1650849751049885.0
-1.0,-2.0,1.0,-2.0,-1.0,-3.0,-2.0,0.0,1650849751051881.0
-1.0,0.0,-1.0,2.0,5.0,4.0,2.0,0.0,1650849751051881.0
2.0,-1.0,0.0,1.0,-4.0,5.0,0.0,1.0,1650849751079873.0
-1.0,0.0,-2.0,0.0,2.0,-8.0,-1.0,-1.0,1650849751079873.0
0.0,1.0,-1.0,-2.0,-2.0,1.0,2.0,0.0,1650849751081801.0
0.0,-1.0,0.0,-1.0,-6.0,5.0,1.0,1.0,1650849751081801.0
0.0,-1.0,-1.0,-1.0,12.0,0.0,-1.0,0.0,1650849751085790.0
-3.0,0.0,1.0,-1.0,-8.0,-3.0,-1.0,-1.0,1650849751085790.0
1.0,0.0,0.0,1.0,5.0,-10.0,-1.0,-1.0,1650849751095765.0
-1.0,-1.0,-4.0,-2.0,-4.0,4.0,0.0,-1.0,1650849751095765.0
1.0,-1.0,0.0,2.0,4.0,11.0,4.0,2.0,1650849751110724.0
-1.0,-1.0,-1.0,-2.0,-5.0,-6.0,-2.0,-1.0,1650849751110724.0
-2.0,0.0,0.0,-3.0,-7.0,1.0,-2.0,0.0,1650849751112718.0
-2.0,0.0,-1.0,0.0,6.0,-5.0,-1.0,1.0,1650849751112718.0
-1.0,0.0,0.0,-3.0,-6.0,-1.0,-1.0,0.0,1650849751132692.0
0.0,-3.0,-2.0,-1.0,2.0,-1.0,-1.0,-1.0,1650849751132692.0
0.0,0.0,-3.0,-2.0,-4.0,-5.0,-2.0,-1.0,1650849751134660.0
-2.0,0.0,3.0,1.0,-2.0,4.0,2.0,0.0,1650849751134660.0
0.0,0.0,-4.0,3.0,0.0,3.0,-1.0,-1.0,1650849751146891.0
8.0,2.0,8.0,2.0,10.0,7.0,4.0,4.0,1650849751146891.0
-4.0,-3.0,-4.0,-5.0,-2.0,-1.0,-1.0,1.0,1650849751154901.0
-1.0,0.0,-15.0,-3.0,-1.0,-4.0,-3.0,-2.0,1650849751154901.0
-3.0,-2.0,1.0,-5.0,-5.0,-11.0,-2.0,-1.0,1650849751170043.0
-4.0,1.0,0.0,-3.0,-13.0,-8.0,-2.0,-1.0,1650849751170043.0
-1.0,2.0,8.0,6.0,11.0,11.0,2.0,0.0,1650849751176814.0
3.0,1.0,8.0,0.0,3.0,0.0,-1.0,0.0,1650849751176814.0
-3.0,-1.0,-1.0,-1.0,-12.0,-4.0,-1.0,-2.0,1650849751192771.0
1.0,-1.0,0.0,2.0,7.0,4.0,0.0,-2.0,1650849751192771.0
1.0,-2.0,-3.0,-3.0,-6.0,-10.0,-1.0,0.0,1650849751193769.0
11.0,1.0,3.0,4.0,4.0,14.0,0.0,0.0,1650849751193769.0
-26.0,-3.0,1.0,-1.0,4.0,0.0,2.0,1.0,1650849751214827.0
27.0,-1.0,-30.0,-17.0,-9.0,-5.0,-3.0,0.0,1650849751214827.0
29.0,2.0,-2.0,10.0,1.0,-2.0,-2.0,-4.0,1650849751216825.0
-45.0,3.0,37.0,7.0,1.0,-4.0,2.0,-1.0,1650849751216825.0
27.0,-7.0,-33.0,-19.0,-14.0,-6.0,0.0,13.0,1650849751229857.0
9.0,-3.0,1.0,5.0,4.0,-3.0,2.0,0.0,1650849751229857.0
-2.0,1.0,-5.0,-2.0,3.0,6.0,0.0,-1.0,1650849751231785.0
18.0,3.0,10.0,6.0,0.0,2.0,0.0,-2.0,1650849751231785.0
-52.0,8.0,19.0,7.0,6.0,3.0,-2.0,-15.0,1650849751252756.0
15.0,0.0,-8.0,-1.0,1.0,-2.0,1.0,11.0,1650849751252756.0
-34.0,-6.0,-11.0,-3.0,-4.0,1.0,-1.0,-5.0,1650849751254723.0
-3.0,-11.0,-29.0,-12.0,0.0,0.0,0.0,-1.0,1650849751254723.0
45.0,9.0,69.0,18.0,-1.0,-2.0,3.0,6.0,1650849751274697.0
-46.0,-5.0,-37.0,3.0,-7.0,-9.0,-5.0,-22.0,1650849751274697.0
-15.0,-4.0,-1.0,10.0,0.0,5.0,2.0,10.0,1650849751276665.0
28.0,5.0,-5.0,-27.0,1.0,2.0,-1.0,4.0,1650849751276665.0
-7.0,0.0,2.0,0.0,1.0,-4.0,-4.0,-4.0,1650849751289629.0
-4.0,-10.0,-1.0,2.0,-4.0,0.0,-2.0,-5.0,1650849751289629.0
15.0,0.0,6.0,5.0,7.0,12.0,3.0,6.0,1650849751291627.0
-13.0,1.0,-14.0,-2.0,-9.0,-3.0,-3.0,-6.0,1650849751291627.0
17.0,-6.0,-20.0,-3.0,10.0,7.0,2.0,0.0,1650849751313158.0
-1.0,4.0,24.0,1.0,2.0,-4.0,-1.0,2.0,1650849751313158.0
-4.0,3.0,-7.0,-11.0,-9.0,-8.0,-2.0,-2.0,1650849751314159.0
5.0,-19.0,-8.0,0.0,-1.0,-3.0,-2.0,2.0,1650849751314159.0
30.0,4.0,1.0,18.0,0.0,-4.0,-2.0,-5.0,1650849751335122.0
-19.0,-2.0,33.0,-2.0,8.0,14.0,6.0,8.0,1650849751335122.0
-41.0,-10.0,-24.0,-9.0,-6.0,-7.0,-5.0,-15.0,1650849751337095.0
10.0,9.0,26.0,-10.0,-3.0,-1.0,-1.0,2.0,1650849751337095.0
6.0,2.0,-5.0,10.0,-3.0,-4.0,-3.0,1.0,1650849751349891.0
5.0,-6.0,-10.0,-4.0,2.0,3.0,0.0,2.0,1650849751349891.0
15.0,12.0,16.0,3.0,3.0,3.0,3.0,2.0,1650849751355841.0
-4.0,0.0,6.0,4.0,0.0,-3.0,0.0,-2.0,1650849751355841.0
-10.0,-5.0,-18.0,-9.0,-5.0,-3.0,-1.0,-2.0,1650849751372795.0
4.0,2.0,-1.0,-4.0,3.0,8.0,1.0,2.0,1650849751372795.0
5.0,0.0,18.0,0.0,5.0,5.0,1.0,-1.0,1650849751373823.0
-4.0,0.0,-19.0,9.0,-2.0,-5.0,-1.0,-1.0,1650849751373823.0
-9.0,-6.0,-5.0,-11.0,-4.0,-3.0,-3.0,-2.0,1650849751395561.0
-7.0,7.0,4.0,2.0,-8.0,-8.0,-5.0,-4.0,1650849751395561.0
13.0,0.0,12.0,-3.0,-1.0,0.0,0.0,1.0,1650849751396563.0
-3.0,1.0,-30.0,0.0,3.0,1.0,0.0,-1.0,1650849751396563.0
-9.0,0.0,3.0,2.0,-1.0,0.0,0.0,-1.0,1650849751409527.0
2.0,1.0,-7.0,-13.0,-3.0,-8.0,1.0,0.0,1650849751409527.0
9.0,-8.0,9.0,3.0,8.0,19.0,5.0,3.0,1650849751416508.0
-32.0,0.0,-10.0,2.0,2.0,-2.0,-1.0,-2.0,1650849751416508.0
-9.0,-3.0,21.0,7.0,-4.0,-6.0,-4.0,-5.0,1650849751432496.0
14.0,6.0,5.0,11.0,3.0,1.0,-2.0,2.0,1650849751432496.0
-3.0,4.0,-14.0,-15.0,-8.0,-8.0,-1.0,0.0,1650849751434479.0
9.0,2.0,-9.0,-4.0,-2.0,8.0,2.0,-1.0,1650849751434479.0
38.0,-4.0,6.0,1.0,4.0,4.0,2.0,5.0,1650849751453906.0
-33.0,-7.0,0.0,-2.0,1.0,-3.0,-1.0,-3.0,1650849751453906.0
15.0,-3.0,-4.0,-1.0,-6.0,-5.0,-3.0,0.0,1650849751463304.0
1.0,1.0,12.0,4.0,-1.0,-3.0,-1.0,0.0,1650849751463304.0
-3.0,2.0,-16.0,-6.0,-1.0,1.0,0.0,-1.0,1650849751469317.0
11.0,0.0,1.0,1.0,-6.0,0.0,3.0,1.0,1650849751469317.0
-4.0,1.0,0.0,3.0,5.0,3.0,1.0,-1.0,1650849751476292.0
6.0,-1.0,15.0,6.0,1.0,-3.0,-1.0,1.0,1650849751476292.0
-19.0,1.0,-6.0,-15.0,2.0,5.0,2.0,0.0,1650849751492256.0
5.0,-7.0,-18.0,-1.0,-1.0,1.0,0.0,0.0,1650849751492256.0
26.0,6.0,24.0,6.0,-3.0,-5.0,-2.0,0.0,1650849751494225.0
-34.0,-3.0,-34.0,-9.0,-7.0,-4.0,-6.0,-3.0,1650849751494225.0
-9.0,-14.0,19.0,7.0,0.0,-2.0,-2.0,-5.0,1650849751515331.0
1.0,16.0,-5.0,-8.0,0.0,5.0,-1.0,0.0,1650849751515331.0
7.0,-3.0,-10.0,-3.0,-7.0,-2.0,-1.0,-1.0,1650849751517258.0
13.0,-6.0,13.0,4.0,0.0,-8.0,-2.0,0.0,1650849751517258.0
-6.0,-1.0,-23.0,-8.0,0.0,5.0,0.0,0.0,1650849751529259.0
-2.0,-2.0,8.0,7.0,4.0,3.0,0.0,1.0,1650849751529259.0
-12.0,-2.0,-13.0,-1.0,1.0,-1.0,-1.0,0.0,1650849751536207.0
7.0,1.0,2.0,2.0,1.0,2.0,2.0,1.0,1650849751536207.0
-11.0,4.0,-4.0,-4.0,4.0,-1.0,-1.0,-2.0,1650849751552766.0
7.0,2.0,8.0,7.0,-3.0,-5.0,-1.0,-2.0,1650849751552766.0
5.0,-1.0,22.0,12.0,2.0,2.0,-2.0,1.0,1650849751554728.0
4.0,-6.0,-20.0,-11.0,1.0,-3.0,-1.0,-1.0,1650849751554728.0
2.0,1.0,-10.0,-9.0,-7.0,-6.0,-3.0,-1.0,1650849751574665.0
-1.0,0.0,17.0,14.0,-10.0,-2.0,0.0,-1.0,1650849751574665.0
-9.0,-4.0,-23.0,-8.0,13.0,10.0,1.0,-1.0,1650849751576661.0
7.0,3.0,12.0,6.0,0.0,1.0,2.0,2.0,1650849751576661.0
-22.0,5.0,3.0,-3.0,-2.0,1.0,0.0,-2.0,1650849751589647.0
-2.0,-1.0,-15.0,-8.0,-1.0,-3.0,-1.0,-2.0,1650849751589647.0
-3.0,3.0,17.0,1.0,-6.0,-9.0,-1.0,0.0,1650849751596641.0
-1.0,-1.0,5.0,3.0,3.0,3.0,-1.0,0.0,1650849751596641.0
12.0,2.0,-15.0,-4.0,2.0,3.0,1.0,2.0,1650849751613084.0
-3.0,-5.0,-1.0,-4.0,-9.0,-7.0,-3.0,-1.0,1650849751613084.0
-5.0,-3.0,-6.0,1.0,0.0,-7.0,-1.0,-1.0,1650849751614084.0
15.0,4.0,6.0,-1.0,7.0,22.0,5.0,1.0,1650849751614084.0
-2.0,0.0,1.0,2.0,-4.0,-5.0,1.0,1.0,1650849751635048.0
-3.0,0.0,9.0,3.0,4.0,6.0,1.0,-1.0,1650849751635048.0
-1.0,-4.0,-27.0,-12.0,-8.0,-9.0,-2.0,0.0,1650849751637050.0
-3.0,0.0,12.0,4.0,-1.0,-6.0,-1.0,-3.0,1650849751637050.0
-2.0,-3.0,-4.0,1.0,-2.0,-1.0,-2.0,0.0,1650849751649029.0
-3.0,-1.0,-2.0,-5.0,0.0,-1.0,0.0,1.0,1650849751649029.0
2.0,1.0,-7.0,-4.0,0.0,1.0,-1.0,-2.0,1650849751664241.0
-2.0,0.0,12.0,3.0,-7.0,-7.0,-2.0,-1.0,1650849751664241.0
1.0,0.0,-1.0,1.0,-6.0,2.0,2.0,1.0,1650849751673013.0
7.0,0.0,2.0,2.0,15.0,6.0,0.0,-1.0,1650849751673013.0
-1.0,1.0,4.0,1.0,0.0,-1.0,1.0,0.0,1650849751673976.0
-3.0,0.0,-8.0,0.0,-1.0,3.0,0.0,-3.0,1650849751673976.0
1.0,-3.0,-2.0,-1.0,2.0,-2.0,-2.0,-2.0,1650849751694956.0
-1.0,-1.0,-1.0,-5.0,-4.0,-4.0,-1.0,-1.0,1650849751694956.0
-6.0,-1.0,0.0,1.0,-5.0,-3.0,0.0,-2.0,1650849751700944.0
-2.0,0.0,1.0,-4.0,1.0,0.0,0.0,0.0,1650849751700944.0
4.0,4.0,5.0,1.0,3.0,3.0,1.0,1.0,1650849751708911.0
-1.0,-4.0,-9.0,-5.0,-5.0,-3.0,0.0,-2.0,1650849751708911.0
-2.0,-1.0,3.0,1.0,-3.0,0.0,-1.0,0.0,1650849751717926.0
3.0,-1.0,-6.0,-4.0,-4.0,-10.0,-4.0,0.0,1650849751717926.0
0.0,2.0,2.0,2.0,0.0,1.0,0.0,-2.0,1650849751732922.0
0.0,1.0,15.0,16.0,5.0,6.0,1.0,0.0,1650849751732922.0
-2.0,-2.0,2.0,-4.0,2.0,3.0,-1.0,-2.0,1650849751733904.0
-1.0,-5.0,-2.0,-7.0,-2.0,1.0,0.0,0.0,1650849751733904.0
-1.0,2.0,-3.0,1.0,0.0,-3.0,-3.0,-1.0,1650849751754861.0
-2.0,0.0,3.0,1.0,-3.0,-4.0,0.0,-1.0,1650849751754861.0
0.0,0.0,-8.0,-2.0,-3.0,-2.0,-2.0,-1.0,1650849751756822.0
1.0,-1.0,-1.0,3.0,1.0,-2.0,0.0,1.0,1650849751756822.0
-1.0,-1.0,3.0,4.0,0.0,-1.0,-1.0,-2.0,1650849751768817.0
0.0,-1.0,-4.0,-3.0,4.0,3.0,0.0,0.0,1650849751768817.0
0.0,1.0,3.0,0.0,-3.0,0.0,0.0,0.0,1650849751777767.0
-1.0,-1.0,-5.0,3.0,-4.0,-2.0,-1.0,-1.0,1650849751777767.0
1.0,-1.0,-3.0,-7.0,3.0,0.0,1.0,1.0,1650849751792753.0
0.0,1.0,-5.0,-3.0,-5.0,0.0,-2.0,-1.0,1650849751792753.0
-2.0,-4.0,-5.0,2.0,2.0,2.0,1.0,0.0,1650849751794721.0
-1.0,3.0,6.0,2.0,2.0,-2.0,-3.0,-1.0,1650849751794721.0
0.0,-2.0,-7.0,-1.0,-2.0,2.0,0.0,1.0,1650849751815704.0
-1.0,-2.0,-5.0,0.0,-2.0,-3.0,0.0,0.0,1650849751815704.0
-1.0,6.0,18.0,1.0,-2.0,-2.0,1.0,-2.0,1650849751829666.0
0.0,0.0,-1.0,1.0,-3.0,0.0,-1.0,-1.0,1650849751829666.0
-2.0,0.0,0.0,4.0,1.0,1.0,0.0,0.0,1650849751830657.0
3.0,-7.0,-10.0,-13.0,-2.0,-2.0,0.0,0.0,1650849751830657.0
-1.0,-1.0,-5.0,-3.0,-1.0,-1.0,0.0,0.0,1650849751837606.0
0.0,0.0,6.0,5.0,1.0,0.0,-1.0,-3.0,1650849751837606.0
0.0,2.0,-4.0,-1.0,2.0,1.0,0.0,0.0,1650849751852565.0
-1.0,5.0,9.0,14.0,2.0,-1.0,-1.0,0.0,1650849751852565.0
-4.0,-18.0,-17.0,-2.0,2.0,2.0,1.0,0.0,1650849751854580.0
1.0,26.0,5.0,-23.0,-8.0,-4.0,0.0,0.0,1650849751854580.0
6.0,-7.0,-5.0,3.0,-3.0,-3.0,-1.0,0.0,1650849751875599.0
-3.0,3.0,9.0,4.0,-11.0,-1.0,0.0,-1.0,1650849751875599.0
7.0,0.0,-3.0,8.0,7.0,-4.0,-2.0,1.0,1650849751876589.0
-4.0,-6.0,-6.0,3.0,2.0,4.0,0.0,-1.0,1650849751876589.0
-3.0,3.0,8.0,2.0,8.0,10.0,4.0,1.0,1650849751888584.0
7.0,-4.0,0.0,-12.0,2.0,-2.0,-4.0,-3.0,1650849751888584.0
-4.0,12.0,-10.0,-5.0,-14.0,-7.0,-3.0,-2.0,1650849751897905.0
-1.0,-8.0,-15.0,-2.0,1.0,-6.0,-2.0,0.0,1650849751897905.0
-1.0,1.0,20.0,3.0,1.0,0.0,2.0,2.0,1650849751912873.0
3.0,4.0,-8.0,13.0,3.0,1.0,2.0,3.0,1650849751912873.0
-11.0,-19.0,12.0,2.0,5.0,3.0,-15.0,-14.0,1650849751913849.0
-25.0,-12.0,14.0,-35.0,-28.0,-13.0,-17.0,-23.0,1650849751913849.0
-3.0,24.0,-56.0,-3.0,-11.0,2.0,-1.0,-18.0,1650849751935682.0
14.0,-59.0,-19.0,22.0,23.0,9.0,15.0,20.0,1650849751935682.0
30.0,21.0,26.0,9.0,12.0,-10.0,18.0,42.0,1650849751936682.0
16.0,33.0,50.0,25.0,15.0,9.0,6.0,41.0,1650849751936682.0
-53.0,-12.0,48.0,-20.0,-5.0,-1.0,-42.0,-43.0,1650849751948715.0
-36.0,-66.0,-56.0,-25.0,-19.0,-7.0,-50.0,-80.0,1650849751948715.0
8.0,64.0,-8.0,-25.0,-28.0,-13.0,28.0,-90.0,1650849751957625.0
53.0,-21.0,-3.0,43.0,27.0,6.0,72.0,88.0,1650849751957625.0
18.0,10.0,-9.0,-9.0,4.0,2.0,-60.0,-89.0,1650849751979921.0
-8.0,20.0,6.0,-5.0,-5.0,-10.0,-15.0,34.0,1650849751979921.0
-45.0,-16.0,-15.0,-5.0,9.0,31.0,-22.0,-47.0,1650849751981850.0
-26.0,35.0,10.0,10.0,-12.0,20.0,10.0,-41.0,1650849751981850.0
58.0,23.0,30.0,23.0,3.0,-36.0,-8.0,51.0,1650849751994815.0
38.0,80.0,37.0,-9.0,-6.0,-11.0,30.0,27.0,1650849751994815.0
29.0,21.0,-16.0,2.0,-9.0,-29.0,-70.0,23.0,1650849751996810.0
-25.0,-35.0,-11.0,-36.0,-10.0,-2.0,36.0,34.0,1650849751996810.0
7.0,14.0,-39.0,12.0,16.0,33.0,54.0,49.0,1650849752008806.0
-40.0,-21.0,17.0,-7.0,-7.0,4.0,-8.0,-40.0,1650849752008806.0
17.0,19.0,48.0,20.0,7.0,2.0,-14.0,-20.0,1650849752017832.0
-73.0,-32.0,-35.0,-17.0,-11.0,-14.0,-45.0,-55.0,1650849752017832.0
-12.0,-12.0,24.0,14.0,7.0,3.0,8.0,3.0,1650849752032859.0
13.0,7.0,-10.0,-12.0,-1.0,0.0,20.0,20.0,1650849752032859.0
1.0,14.0,5.0,16.0,12.0,17.0,25.0,35.0,1650849752038777.0
15.0,-52.0,-11.0,15.0,16.0,6.0,-45.0,-52.0,1650849752038777.0
-5.0,-23.0,-10.0,-18.0,-18.0,-15.0,29.0,11.0,1650849752054900.0
-4.0,9.0,-4.0,-1.0,4.0,7.0,-3.0,20.0,1650849752054900.0
3.0,-54.0,-22.0,-3.0,-4.0,3.0,-2.0,-38.0,1650849752056887.0
35.0,10.0,-5.0,0.0,2.0,-1.0,18.0,50.0,1650849752056887.0
-9.0,12.0,17.0,-7.0,-4.0,-5.0,13.0,-7.0,1650849752068835.0
-5.0,27.0,9.0,34.0,18.0,11.0,5.0,13.0,1650849752068835.0
-29.0,-52.0,-39.0,-38.0,-18.0,-11.0,-3.0,1.0,1650849752077812.0
2.0,3.0,-40.0,-13.0,-13.0,-10.0,-16.0,-19.0,1650849752077812.0
3.0,-16.0,15.0,11.0,1.0,8.0,1.0,-2.0,1650849752091802.0
-16.0,-22.0,-13.0,-5.0,12.0,15.0,-9.0,-20.0,1650849752091802.0
8.0,11.0,-8.0,0.0,-1.0,0.0,22.0,39.0,1650849752106735.0
38.0,14.0,30.0,7.0,7.0,-4.0,-10.0,-12.0,1650849752106735.0
-31.0,-22.0,-12.0,-8.0,-6.0,-11.0,-4.0,4.0,1650849752115571.0
33.0,11.0,-7.0,-8.0,-11.0,-11.0,-9.0,-19.0,1650849752115571.0
-23.0,12.0,10.0,2.0,-2.0,1.0,18.0,32.0,1650849752116761.0
7.0,32.0,16.0,6.0,13.0,1.0,-8.0,-16.0,1650849752116761.0
20.0,-14.0,-24.0,-3.0,-3.0,3.0,-7.0,2.0,1650849752137704.0
-6.0,5.0,21.0,-4.0,-7.0,-8.0,0.0,-16.0,1650849752137704.0
16.0,1.0,13.0,17.0,15.0,13.0,14.0,19.0,1650849752139700.0
-3.0,15.0,14.0,-2.0,-3.0,-3.0,1.0,-4.0,1650849752139700.0
-1.0,20.0,-2.0,-3.0,-4.0,3.0,-18.0,-17.0,1650849752151667.0
-8.0,-21.0,-10.0,0.0,7.0,-1.0,17.0,25.0,1650849752151667.0
-4.0,-13.0,-15.0,-12.0,-11.0,-7.0,-7.0,-9.0,1650849752158676.0
-10.0,-1.0,-3.0,22.0,17.0,9.0,3.0,-1.0,1650849752158676.0
1.0,18.0,23.0,7.0,8.0,6.0,4.0,0.0,1650849752175631.0
-4.0,-31.0,-55.0,-22.0,-15.0,-18.0,1.0,0.0,1650849752175631.0
-2.0,8.0,37.0,0.0,-7.0,1.0,5.0,15.0,1650849752177613.0
9.0,3.0,1.0,-6.0,-3.0,-2.0,-9.0,-7.0,1650849752177613.0
2.0,13.0,0.0,0.0,2.0,0.0,17.0,21.0,1650849752197611.0
2.0,18.0,16.0,-1.0,-5.0,-3.0,-11.0,-19.0,1650849752197611.0
-7.0,-22.0,1.0,0.0,-2.0,-8.0,-6.0,-16.0,1650849752199539.0
-3.0,-7.0,-15.0,-2.0,-9.0,-2.0,-3.0,0.0,1650849752199539.0
-7.0,-16.0,4.0,-11.0,-5.0,-5.0,-10.0,3.0,1650849752212506.0
-1.0,23.0,7.0,-2.0,-3.0,-1.0,-1.0,-4.0,1650849752212506.0
-4.0,-21.0,-37.0,-11.0,0.0,3.0,2.0,3.0,1650849752218488.0
4.0,18.0,37.0,12.0,3.0,2.0,2.0,3.0,1650849752218488.0
-18.0,1.0,3.0,-7.0,-2.0,-2.0,-6.0,-26.0,1650849752235443.0
6.0,47.0,5.0,9.0,0.0,5.0,24.0,39.0,1650849752235443.0
-7.0,-64.0,-40.0,-12.0,-2.0,-1.0,-14.0,-31.0,1650849752236441.0
-14.0,-63.0,-21.0,-9.0,-5.0,-1.0,2.0,8.0,1650849752236441.0
9.0,19.0,29.0,12.0,4.0,-4.0,-8.0,2.0,1650849752257384.0
0.0,-9.0,-4.0,-7.0,-8.0,-2.0,2.0,1.0,1650849752257384.0
4.0,43.0,42.0,13.0,12.0,5.0,3.0,9.0,1650849752259379.0
-8.0,6.0,-9.0,1.0,-1.0,-2.0,0.0,-13.0,1650849752259379.0
2.0,-28.0,-34.0,-7.0,2.0,5.0,9.0,3.0,1650849752272372.0
-5.0,12.0,26.0,7.0,3.0,3.0,-15.0,-13.0,1650849752272372.0
21.0,20.0,8.0,0.0,-3.0,1.0,-5.0,-12.0,1650849752274339.0
20.0,14.0,2.0,-3.0,-5.0,-1.0,21.0,31.0,1650849752274339.0
-12.0,2.0,-11.0,0.0,6.0,2.0,-2.0,1.0,1650849752295284.0
-4.0,14.0,33.0,7.0,0.0,-3.0,0.0,5.0,1650849752295284.0
-5.0,-23.0,-43.0,-21.0,-11.0,-10.0,-15.0,-18.0,1650849752296281.0
-17.0,0.0,-27.0,-10.0,-6.0,-1.0,-12.0,-17.0,1650849752296281.0
-6.0,-42.0,10.0,3.0,-5.0,-9.0,-2.0,-5.0,1650849752317228.0
17.0,45.0,29.0,10.0,0.0,1.0,-4.0,10.0,1650849752317228.0
-22.0,-24.0,4.0,5.0,7.0,10.0,8.0,5.0,1650849752319219.0
13.0,12.0,10.0,-2.0,3.0,-1.0,-10.0,-13.0,1650849752319219.0
-17.0,-9.0,-30.0,0.0,-5.0,0.0,10.0,31.0,1650849752340163.0
-6.0,-17.0,-25.0,-14.0,-2.0,-3.0,-15.0,-36.0,1650849752340163.0
5.0,10.0,17.0,13.0,-4.0,-8.0,11.0,13.0,1650849752342158.0
-5.0,10.0,7.0,4.0,4.0,-4.0,-14.0,-10.0,1650849752342158.0
15.0,13.0,11.0,-14.0,-9.0,1.0,13.0,-3.0,1650849752355123.0
-11.0,-42.0,-39.0,-1.0,-8.0,-4.0,9.0,6.0,1650849752355123.0
3.0,20.0,8.0,9.0,13.0,4.0,-1.0,7.0,1650849752357118.0
-13.0,-3.0,-2.0,-8.0,-2.0,11.0,4.0,-3.0,1650849752357118.0
4.0,12.0,9.0,3.0,-2.0,-5.0,-12.0,-12.0,1650849752378062.0
15.0,32.0,-25.0,-17.0,-7.0,-2.0,8.0,10.0,1650849752378062.0
-9.0,-28.0,5.0,3.0,-4.0,-7.0,3.0,7.0,1650849752379060.0
1.0,1.0,-4.0,1.0,-6.0,-4.0,-11.0,-6.0,1650849752379060.0
-33.0,-4.0,-15.0,-6.0,2.0,4.0,-3.0,-4.0,1650849752392025.0
3.0,-5.0,4.0,5.0,9.0,4.0,4.0,-7.0,1650849752392025.0
-2.0,23.0,8.0,6.0,7.0,6.0,0.0,6.0,1650849752399061.0
-12.0,-24.0,-57.0,-17.0,-9.0,-5.0,-8.0,-11.0,1650849752399061.0
26.0,12.0,-1.0,13.0,5.0,9.0,36.0,25.0,1650849752415123.0
-6.0,4.0,11.0,2.0,5.0,2.0,-18.0,-19.0,1650849752415123.0
-12.0,-14.0,13.0,3.0,4.0,0.0,5.0,0.0,1650849752417150.0
38.0,6.0,21.0,6.0,-4.0,-3.0,9.0,8.0,1650849752417150.0
-22.0,1.0,4.0,-9.0,-6.0,-10.0,-23.0,-16.0,1650849752438104.0
-1.0,-44.0,-19.0,9.0,7.0,3.0,1.0,-1.0,1650849752438104.0
12.0,18.0,-3.0,-5.0,-7.0,1.0,-2.0,-7.0,1650849752439063.0
-2.0,-12.0,-5.0,-10.0,-7.0,-6.0,-3.0,-4.0,1650849752439063.0
9.0,0.0,7.0,3.0,2.0,3.0,12.0,21.0,1650849752452055.0
0.0,33.0,44.0,8.0,7.0,3.0,-5.0,-9.0,1650849752452055.0
-2.0,0.0,-10.0,-8.0,-9.0,-3.0,5.0,7.0,1650849752459036.0
-10.0,-3.0,0.0,10.0,8.0,0.0,7.0,9.0,1650849752459036.0
5.0,-5.0,-3.0,2.0,6.0,0.0,-11.0,-18.0,1650849752474903.0
-4.0,-3.0,17.0,-3.0,-6.0,-1.0,-1.0,0.0,1650849752474903.0
3.0,15.0,-8.0,-2.0,-7.0,-3.0,-3.0,2.0,1650849752476890.0
-1.0,1.0,16.0,10.0,14.0,3.0,10.0,7.0,1650849752476890.0
7.0,7.0,-9.0,1.0,1.0,3.0,-6.0,-2.0,1650849752497883.0
5.0,-13.0,-9.0,-5.0,-5.0,-5.0,18.0,15.0,1650849752497883.0
0.0,12.0,21.0,4.0,1.0,-2.0,-12.0,-11.0,1650849752498840.0
27.0,-5.0,-1.0,0.0,-7.0,-4.0,0.0,5.0,1650849752498840.0
-33.0,-8.0,-3.0,-2.0,-2.0,-2.0,-15.0,-30.0,1650849752511777.0
19.0,-9.0,-11.0,-8.0,-4.0,-7.0,13.0,28.0,1650849752511777.0
-4.0,-21.0,7.0,-4.0,1.0,13.0,9.0,12.0,1650849752518785.0
3.0,19.0,-4.0,-1.0,1.0,-5.0,2.0,11.0,1650849752518785.0
9.0,4.0,-2.0,3.0,4.0,2.0,-11.0,-16.0,1650849752535740.0
1.0,-20.0,-1.0,-1.0,-3.0,2.0,-2.0,2.0,1650849752535740.0
8.0,28.0,5.0,5.0,-1.0,-11.0,8.0,10.0,1650849752537708.0
-8.0,28.0,38.0,1.0,0.0,2.0,3.0,9.0,1650849752537708.0
6.0,-57.0,-12.0,1.0,-6.0,-4.0,-3.0,0.0,1650849752557654.0
-14.0,24.0,-20.0,2.0,9.0,6.0,-4.0,-15.0,1650849752557654.0
-3.0,-41.0,-1.0,-6.0,5.0,6.0,-6.0,-3.0,1650849752559649.0
-5.0,14.0,7.0,9.0,0.0,4.0,9.0,2.0,1650849752559649.0
8.0,12.0,13.0,-1.0,-2.0,-4.0,12.0,24.0,1650849752571645.0
-8.0,1.0,2.0,-5.0,-9.0,-6.0,-23.0,-28.0,1650849752571645.0
6.0,-3.0,-4.0,1.0,6.0,0.0,13.0,22.0,1650849752578598.0
-10.0,4.0,-2.0,-8.0,-9.0,-4.0,-15.0,-19.0,1650849752578598.0
3.0,6.0,-4.0,-4.0,-6.0,-4.0,-6.0,-6.0,1650849752595554.0
-12.0,-13.0,-6.0,4.0,9.0,5.0,6.0,8.0,1650849752595554.0
-6.0,22.0,24.0,0.0,-6.0,-8.0,-15.0,-20.0,1650849752596550.0
-21.0,-58.0,-53.0,-23.0,-18.0,-4.0,2.0,2.0,1650849752596550.0
23.0,23.0,-8.0,4.0,7.0,5.0,4.0,-7.0,1650849752617563.0
-48.0,-3.0,10.0,0.0,1.0,0.0,-5.0,-13.0,1650849752617563.0
-1.0,-8.0,-4.0,-3.0,-2.0,-4.0,-14.0,-18.0,1650849752619510.0
-2.0,4.0,13.0,6.0,3.0,-2.0,-7.0,-3.0,1650849752619510.0
-7.0,4.0,4.0,3.0,-2.0,-8.0,3.0,5.0,1650849752631526.0
16.0,-8.0,-9.0,-11.0,-2.0,5.0,6.0,5.0,1650849752631526.0
3.0,27.0,17.0,10.0,2.0,6.0,4.0,3.0,1650849752640433.0
-8.0,-13.0,-19.0,-12.0,-9.0,-2.0,9.0,5.0,1650849752640433.0
0.0,-6.0,-19.0,2.0,7.0,2.0,-9.0,-7.0,1650849752655420.0
12.0,3.0,15.0,3.0,-6.0,-5.0,-5.0,-6.0,1650849752655420.0
-3.0,0.0,-3.0,4.0,-6.0,-16.0,12.0,12.0,1650849752656411.0
2.0,11.0,2.0,0.0,5.0,17.0,-9.0,-21.0,1650849752656411.0
3.0,-7.0,6.0,-6.0,-6.0,-1.0,11.0,24.0,1650849752677362.0
2.0,37.0,16.0,11.0,13.0,-1.0,-10.0,-12.0,1650849752677362.0
-5.0,-51.0,-10.0,4.0,10.0,13.0,0.0,-3.0,1650849752679329.0
5.0,8.0,27.0,4.0,-4.0,-11.0,6.0,12.0,1650849752679329.0
-2.0,4.0,-18.0,-9.0,-4.0,-1.0,-3.0,-10.0,1650849752691324.0
4.0,-9.0,-4.0,0.0,-6.0,-1.0,3.0,9.0,1650849752691324.0
3.0,26.0,4.0,2.0,3.0,0.0,-12.0,-12.0,1650849752700273.0
-9.0,12.0,37.0,2.0,9.0,3.0,-16.0,-19.0,1650849752700273.0
10.0,2.0,-18.0,-4.0,-11.0,-1.0,29.0,36.0,1650849752715585.0
17.0,3.0,16.0,13.0,4.0,4.0,0.0,9.0,1650849752715585.0
-1.0,2.0,-17.0,-5.0,2.0,3.0,7.0,11.0,1650849752716584.0
-7.0,3.0,2.0,-2.0,-1.0,0.0,-7.0,-9.0,1650849752716584.0
-4.0,5.0,-23.0,-8.0,-9.0,-8.0,-7.0,-4.0,1650849752737711.0
-3.0,-9.0,22.0,-6.0,-2.0,6.0,-4.0,-8.0,1650849752737711.0
28.0,15.0,-17.0,5.0,7.0,7.0,9.0,8.0,1650849752739678.0
-46.0,-9.0,-6.0,-2.0,-4.0,-5.0,3.0,1.0,1650849752739678.0
3.0,14.0,19.0,6.0,10.0,7.0,-7.0,-9.0,1650849752751653.0
2.0,-28.0,-16.0,-4.0,-6.0,-8.0,5.0,7.0,1650849752751653.0
-13.0,-2.0,-19.0,-12.0,-5.0,-4.0,-7.0,-17.0,1650849752760650.0
34.0,22.0,8.0,8.0,4.0,1.0,8.0,23.0,1650849752760650.0
-10.0,-4.0,2.0,-5.0,-8.0,-10.0,-15.0,-18.0,1650849752775582.0
-16.0,-23.0,-19.0,-8.0,-8.0,-2.0,-19.0,-17.0,1650849752775582.0
12.0,12.0,17.0,12.0,7.0,11.0,44.0,45.0,1650849752776580.0
3.0,-6.0,-14.0,4.0,6.0,4.0,-1.0,-2.0,1650849752776580.0
-2.0,14.0,25.0,5.0,-1.0,-2.0,-5.0,-5.0,1650849752797525.0
3.0,7.0,-4.0,0.0,4.0,2.0,-5.0,-6.0,1650849752797525.0
-4.0,-2.0,-11.0,-10.0,-8.0,-8.0,-19.0,-13.0,1650849752799547.0
1.0,-1.0,2.0,3.0,-1.0,-5.0,7.0,2.0,1650849752799547.0
1.0,-17.0,9.0,0.0,1.0,4.0,0.0,3.0,1650849752811516.0
-2.0,0.0,-18.0,-6.0,-5.0,-8.0,-4.0,-3.0,1650849752811516.0
-1.0,24.0,14.0,-4.0,-9.0,-7.0,-11.0,-7.0,1650849752820463.0
15.0,-18.0,-12.0,24.0,26.0,22.0,30.0,22.0,1650849752820463.0
7.0,17.0,7.0,-1.0,6.0,7.0,2.0,8.0,1650849752835452.0
-3.0,-4.0,-14.0,-5.0,-10.0,-9.0,4.0,0.0,1650849752835452.0
-18.0,-9.0,-6.0,-6.0,-3.0,-7.0,-12.0,-8.0,1650849752836420.0
1.0,-6.0,-11.0,-7.0,-6.0,-4.0,-12.0,-11.0,1650849752836420.0
-12.0,12.0,12.0,10.0,0.0,-3.0,1.0,-6.0,1650849752857391.0
7.0,11.0,12.0,-3.0,1.0,3.0,6.0,5.0,1650849752857391.0
-1.0,-6.0,-15.0,-9.0,-15.0,-11.0,-8.0,-5.0,1650849752859359.0
1.0,-14.0,-1.0,3.0,3.0,2.0,14.0,20.0,1650849752859359.0
7.0,-11.0,-5.0,1.0,4.0,2.0,1.0,2.0,1650849752871355.0
-1.0,41.0,18.0,4.0,-2.0,0.0,4.0,6.0,1650849752871355.0
-9.0,-20.0,23.0,1.0,3.0,0.0,-16.0,-20.0,1650849752880303.0
29.0,13.0,-19.0,-10.0,-11.0,-8.0,-7.0,-9.0,1650849752880303.0
-21.0,-18.0,-4.0,-3.0,0.0,-3.0,-3.0,-3.0,1650849752895290.0
11.0,-2.0,0.0,1.0,6.0,2.0,8.0,9.0,1650849752895290.0
1.0,5.0,-6.0,-3.0,-2.0,10.0,1.0,-4.0,1650849752896260.0
-3.0,4.0,3.0,4.0,6.0,2.0,-10.0,-9.0,1650849752896260.0
10.0,25.0,28.0,-7.0,-7.0,-3.0,10.0,3.0,1650849752917988.0
-4.0,-21.0,-31.0,-2.0,-7.0,-6.0,-2.0,-9.0,1650849752917988.0
-2.0,-11.0,-11.0,0.0,-3.0,-1.0,6.0,4.0,1650849752918930.0
-8.0,1.0,-13.0,-6.0,2.0,1.0,-5.0,-5.0,1650849752918930.0
1.0,-7.0,-4.0,-1.0,-2.0,-2.0,-8.0,-8.0,1650849752931885.0
-10.0,-1.0,5.0,-10.0,-7.0,-2.0,-17.0,-11.0,1650849752931885.0
5.0,3.0,4.0,8.0,1.0,-9.0,21.0,6.0,1650849752939890.0
3.0,-31.0,-19.0,9.0,7.0,-1.0,-3.0,-3.0,1650849752939890.0
10.0,15.0,-23.0,-7.0,7.0,16.0,2.0,-3.0,1650849752954889.0
1.0,-26.0,4.0,1.0,-1.0,-2.0,17.0,17.0,1650849752954889.0
-11.0,-3.0,-4.0,1.0,5.0,0.0,-24.0,-17.0,1650849752956818.0
-9.0,-4.0,6.0,-5.0,-12.0,-10.0,-10.0,-12.0,1650849752956818.0
-5.0,-13.0,-12.0,-6.0,-6.0,-10.0,-2.0,-3.0,1650849752977791.0
-5.0,-5.0,-3.0,3.0,2.0,6.0,-5.0,-7.0,1650849752977791.0
7.0,6.0,9.0,2.0,1.0,-5.0,2.0,4.0,1650849752979757.0
-8.0,-4.0,-4.0,-5.0,-5.0,12.0,1.0,-7.0,1650849752979757.0
19.0,-9.0,-3.0,3.0,1.0,-1.0,-3.0,2.0,1650849752991738.0
-10.0,3.0,6.0,0.0,2.0,4.0,4.0,5.0,1650849752991738.0
9.0,10.0,11.0,2.0,0.0,-3.0,-2.0,1.0,1650849753000701.0
-6.0,18.0,-28.0,-9.0,-5.0,-6.0,-5.0,4.0,1650849753000701.0
6.0,-14.0,15.0,11.0,5.0,0.0,5.0,2.0,1650849753015686.0
3.0,-26.0,-20.0,-14.0,-17.0,-10.0,4.0,10.0,1650849753015686.0
5.0,21.0,3.0,5.0,11.0,7.0,3.0,2.0,1650849753016698.0
-11.0,-1.0,12.0,-3.0,-2.0,-3.0,-3.0,-7.0,1650849753016698.0
2.0,12.0,-3.0,-4.0,-6.0,-6.0,-7.0,5.0,1650849753037655.0
9.0,11.0,1.0,1.0,9.0,6.0,5.0,-4.0,1650849753037655.0
-5.0,-10.0,-3.0,4.0,-3.0,0.0,1.0,4.0,1650849753039624.0
-6.0,8.0,21.0,-3.0,-7.0,-5.0,-2.0,-4.0,1650849753039624.0
-5.0,-10.0,-23.0,-3.0,4.0,3.0,1.0,-5.0,1650849753051658.0
22.0,4.0,10.0,9.0,4.0,3.0,3.0,5.0,1650849753051658.0
-15.0,-12.0,-11.0,-4.0,-2.0,2.0,0.0,0.0,1650849753060567.0
9.0,8.0,20.0,-4.0,-7.0,-8.0,-1.0,0.0,1650849753060567.0
-10.0,-2.0,8.0,1.0,-3.0,-3.0,1.0,1.0,1650849753075554.0
14.0,16.0,-9.0,4.0,9.0,8.0,2.0,3.0,1650849753075554.0
-5.0,-17.0,-12.0,-4.0,1.0,0.0,-2.0,-1.0,1650849753076525.0
-3.0,10.0,9.0,3.0,0.0,-5.0,-4.0,-3.0,1650849753076525.0
-2.0,-7.0,7.0,-8.0,-6.0,1.0,7.0,2.0,1650849753097468.0
-6.0,23.0,12.0,7.0,-1.0,-13.0,-3.0,4.0,1650849753097468.0
4.0,0.0,-3.0,0.0,-4.0,17.0,-1.0,-3.0,1650849753099464.0
-7.0,-1.0,0.0,1.0,5.0,0.0,0.0,-4.0,1650849753099464.0
6.0,-4.0,1.0,0.0,3.0,9.0,10.0,7.0,1650849753120407.0
-9.0,-27.0,-8.0,-5.0,-3.0,-3.0,1.0,2.0,1650849753120407.0
-2.0,-1.0,-5.0,-5.0,-4.0,-8.0,-3.0,0.0,1650849753121405.0
5.0,-9.0,-6.0,-4.0,-3.0,-1.0,-2.0,-1.0,1650849753121405.0
-15.0,13.0,-2.0,2.0,-4.0,-2.0,-6.0,-7.0,1650849753135456.0
-5.0,2.0,5.0,3.0,3.0,-4.0,-1.0,-1.0,1650849753135456.0
10.0,-8.0,-7.0,-4.0,-1.0,0.0,0.0,1.0,1650849753136458.0
-25.0,-3.0,4.0,3.0,-1.0,0.0,-5.0,-1.0,1650849753136458.0
-6.0,-7.0,-26.0,5.0,2.0,-7.0,-10.0,-4.0,1650849753157427.0
14.0,7.0,-17.0,-18.0,-1.0,3.0,6.0,2.0,1650849753157427.0
16.0,8.0,-2.0,-4.0,1.0,17.0,28.0,16.0,1650849753159394.0
51.0,14.0,25.0,28.0,9.0,1.0,2.0,-4.0,1650849753159394.0
29.0,-5.0,21.0,-6.0,-12.0,-13.0,-9.0,0.0,1650849753180338.0
-25.0,-2.0,-16.0,-1.0,0.0,0.0,-12.0,-4.0,1650849753180338.0
12.0,1.0,-4.0,-3.0,3.0,-2.0,-10.0,-5.0,1650849753181337.0
-11.0,-4.0,-14.0,-12.0,-5.0,-5.0,4.0,1.0,1650849753181337.0
-10.0,-2.0,8.0,1.0,3.0,2.0,1.0,2.0,1650849753195326.0
12.0,11.0,15.0,9.0,1.0,0.0,-3.0,-5.0,1650849753195326.0
-12.0,-7.0,-8.0,-10.0,-6.0,-7.0,-2.0,-3.0,1650849753196296.0
-3.0,-1.0,22.0,20.0,-2.0,2.0,3.0,3.0,1650849753196296.0
-11.0,0.0,23.0,-9.0,-4.0,-3.0,-5.0,-3.0,1650849753218237.0
6.0,-11.0,-71.0,-18.0,-3.0,-1.0,2.0,0.0,1650849753218237.0
-53.0,-2.0,23.0,25.0,10.0,4.0,3.0,-5.0,1650849753219235.0
-32.0,-10.0,-10.0,-3.0,-4.0,-9.0,-11.0,-14.0,1650849753219235.0
18.0,-4.0,-51.0,-40.0,-19.0,-10.0,2.0,15.0,1650849753240177.0
28.0,11.0,36.0,3.0,6.0,10.0,24.0,24.0,1650849753240177.0
-26.0,-1.0,4.0,23.0,7.0,7.0,3.0,-10.0,1650849753242193.0
42.0,17.0,5.0,14.0,8.0,2.0,-4.0,3.0,1650849753242193.0
-26.0,4.0,28.0,23.0,11.0,-3.0,0.0,-10.0,1650849753263117.0
-4.0,-44.0,-60.0,-17.0,-9.0,-4.0,-13.0,1.0,1650849753263117.0
9.0,6.0,-9.0,-26.0,-1.0,0.0,2.0,4.0,1650849753264128.0
-2.0,2.0,-15.0,-36.0,-6.0,1.0,0.0,4.0,1650849753264128.0
13.0,-7.0,9.0,21.0,7.0,3.0,-5.0,-1.0,1650849753278106.0
-50.0,2.0,30.0,8.0,-5.0,-9.0,-1.0,-11.0,1650849753278106.0
22.0,-6.0,10.0,11.0,-5.0,-7.0,-3.0,0.0,1650849753279074.0
-11.0,1.0,-11.0,-4.0,2.0,6.0,1.0,-2.0,1650849753279074.0
0.0,0.0,-7.0,-6.0,-1.0,-1.0,2.0,2.0,1650849753300085.0
0.0,14.0,32.0,-1.0,0.0,-4.0,-5.0,-10.0,1650849753300085.0
4.0,-21.0,-23.0,-4.0,-11.0,-8.0,-6.0,1.0,1650849753302039.0
-1.0,16.0,35.0,15.0,12.0,10.0,8.0,6.0,1650849753302039.0
-5.0,-5.0,-43.0,1.0,-11.0,-3.0,1.0,-5.0,1650849753315007.0
4.0,10.0,50.0,15.0,5.0,4.0,-3.0,-4.0,1650849753315007.0
9.0,-23.0,-43.0,-22.0,-3.0,-5.0,-4.0,3.0,1650849753320962.0
1.0,-8.0,-2.0,-4.0,-4.0,-7.0,2.0,-1.0,1650849753320962.0
26.0,13.0,1.0,6.0,8.0,8.0,1.0,-1.0,1650849753338001.0
-31.0,-14.0,-4.0,-10.0,-4.0,2.0,-1.0,-4.0,1650849753338001.0
7.0,27.0,-2.0,-18.0,-10.0,-9.0,-6.0,1.0,1650849753338999.0
-6.0,-28.0,-9.0,17.0,-2.0,0.0,2.0,-1.0,1650849753338999.0
2.0,13.0,16.0,5.0,1.0,2.0,1.0,-1.0,1650849753360093.0
8.0,4.0,-13.0,-1.0,-8.0,-3.0,-5.0,-2.0,1650849753360093.0
2.0,7.0,22.0,4.0,17.0,6.0,-1.0,0.0,1650849753362059.0
-6.0,1.0,-44.0,-20.0,-16.0,-11.0,-7.0,-5.0,1650849753362059.0
-14.0,-16.0,-1.0,-10.0,-6.0,-3.0,-1.0,0.0,1650849753374054.0
6.0,3.0,-7.0,3.0,9.0,17.0,4.0,-1.0,1650849753374054.0
2.0,10.0,27.0,9.0,-9.0,-6.0,-1.0,-1.0,1650849753381017.0
-2.0,-26.0,-43.0,-9.0,3.0,6.0,1.0,0.0,1650849753381017.0
-9.0,-3.0,-4.0,-2.0,1.0,-6.0,-2.0,-3.0,1650849753397973.0
9.0,7.0,5.0,-2.0,-6.0,-6.0,-2.0,-2.0,1650849753397973.0
-6.0,-7.0,-3.0,-5.0,-1.0,-3.0,-3.0,0.0,1650849753398960.0
-4.0,1.0,27.0,13.0,4.0,-6.0,0.0,-1.0,1650849753398960.0
-2.0,0.0,-10.0,-3.0,7.0,10.0,3.0,1.0,1650849753419931.0
2.0,-7.0,1.0,2.0,-3.0,2.0,3.0,0.0,1650849753419931.0
4.0,4.0,-5.0,-5.0,-5.0,-3.0,-4.0,0.0,1650849753421898.0
8.0,4.0,24.0,-4.0,-1.0,-6.0,1.0,2.0,1650849753421898.0
-11.0,-2.0,-41.0,-5.0,2.0,8.0,0.0,-1.0,1650849753434927.0
1.0,-3.0,18.0,18.0,12.0,3.0,-2.0,-2.0,1650849753434927.0
18.0,1.0,5.0,-4.0,-3.0,-4.0,0.0,1.0,1650849753440847.0
3.0,2.0,6.0,-8.0,-6.0,2.0,1.0,1.0,1650849753440847.0
-3.0,7.0,8.0,-2.0,-4.0,-5.0,0.0,3.0,1650849753457960.0
-1.0,-3.0,3.0,-2.0,-4.0,-6.0,-2.0,-1.0,1650849753457960.0
5.0,4.0,-16.0,2.0,5.0,0.0,1.0,-3.0,1650849753458966.0
-3.0,-2.0,4.0,5.0,-7.0,-2.0,-1.0,-3.0,1650849753458966.0
-7.0,-6.0,19.0,19.0,13.0,5.0,-3.0,-2.0,1650849753480071.0
5.0,21.0,4.0,-5.0,-1.0,-3.0,3.0,0.0,1650849753480071.0
-5.0,-8.0,26.0,15.0,1.0,0.0,-3.0,-2.0,1650849753488050.0
-6.0,-2.0,-30.0,-30.0,-5.0,-1.0,-1.0,-1.0,1650849753488050.0
-3.0,11.0,9.0,-4.0,-6.0,-3.0,0.0,0.0,1650849753494065.0
4.0,-17.0,7.0,7.0,-3.0,-3.0,-1.0,-4.0,1650849753494065.0
-4.0,12.0,18.0,5.0,3.0,-2.0,-1.0,-1.0,1650849753501082.0
-2.0,-2.0,-3.0,-2.0,3.0,2.0,2.0,3.0,1650849753501082.0
5.0,-17.0,-4.0,-6.0,-2.0,1.0,-2.0,0.0,1650849753518037.0
-4.0,-1.0,-7.0,6.0,0.0,0.0,0.0,1.0,1650849753518037.0
3.0,12.0,6.0,3.0,-3.0,-1.0,1.0,-1.0,1650849753518968.0
-18.0,-2.0,13.0,3.0,0.0,0.0,-1.0,3.0,1650849753518968.0
15.0,-4.0,-21.0,-11.0,-2.0,0.0,0.0,-2.0,1650849753539911.0
-7.0,-1.0,6.0,5.0,0.0,-8.0,-1.0,0.0,1650849753539911.0
-3.0,-10.0,-17.0,-5.0,-3.0,1.0,-1.0,-1.0,1650849753541926.0
6.0,9.0,3.0,1.0,3.0,12.0,3.0,1.0,1650849753541926.0
9.0,3.0,1.0,-3.0,1.0,0.0,0.0,1.0,1650849753554871.0
-16.0,-4.0,5.0,-7.0,-4.0,-2.0,-1.0,-2.0,1650849753554871.0
5.0,1.0,-9.0,5.0,-3.0,-6.0,-1.0,1.0,1650849753560883.0
5.0,-1.0,2.0,3.0,2.0,-1.0,-3.0,-1.0,1650849753560883.0
-12.0,0.0,4.0,-2.0,1.0,2.0,2.0,0.0,1650849753577837.0
11.0,-3.0,1.0,-6.0,-3.0,-1.0,-1.0,1.0,1650849753577837.0
-8.0,0.0,1.0,-2.0,-4.0,5.0,1.0,0.0,1650849753578807.0
-2.0,2.0,-8.0,0.0,2.0,-2.0,-1.0,-1.0,1650849753578807.0
3.0,-1.0,5.0,0.0,1.0,-1.0,0.0,1.0,1650849753607729.0
0.0,9.0,5.0,12.0,7.0,2.0,-1.0,3.0,1650849753607729.0
0.0,-17.0,-18.0,-4.0,-3.0,-2.0,-2.0,-1.0,1650849753609725.0
-1.0,-2.0,13.0,-6.0,-4.0,-2.0,-1.0,-1.0,1650849753609725.0
-6.0,10.0,20.0,11.0,-2.0,-4.0,-1.0,-2.0,1650849753613713.0
1.0,0.0,-8.0,-6.0,-2.0,-2.0,0.0,0.0,1650849753613713.0
-6.0,-1.0,23.0,-9.0,-3.0,5.0,1.0,0.0,1650849753622689.0
0.0,-3.0,-33.0,8.0,7.0,1.0,3.0,0.0,1650849753622689.0
-2.0,-2.0,5.0,3.0,4.0,-2.0,-1.0,-1.0,1650849753636754.0
4.0,2.0,-3.0,-8.0,-2.0,-3.0,-1.0,1.0,1650849753636754.0
1.0,-8.0,-1.0,2.0,1.0,-5.0,-3.0,-1.0,1650849753645739.0
0.0,8.0,22.0,2.0,-8.0,-5.0,-3.0,-2.0,1650849753645739.0
1.0,3.0,-7.0,8.0,7.0,7.0,1.0,0.0,1650849753660109.0
-1.0,-19.0,-7.0,-4.0,1.0,0.0,-1.0,-1.0,1650849753660109.0
0.0,-7.0,-29.0,-9.0,-2.0,2.0,2.0,-1.0,1650849753662105.0
3.0,11.0,8.0,-3.0,-6.0,-2.0,1.0,2.0,1650849753662105.0
-6.0,-4.0,9.0,2.0,0.0,-4.0,-2.0,-2.0,1650849753674099.0
5.0,5.0,0.0,2.0,2.0,3.0,0.0,2.0,1650849753674099.0
-6.0,3.0,-9.0,-2.0,1.0,-3.0,-4.0,-1.0,1650849753683049.0
0.0,-13.0,6.0,6.0,-4.0,-3.0,-1.0,0.0,1650849753683049.0
-1.0,4.0,1.0,-1.0,-5.0,-1.0,0.0,0.0,1650849753698009.0
-2.0,0.0,-13.0,-1.0,-4.0,-3.0,-2.0,-2.0,1650849753698009.0
-1.0,9.0,-1.0,4.0,3.0,-5.0,0.0,-2.0,1650849753699006.0
7.0,0.0,14.0,-2.0,9.0,12.0,3.0,2.0,1650849753699006.0
-5.0,-3.0,0.0,3.0,-7.0,-5.0,1.0,0.0,1650849753726958.0
6.0,-1.0,-11.0,-5.0,-5.0,2.0,0.0,0.0,1650849753726958.0
-2.0,1.0,-3.0,-1.0,8.0,2.0,1.0,1.0,1650849753735993.0
-3.0,-14.0,12.0,-5.0,-5.0,-6.0,-4.0,-3.0,1650849753735993.0
-1.0,0.0,3.0,11.0,1.0,-1.0,-1.0,-1.0,1650849753736990.0
16.0,2.0,3.0,-3.0,-5.0,-4.0,-1.0,-2.0,1650849753736990.0
-36.0,-4.0,-2.0,-2.0,-4.0,-3.0,1.0,-1.0,1650849753742974.0
1.0,1.0,-15.0,-2.0,2.0,2.0,-1.0,0.0,1650849753742974.0
1.0,-2.0,-3.0,-8.0,-2.0,2.0,-2.0,0.0,1650849753756453.0
2.0,4.0,3.0,9.0,3.0,-2.0,0.0,2.0,1650849753756453.0
11.0,4.0,5.0,-1.0,4.0,6.0,0.0,0.0,1650849753765442.0
-5.0,0.0,-11.0,-2.0,-4.0,-4.0,-2.0,0.0,1650849753765442.0
-6.0,5.0,4.0,-9.0,-6.0,1.0,-1.0,0.0,1650849753780389.0
-7.0,-20.0,4.0,9.0,13.0,6.0,-1.0,0.0,1650849753780389.0
3.0,-5.0,-5.0,1.0,-5.0,-6.0,-3.0,-1.0,1650849753782383.0
-5.0,8.0,-15.0,-4.0,-6.0,-4.0,-1.0,-1.0,1650849753782383.0
7.0,-2.0,4.0,-2.0,6.0,1.0,1.0,0.0,1650849753793381.0
-7.0,8.0,5.0,2.0,-1.0,-1.0,-2.0,-2.0,1650849753793381.0
8.0,1.0,1.0,-2.0,1.0,3.0,0.0,2.0,1650849753802396.0
2.0,-3.0,-8.0,0.0,0.0,-2.0,1.0,0.0,1650849753802396.0
-2.0,-3.0,-4.0,-3.0,-3.0,1.0,-2.0,0.0,1650849753817356.0
-4.0,3.0,-1.0,-5.0,-5.0,-1.0,0.0,-1.0,1650849753817356.0
1.0,1.0,1.0,2.0,-2.0,0.0,-2.0,-1.0,1650849753819285.0
4.0,1.0,-6.0,-3.0,-1.0,0.0,0.0,-1.0,1650849753819285.0
-1.0,-6.0,15.0,-3.0,-4.0,-7.0,-1.0,0.0,1650849753840233.0
-1.0,12.0,12.0,9.0,-3.0,0.0,2.0,0.0,1650849753840233.0
6.0,6.0,11.0,15.0,17.0,7.0,4.0,0.0,1650849753841226.0
-3.0,-5.0,-5.0,-7.0,-6.0,-3.0,-2.0,-2.0,1650849753841226.0
-3.0,-3.0,1.0,-1.0,1.0,2.0,-2.0,-1.0,1650849753853500.0
0.0,-2.0,-14.0,-11.0,-1.0,6.0,1.0,-1.0,1650849753853500.0
1.0,2.0,9.0,6.0,-8.0,-5.0,0.0,-1.0,1650849753862443.0
-2.0,-9.0,-5.0,1.0,7.0,1.0,1.0,-1.0,1650849753862443.0
-3.0,11.0,-2.0,-1.0,-5.0,-8.0,-1.0,-3.0,1650849753885415.0
-3.0,1.0,-5.0,0.0,-2.0,-2.0,-2.0,-1.0,1650849753885415.0
3.0,0.0,-4.0,-9.0,-4.0,-2.0,0.0,0.0,1650849753886346.0
0.0,-1.0,10.0,7.0,4.0,-3.0,1.0,0.0,1650849753886346.0
2.0,-3.0,-12.0,2.0,3.0,8.0,0.0,1.0,1650849753900315.0
-6.0,-4.0,-3.0,2.0,1.0,-3.0,-2.0,-2.0,1650849753900315.0
9.0,0.0,-2.0,-3.0,0.0,1.0,0.0,2.0,1650849753901305.0
-4.0,2.0,7.0,-10.0,-5.0,-5.0,-4.0,-1.0,1650849753901305.0
0.0,14.0,-1.0,5.0,-1.0,-2.0,-1.0,0.0,1650849753914271.0
-4.0,-17.0,-3.0,-1.0,2.0,2.0,0.0,-1.0,1650849753914271.0
-2.0,-2.0,9.0,3.0,-1.0,-3.0,-1.0,-1.0,1650849753923246.0
-2.0,3.0,-13.0,-6.0,-12.0,-8.0,-2.0,-1.0,1650849753923246.0
1.0,1.0,0.0,6.0,11.0,13.0,3.0,0.0,1650849753937975.0
1.0,2.0,0.0,-7.0,5.0,-1.0,1.0,0.0,1650849753937975.0
-1.0,-3.0,-9.0,-16.0,-7.0,-4.0,1.0,1.0,1650849753938909.0
-2.0,16.0,15.0,10.0,1.0,2.0,-1.0,0.0,1650849753938909.0
2.0,-15.0,-11.0,-9.0,-9.0,-8.0,-2.0,-1.0,1650849753960537.0
1.0,0.0,-5.0,1.0,-6.0,-3.0,-1.0,0.0,1650849753960537.0
-3.0,-1.0,1.0,0.0,4.0,2.0,-1.0,-3.0,1650849753961535.0
0.0,-2.0,-6.0,-1.0,3.0,3.0,4.0,-1.0,1650849753961535.0
-3.0,-3.0,0.0,2.0,-1.0,1.0,1.0,2.0,1650849753973531.0
1.0,7.0,6.0,0.0,0.0,3.0,1.0,-1.0,1650849753973531.0
-2.0,-3.0,-15.0,-9.0,-4.0,-3.0,1.0,1.0,1650849753982480.0
-1.0,1.0,8.0,2.0,-4.0,1.0,-3.0,-1.0,1650849753982480.0
-2.0,-7.0,-1.0,5.0,4.0,-5.0,-3.0,-2.0,1650849753998437.0
1.0,2.0,-3.0,-3.0,2.0,1.0,0.0,0.0,1650849753998437.0
-3.0,-2.0,7.0,2.0,-4.0,-2.0,-3.0,-1.0,1650849753999435.0
0.0,-2.0,-7.0,-2.0,-1.0,-6.0,-4.0,-1.0,1650849753999435.0
2.0,-1.0,-7.0,-8.0,2.0,14.0,6.0,0.0,1650849754020393.0
-1.0,2.0,6.0,5.0,-9.0,-3.0,-4.0,0.0,1650849754020393.0
0.0,-3.0,-1.0,2.0,4.0,3.0,0.0,-2.0,1650849754021374.0
-1.0,0.0,4.0,-3.0,0.0,0.0,1.0,0.0,1650849754021374.0
-2.0,-4.0,-5.0,-2.0,-8.0,-8.0,-3.0,-2.0,1650849754043431.0
-3.0,-3.0,-1.0,-4.0,-4.0,-2.0,0.0,-1.0,1650849754043431.0
2.0,-1.0,1.0,5.0,-1.0,-1.0,1.0,1.0,1650849754044399.0
-2.0,5.0,4.0,6.0,8.0,3.0,0.0,1.0,1650849754044399.0
1.0,0.0,-12.0,-8.0,-9.0,-6.0,-1.0,1.0,1650849754057393.0
2.0,-4.0,6.0,3.0,6.0,1.0,0.0,1.0,1650849754057393.0
-2.0,4.0,-1.0,2.0,4.0,-2.0,-3.0,-2.0,1650849754059359.0
-1.0,-5.0,-9.0,-4.0,-2.0,-2.0,-3.0,-2.0,1650849754059359.0
-2.0,-8.0,-2.0,-5.0,-5.0,-6.0,0.0,-2.0,1650849754080309.0
0.0,0.0,1.0,6.0,5.0,7.0,-1.0,1.0,1650849754080309.0
0.0,12.0,8.0,3.0,-5.0,-2.0,-3.0,-1.0,1650849754081300.0
0.0,-4.0,-2.0,-4.0,6.0,7.0,2.0,0.0,1650849754081300.0
-2.0,1.0,-3.0,-2.0,-2.0,-6.0,-3.0,-2.0,1650849754102317.0
0.0,-1.0,2.0,-3.0,-8.0,-4.0,-1.0,-2.0,1650849754102317.0
-1.0,-2.0,1.0,1.0,2.0,0.0,1.0,-1.0,1650849754104239.0
0.0,0.0,-2.0,0.0,1.0,5.0,1.0,-1.0,1650849754104239.0
-2.0,-3.0,-3.0,1.0,-3.0,-8.0,-4.0,1.0,1650849754118203.0
-2.0,2.0,-1.0,-3.0,-1.0,0.0,-1.0,-1.0,1650849754118203.0
-1.0,-3.0,-4.0,3.0,8.0,7.0,2.0,0.0,1650849754119200.0
2.0,0.0,5.0,1.0,-5.0,-4.0,0.0,-2.0,1650849754119200.0
-3.0,-4.0,0.0,2.0,3.0,1.0,-2.0,-3.0,1650849754140142.0
-2.0,-2.0,-6.0,-6.0,-9.0,-7.0,0.0,1.0,1650849754140142.0
1.0,2.0,-1.0,-1.0,-5.0,-4.0,-1.0,1.0,1650849754142157.0
0.0,-7.0,0.0,-3.0,-1.0,2.0,-2.0,0.0,1650849754142157.0
1.0,0.0,0.0,5.0,6.0,3.0,1.0,1.0,1650849754163117.0
-2.0,6.0,0.0,-2.0,1.0,-2.0,-2.0,-1.0,1650849754163117.0
-1.0,-2.0,0.0,-3.0,-4.0,2.0,2.0,-1.0,1650849754164117.0
2.0,-3.0,1.0,4.0,-3.0,-6.0,-1.0,2.0,1650849754164117.0
0.0,-2.0,2.0,4.0,2.0,9.0,0.0,0.0,1650849754178102.0
2.0,-1.0,1.0,-1.0,8.0,1.0,0.0,-2.0,1650849754178102.0
-1.0,-4.0,-3.0,-7.0,1.0,1.0,-2.0,-1.0,1650849754179085.0
0.0,1.0,-7.0,-12.0,0.0,-4.0,-1.0,0.0,1650849754179085.0
1.0,1.0,6.0,3.0,-3.0,-1.0,0.0,2.0,1650849754200021.0
-1.0,-1.0,-2.0,4.0,-6.0,-13.0,-3.0,-1.0,1650849754200021.0
-1.0,-2.0,-2.0,-3.0,0.0,13.0,2.0,-2.0,1650849754202015.0
-1.0,0.0,-2.0,-1.0,4.0,-3.0,2.0,0.0,1650849754202015.0
-1.0,0.0,5.0,-2.0,-3.0,-2.0,0.0,-2.0,1650849754223066.0
-1.0,4.0,-2.0,-2.0,-4.0,0.0,0.0,0.0,1650849754223066.0
0.0,-2.0,-5.0,0.0,2.0,-7.0,-4.0,0.0,1650849754224079.0
-1.0,-1.0,-1.0,1.0,-4.0,3.0,1.0,-2.0,1650849754224079.0
0.0,2.0,2.0,-2.0,-1.0,0.0,-2.0,1.0,1650849754236867.0
1.0,-2.0,2.0,-2.0,-6.0,-5.0,-1.0,-2.0,1650849754236867.0
0.0,-2.0,-2.0,2.0,-8.0,-7.0,1.0,1.0,1650849754243802.0
-1.0,0.0,5.0,8.0,19.0,15.0,1.0,-1.0,1650849754243802.0
-1.0,2.0,-2.0,-9.0,-9.0,-8.0,-2.0,-2.0,1650849754259916.0
1.0,-2.0,-2.0,0.0,-1.0,4.0,1.0,-3.0,1650849754259916.0
-1.0,3.0,2.0,2.0,0.0,1.0,0.0,2.0,1650849754261903.0
0.0,-1.0,1.0,-1.0,-3.0,-2.0,1.0,0.0,1650849754261903.0
-2.0,-1.0,-6.0,-16.0,0.0,-1.0,-1.0,-3.0,1650849754282832.0
0.0,-1.0,-2.0,11.0,3.0,0.0,-1.0,0.0,1650849754282832.0
-1.0,-5.0,-1.0,-4.0,-3.0,-3.0,-1.0,-3.0,1650849754284822.0
-4.0,2.0,1.0,3.0,-6.0,0.0,0.0,-3.0,1650849754284822.0
3.0,3.0,1.0,1.0,3.0,2.0,-2.0,-1.0,1650849754296818.0
0.0,-5.0,-8.0,-8.0,-2.0,3.0,4.0,5.0,1650849754296818.0
-2.0,-2.0,-2.0,5.0,0.0,-1.0,-3.0,-3.0,1650849754303838.0
-3.0,-1.0,-2.0,-2.0,-9.0,-8.0,-7.0,-5.0,1650849754303838.0
-2.0,-1.0,0.0,2.0,5.0,7.0,2.0,2.0,1650849754320793.0
-1.0,2.0,6.0,0.0,4.0,3.0,4.0,2.0,1650849754320793.0
2.0,1.0,2.0,0.0,-6.0,-3.0,-1.0,1.0,1650849754321723.0
-4.0,1.0,-7.0,0.0,-3.0,-4.0,-2.0,-2.0,1650849754321723.0
-3.0,-4.0,-2.0,0.0,3.0,-3.0,-2.0,-2.0,1650849754342787.0
0.0,4.0,0.0,-3.0,-5.0,0.0,-3.0,-2.0,1650849754342787.0
-2.0,-9.0,-2.0,-5.0,-2.0,-4.0,0.0,0.0,1650849754343805.0
1.0,1.0,0.0,-1.0,3.0,4.0,0.0,1.0,1650849754343805.0
1.0,6.0,-1.0,5.0,3.0,-3.0,0.0,0.0,1650849754356779.0
-2.0,3.0,10.0,-1.0,0.0,5.0,1.0,-1.0,1650849754356779.0
2.0,4.0,0.0,-1.0,-6.0,0.0,0.0,-1.0,1650849754363760.0
3.0,-9.0,-15.0,-3.0,1.0,-2.0,-1.0,0.0,1650849754363760.0
-2.0,-1.0,9.0,10.0,-4.0,-2.0,0.0,-1.0,1650849754379717.0
0.0,-4.0,-7.0,-14.0,-1.0,-4.0,-4.0,0.0,1650849754379717.0
-1.0,5.0,2.0,6.0,-10.0,-3.0,-1.0,0.0,1650849754381685.0
2.0,-2.0,3.0,7.0,12.0,7.0,5.0,0.0,1650849754381685.0
2.0,-5.0,-10.0,-12.0,2.0,0.0,-1.0,-1.0,1650849754402695.0
-1.0,-2.0,2.0,0.0,-6.0,2.0,-1.0,-3.0,1650849754402695.0
0.0,-2.0,5.0,6.0,8.0,-3.0,-1.0,0.0,1650849754404623.0
0.0,2.0,-10.0,-7.0,-6.0,-3.0,-1.0,1.0,1650849754404623.0
-2.0,0.0,3.0,3.0,-2.0,0.0,-1.0,-1.0,1650849754416590.0
-2.0,-2.0,-5.0,-5.0,-4.0,-6.0,-3.0,-3.0,1650849754416590.0
0.0,-1.0,1.0,2.0,8.0,7.0,3.0,2.0,1650849754423600.0
0.0,2.0,4.0,0.0,-4.0,-1.0,0.0,0.0,1650849754423600.0
-2.0,-1.0,0.0,1.0,-5.0,-5.0,0.0,-1.0,1650849754439917.0
-1.0,-3.0,-5.0,4.0,11.0,7.0,1.0,0.0,1650849754439917.0
-2.0,-1.0,-10.0,-21.0,4.0,1.0,-1.0,-3.0,1650849754441886.0
-1.0,2.0,9.0,1.0,-13.0,-8.0,-4.0,-4.0,1650849754441886.0
2.0,0.0,5.0,2.0,-2.0,2.0,-1.0,0.0,1650849754462998.0
1.0,0.0,-6.0,6.0,-5.0,-6.0,3.0,4.0,1650849754462998.0
0.0,-1.0,-3.0,4.0,7.0,4.0,3.0,1.0,1650849754463969.0
-1.0,-2.0,-1.0,-3.0,1.0,1.0,-8.0,-5.0,1650849754463969.0
-1.0,1.0,-1.0,-10.0,-6.0,-1.0,2.0,-3.0,1650849754477931.0
3.0,1.0,1.0,13.0,5.0,-3.0,3.0,9.0,1650849754477931.0
-1.0,-1.0,-1.0,1.0,-7.0,-2.0,0.0,-2.0,1650849754490910.0
0.0,-2.0,-1.0,-1.0,5.0,3.0,3.0,0.0,1650849754490910.0
-1.0,-2.0,0.0,-7.0,-2.0,3.0,-10.0,-10.0,1650849754499872.0
-5.0,1.0,0.0,1.0,-4.0,4.0,3.0,-12.0,1650849754499872.0
1.0,0.0,-3.0,4.0,-1.0,-6.0,5.0,15.0,1650849754501867.0
13.0,3.0,5.0,1.0,-2.0,-2.0,6.0,20.0,1650849754501867.0
-7.0,0.0,-1.0,7.0,7.0,8.0,-15.0,-27.0,1650849754522843.0
-5.0,-7.0,1.0,6.0,5.0,-5.0,-4.0,8.0,1650849754522843.0
7.0,4.0,2.0,-8.0,-6.0,8.0,32.0,21.0,1650849754523808.0
0.0,3.0,-4.0,-13.0,5.0,-3.0,-1.0,11.0,1650849754523808.0
5.0,5.0,0.0,19.0,7.0,3.0,0.0,3.0,1650849754536790.0
-10.0,-10.0,5.0,-12.0,-17.0,1.0,-17.0,-36.0,1650849754536790.0
-2.0,1.0,1.0,12.0,4.0,-7.0,-3.0,-2.0,1650849754545768.0
10.0,5.0,7.0,11.0,0.0,-2.0,4.0,7.0,1650849754545768.0
4.0,3.0,-8.0,-9.0,-1.0,-4.0,-1.0,7.0,1650849754560756.0
1.0,4.0,-8.0,-4.0,3.0,-2.0,-7.0,-3.0,1650849754560756.0
-8.0,-19.0,-7.0,-6.0,-3.0,-1.0,-16.0,-28.0,1650849754562725.0
-8.0,-5.0,1.0,-7.0,-8.0,1.0,15.0,12.0,1650849754562725.0
7.0,-14.0,1.0,22.0,13.0,11.0,-7.0,-12.0,1650849754582669.0
-10.0,18.0,-4.0,-34.0,-7.0,-2.0,15.0,16.0,1650849754582669.0
24.0,-12.0,4.0,20.0,-1.0,-1.0,-1.0,5.0,1650849754584669.0
3.0,2.0,10.0,4.0,-4.0,-2.0,-4.0,-14.0,1650849754584669.0
10.0,5.0,-4.0,-7.0,-9.0,-10.0,12.0,10.0,1650849754596659.0
23.0,1.0,-2.0,2.0,6.0,3.0,-8.0,7.0,1650849754596659.0
-48.0,5.0,0.0,-9.0,-2.0,-6.0,-8.0,-10.0,1650849754605060.0
-6.0,-13.0,-1.0,1.0,4.0,4.0,-9.0,-15.0,1650849754605060.0
-12.0,-6.0,-9.0,0.0,-6.0,-1.0,-2.0,-7.0,1650849754620083.0
6.0,-3.0,10.0,6.0,6.0,3.0,11.0,8.0,1650849754620083.0
22.0,16.0,-9.0,-10.0,-3.0,1.0,-8.0,-4.0,1650849754622016.0
-24.0,-24.0,-3.0,2.0,-6.0,-5.0,-6.0,-12.0,1650849754622016.0
-48.0,5.0,12.0,-10.0,0.0,-2.0,7.0,13.0,1650849754643076.0
21.0,14.0,-4.0,14.0,8.0,3.0,10.0,20.0,1650849754643076.0
2.0,-10.0,0.0,-2.0,-5.0,-3.0,-6.0,-7.0,1650849754644082.0
33.0,9.0,-10.0,2.0,1.0,2.0,8.0,0.0,1650849754644082.0
-5.0,-4.0,0.0,-3.0,-4.0,2.0,3.0,4.0,1650849754656673.0
-8.0,-4.0,-5.0,-14.0,1.0,1.0,-5.0,-9.0,1650849754656673.0
-6.0,7.0,11.0,13.0,2.0,-1.0,-9.0,-3.0,1650849754665581.0
5.0,-9.0,-5.0,-5.0,1.0,-3.0,-7.0,-5.0,1650849754665581.0
11.0,1.0,-17.0,-12.0,-7.0,-8.0,-2.0,2.0,1650849754679694.0
0.0,-10.0,0.0,6.0,-3.0,1.0,13.0,3.0,1650849754679694.0
4.0,13.0,4.0,-12.0,-1.0,0.0,0.0,3.0,1650849754681662.0
36.0,-1.0,-4.0,-2.0,-2.0,-3.0,-1.0,3.0,1650849754681662.0
-44.0,1.0,11.0,9.0,5.0,2.0,-3.0,-6.0,1650849754703169.0
12.0,-4.0,-1.0,-4.0,-1.0,-3.0,-5.0,6.0,1650849754703169.0
-40.0,-6.0,-11.0,-11.0,-5.0,-4.0,0.0,-14.0,1650849754704169.0
2.0,8.0,5.0,12.0,6.0,6.0,2.0,4.0,1650849754704169.0
14.0,0.0,2.0,-3.0,-1.0,-3.0,-3.0,0.0,1650849754716137.0
-11.0,-4.0,1.0,6.0,3.0,1.0,-5.0,-8.0,1650849754716137.0
9.0,-2.0,6.0,-1.0,-2.0,-2.0,-1.0,4.0,1650849754725191.0
-28.0,3.0,-7.0,-6.0,-2.0,-4.0,-3.0,-3.0,1650849754725191.0
17.0,2.0,-1.0,-6.0,1.0,5.0,10.0,3.0,1650849754740319.0
-27.0,-21.0,-2.0,10.0,-3.0,-7.0,-5.0,-9.0,1650849754740319.0
18.0,2.0,4.0,-5.0,0.0,3.0,1.0,7.0,1650849754741308.0
-14.0,4.0,-3.0,-14.0,-6.0,-4.0,-2.0,-6.0,1650849754741308.0
13.0,4.0,11.0,21.0,0.0,1.0,0.0,5.0,1650849754763374.0
4.0,5.0,-4.0,2.0,6.0,5.0,-1.0,0.0,1650849754763374.0
-4.0,-6.0,-8.0,5.0,3.0,3.0,-1.0,-2.0,1650849754765383.0
-3.0,1.0,4.0,-1.0,2.0,2.0,1.0,0.0,1650849754765383.0
14.0,6.0,15.0,-3.0,-13.0,-10.0,0.0,3.0,1650849754776340.0
16.0,2.0,-12.0,-5.0,-1.0,-1.0,-5.0,-7.0,1650849754776340.0
-5.0,-3.0,-6.0,-4.0,0.0,-3.0,-2.0,0.0,1650849754785828.0
-13.0,0.0,-1.0,2.0,-2.0,1.0,2.0,2.0,1650849754785828.0
11.0,-6.0,-7.0,-11.0,1.0,2.0,0.0,0.0,1650849754799831.0
8.0,12.0,7.0,5.0,3.0,-2.0,-2.0,0.0,1650849754799831.0
12.0,3.0,-5.0,-8.0,-2.0,3.0,1.0,4.0,1650849754801819.0
5.0,5.0,2.0,3.0,-1.0,-3.0,0.0,0.0,1650849754801819.0
-7.0,-3.0,-1.0,0.0,1.0,-2.0,-2.0,-1.0,1650849754822789.0
-11.0,-1.0,1.0,3.0,-5.0,-2.0,-1.0,-7.0,1650849754822789.0
-2.0,7.0,7.0,10.0,5.0,0.0,2.0,7.0,1650849754823759.0
0.0,-17.0,1.0,3.0,4.0,8.0,3.0,3.0,1650849754823759.0
-19.0,-5.0,-1.0,4.0,-1.0,-5.0,-2.0,-1.0,1650849754836380.0
-6.0,6.0,0.0,-9.0,-5.0,1.0,-3.0,-6.0,1650849754836380.0
-30.0,-3.0,2.0,1.0,0.0,1.0,5.0,4.0,1650849754845363.0
9.0,2.0,-7.0,2.0,-3.0,-3.0,-3.0,-3.0,1650849754845363.0
7.0,-6.0,-8.0,-6.0,1.0,4.0,2.0,3.0,1650849754859941.0
-1.0,-3.0,9.0,7.0,-5.0,-7.0,-2.0,-1.0,1650849754859941.0
15.0,2.0,-2.0,-11.0,-3.0,-2.0,-2.0,-3.0,1650849754861908.0
-14.0,-1.0,3.0,10.0,2.0,0.0,-3.0,-2.0,1650849754861908.0
2.0,4.0,4.0,1.0,-2.0,0.0,2.0,1.0,1650849754882851.0
-5.0,-5.0,-1.0,3.0,0.0,-2.0,-2.0,-1.0,1650849754882851.0
5.0,-2.0,-9.0,-7.0,-3.0,-2.0,-3.0,-3.0,1650849754883849.0
-12.0,0.0,-9.0,-7.0,-2.0,-3.0,-1.0,-4.0,1650849754883849.0
28.0,4.0,2.0,1.0,3.0,0.0,-1.0,1.0,1650849754895845.0
-42.0,-14.0,-4.0,-2.0,-1.0,-2.0,2.0,2.0,1650849754895845.0
36.0,4.0,3.0,6.0,-6.0,-1.0,0.0,-2.0,1650849754905796.0
-21.0,14.0,3.0,-4.0,4.0,-3.0,2.0,1.0,1650849754905796.0
-6.0,-7.0,-7.0,-9.0,3.0,6.0,-1.0,-4.0,1650849754919755.0
12.0,3.0,-1.0,1.0,3.0,2.0,1.0,2.0,1650849754919755.0
-6.0,-18.0,-2.0,-1.0,-7.0,-8.0,-4.0,-5.0,1650849754921757.0
-3.0,3.0,-5.0,-6.0,-6.0,-2.0,-4.0,0.0,1650849754921757.0
20.0,13.0,19.0,13.0,0.0,-3.0,1.0,1.0,1650849754942822.0
-8.0,-12.0,-5.0,-6.0,0.0,2.0,-1.0,-2.0,1650849754942822.0
1.0,10.0,-3.0,-4.0,10.0,10.0,1.0,1.0,1650849754943813.0
8.0,2.0,2.0,1.0,-6.0,-2.0,-2.0,-2.0,1650849754943813.0
5.0,-8.0,-6.0,-4.0,0.0,0.0,-2.0,2.0,1650849754956784.0
-20.0,2.0,3.0,0.0,-5.0,-3.0,-2.0,-2.0,1650849754956784.0
2.0,1.0,6.0,9.0,0.0,-3.0,-3.0,-1.0,1650849754965732.0
6.0,3.0,-4.0,-8.0,1.0,2.0,0.0,-1.0,1650849754965732.0
-12.0,-3.0,-9.0,-7.0,-6.0,-3.0,0.0,-1.0,1650849754979723.0
32.0,4.0,-3.0,-1.0,5.0,2.0,0.0,3.0,1650849754979723.0
7.0,4.0,6.0,2.0,2.0,3.0,2.0,4.0,1650849754981702.0
-8.0,-5.0,2.0,5.0,-2.0,-1.0,-1.0,-2.0,1650849754981702.0
1.0,-1.0,-8.0,-5.0,-1.0,-1.0,0.0,1.0,1650849755002702.0
15.0,-1.0,-2.0,-4.0,-6.0,-3.0,-1.0,-3.0,1650849755002702.0
-12.0,-1.0,-2.0,-1.0,2.0,-1.0,0.0,-2.0,1650849755004656.0
3.0,-2.0,2.0,2.0,1.0,-2.0,0.0,-1.0,1650849755004656.0
1.0,-4.0,-5.0,-2.0,-6.0,1.0,1.0,1.0,1650849755024794.0
-40.0,-5.0,0.0,1.0,9.0,3.0,0.0,-3.0,1650849755024794.0
-2.0,1.0,-3.0,-3.0,0.0,-2.0,-2.0,-1.0,1650849755026721.0
-1.0,-7.0,2.0,-1.0,-1.0,2.0,1.0,1.0,1650849755026721.0
-5.0,0.0,1.0,9.0,2.0,-1.0,0.0,0.0,1650849755040683.0
-10.0,-1.0,0.0,4.0,-4.0,-6.0,-3.0,-1.0,1650849755040683.0
4.0,0.0,-5.0,-5.0,-3.0,-2.0,-1.0,0.0,1650849755041681.0
0.0,10.0,5.0,-2.0,3.0,-1.0,2.0,1.0,1650849755041681.0
-18.0,-18.0,5.0,9.0,1.0,0.0,-2.0,-2.0,1650849755062739.0
28.0,4.0,-7.0,-6.0,-4.0,1.0,-2.0,-1.0,1650849755062739.0
14.0,-2.0,-5.0,-4.0,-1.0,-5.0,1.0,-1.0,1650849755064703.0
3.0,0.0,2.0,7.0,-1.0,5.0,-1.0,-1.0,1650849755064703.0
21.0,13.0,-5.0,-29.0,1.0,2.0,1.0,1.0,1650849755085649.0
-26.0,-13.0,1.0,14.0,-1.0,-4.0,-2.0,-4.0,1650849755085649.0
2.0,3.0,14.0,9.0,4.0,2.0,-1.0,-3.0,1650849755086651.0
0.0,5.0,-8.0,-3.0,-6.0,-5.0,-1.0,-1.0,1650849755086651.0
10.0,-8.0,0.0,5.0,-3.0,-6.0,3.0,0.0,1650849755100612.0
16.0,5.0,-3.0,-10.0,4.0,10.0,-1.0,1.0,1650849755100612.0
-5.0,-2.0,-8.0,-9.0,-3.0,-5.0,-1.0,-1.0,1650849755101605.0
0.0,-6.0,2.0,6.0,4.0,2.0,1.0,-1.0,1650849755101605.0
-16.0,1.0,1.0,1.0,3.0,-3.0,-2.0,-1.0,1650849755122562.0
16.0,10.0,1.0,5.0,-9.0,-6.0,1.0,4.0,1650849755122562.0
-36.0,-19.0,-1.0,-2.0,-1.0,7.0,1.0,-6.0,1650849755124544.0
29.0,1.0,-3.0,0.0,7.0,0.0,-1.0,4.0,1650849755124544.0
-1.0,-3.0,-7.0,-11.0,-5.0,-4.0,-3.0,-4.0,1650849755152536.0
24.0,11.0,-3.0,-6.0,0.0,-3.0,-1.0,-2.0,1650849755152536.0
-13.0,2.0,0.0,5.0,-2.0,2.0,-1.0,2.0,1650849755154491.0
31.0,7.0,14.0,6.0,-6.0,-6.0,-1.0,3.0,1650849755154491.0
-45.0,-6.0,2.0,10.0,8.0,9.0,0.0,-6.0,1650849755159470.0
12.0,5.0,1.0,-3.0,2.0,2.0,3.0,4.0,1650849755159470.0
-11.0,1.0,-12.0,-6.0,-4.0,-7.0,-5.0,-5.0,1650849755166460.0
-17.0,-9.0,-9.0,-8.0,-6.0,-2.0,-2.0,-3.0,1650849755166460.0
7.0,1.0,13.0,17.0,-1.0,2.0,2.0,3.0,1650849755182418.0
-18.0,-6.0,4.0,6.0,1.0,1.0,0.0,-2.0,1650849755182418.0
-18.0,-4.0,-2.0,-3.0,4.0,5.0,2.0,-1.0,1650849755184386.0
14.0,8.0,4.0,2.0,-2.0,-1.0,3.0,0.0,1650849755184386.0
1.0,6.0,-14.0,-15.0,-9.0,-5.0,-4.0,0.0,1650849755205415.0
-21.0,-10.0,-4.0,1.0,1.0,-2.0,1.0,0.0,1650849755205415.0
21.0,1.0,10.0,13.0,4.0,0.0,0.0,5.0,1650849755206425.0
-8.0,2.0,-4.0,-1.0,2.0,4.0,-2.0,-4.0,1650849755206425.0
-27.0,1.0,-5.0,1.0,-2.0,2.0,1.0,0.0,1650849755219447.0
17.0,2.0,-5.0,-12.0,-3.0,-4.0,-1.0,1.0,1650849755219447.0
10.0,2.0,-1.0,2.0,-3.0,-5.0,0.0,1.0,1650849755226360.0
-30.0,-6.0,7.0,5.0,-1.0,0.0,-2.0,-4.0,1650849755226360.0
36.0,7.0,-3.0,3.0,2.0,-1.0,2.0,2.0,1650849755242318.0
-8.0,7.0,2.0,-8.0,2.0,2.0,0.0,2.0,1650849755242318.0
2.0,-8.0,-2.0,-14.0,-2.0,2.0,-2.0,-1.0,1650849755244313.0
-43.0,-8.0,-11.0,14.0,2.0,1.0,-1.0,-5.0,1650849755244313.0
9.0,5.0,7.0,1.0,-3.0,-5.0,-3.0,1.0,1650849755265256.0
3.0,-4.0,-2.0,-4.0,-4.0,-7.0,-3.0,-2.0,1650849755265256.0
10.0,0.0,-6.0,-3.0,4.0,6.0,3.0,0.0,1650849755271269.0
-38.0,-2.0,0.0,-14.0,-7.0,-3.0,-3.0,-2.0,1650849755271269.0
-9.0,0.0,-6.0,-2.0,0.0,0.0,0.0,-2.0,1650849755279219.0
15.0,-2.0,5.0,-2.0,0.0,-1.0,2.0,8.0,1650849755279219.0
24.0,0.0,-5.0,1.0,-4.0,-4.0,-2.0,-4.0,1650849755286265.0
11.0,3.0,3.0,5.0,3.0,-2.0,-2.0,-1.0,1650849755286265.0
-9.0,-4.0,4.0,-3.0,5.0,1.0,-1.0,-3.0,1650849755310227.0
-9.0,5.0,-5.0,-3.0,-6.0,0.0,-2.0,-4.0,1650849755310227.0
-2.0,-17.0,-2.0,1.0,-12.0,-6.0,-2.0,-4.0,1650849755312223.0
38.0,5.0,-3.0,-4.0,8.0,6.0,2.0,6.0,1650849755312223.0
-6.0,2.0,3.0,9.0,4.0,0.0,1.0,0.0,1650849755325182.0
0.0,1.0,2.0,-12.0,-1.0,-4.0,-4.0,-4.0,1650849755325182.0
1.0,6.0,1.0,0.0,-2.0,-2.0,0.0,2.0,1650849755327177.0
0.0,-4.0,-2.0,0.0,-2.0,0.0,3.0,-1.0,1650849755327177.0
5.0,5.0,1.0,-6.0,-1.0,1.0,-2.0,1.0,1650849755339214.0
20.0,-6.0,-10.0,-4.0,0.0,1.0,-1.0,-1.0,1650849755339214.0
-18.0,13.0,4.0,-2.0,0.0,-2.0,-2.0,0.0,1650849755346154.0
-11.0,-14.0,-3.0,-8.0,-9.0,-8.0,-2.0,-6.0,1650849755346154.0
19.0,13.0,5.0,10.0,-2.0,-4.0,-2.0,2.0,1650849755362227.0
-24.0,-5.0,-1.0,-4.0,9.0,11.0,2.0,-1.0,1650849755362227.0
0.0,4.0,4.0,12.0,1.0,-2.0,-1.0,0.0,1650849755364205.0
7.0,10.0,6.0,23.0,9.0,5.0,-2.0,1.0,1650849755364205.0
16.0,-13.0,-11.0,-16.0,-10.0,-6.0,-1.0,-3.0,1650849755385618.0
-6.0,8.0,7.0,15.0,-1.0,-1.0,1.0,-1.0,1650849755385618.0
25.0,-16.0,-8.0,-15.0,-1.0,-2.0,0.0,-1.0,1650849755386623.0
-8.0,2.0,-5.0,-18.0,-6.0,-3.0,-1.0,-3.0,1650849755386623.0
-5.0,-10.0,-3.0,4.0,4.0,1.0,-1.0,0.0,1650849755399582.0
7.0,5.0,5.0,7.0,-1.0,2.0,1.0,0.0,1650849755399582.0
-8.0,4.0,3.0,-10.0,-2.0,-1.0,1.0,0.0,1650849755406872.0
18.0,-3.0,-2.0,4.0,0.0,-2.0,0.0,1.0,1650849755406872.0
-18.0,2.0,0.0,-3.0,5.0,0.0,-2.0,-6.0,1650849755422898.0
-2.0,-4.0,-4.0,-4.0,-4.0,-2.0,-1.0,-1.0,1650849755422898.0
-18.0,-7.0,-1.0,3.0,2.0,0.0,2.0,1.0,1650849755423829.0
3.0,5.0,10.0,9.0,0.0,0.0,1.0,1.0,1650849755423829.0
-3.0,-5.0,-16.0,-14.0,-4.0,-3.0,-3.0,0.0,1650849755444801.0
-20.0,-6.0,7.0,2.0,-1.0,1.0,0.0,-2.0,1650849755444801.0
14.0,11.0,-10.0,5.0,-3.0,-3.0,-6.0,-4.0,1650849755446768.0
-4.0,-2.0,-4.0,-12.0,-5.0,-6.0,-2.0,-1.0,1650849755446768.0
-4.0,-2.0,3.0,3.0,7.0,8.0,5.0,0.0,1650849755459732.0
13.0,-14.0,0.0,4.0,-4.0,-4.0,1.0,0.0,1650849755459732.0
-9.0,5.0,5.0,1.0,-1.0,-1.0,0.0,-1.0,1650849755466751.0
5.0,-2.0,-5.0,-4.0,-1.0,4.0,1.0,1.0,1650849755466751.0
-33.0,1.0,2.0,9.0,6.0,0.0,0.0,0.0,1650849755482671.0
-4.0,2.0,-5.0,-14.0,-4.0,-4.0,0.0,-1.0,1650849755482671.0
-3.0,-2.0,4.0,11.0,7.0,1.0,0.0,1.0,1650849755490650.0
31.0,8.0,0.0,-2.0,-4.0,-5.0,-5.0,-1.0,1650849755490650.0
-12.0,6.0,0.0,-1.0,-7.0,-3.0,1.0,-2.0,1650849755505654.0
3.0,1.0,1.0,6.0,3.0,0.0,0.0,-1.0,1650849755505654.0
-2.0,-8.0,-4.0,-8.0,3.0,4.0,0.0,3.0,1650849755506610.0
12.0,2.0,-4.0,-13.0,1.0,5.0,2.0,1.0,1650849755506610.0
15.0,1.0,7.0,1.0,0.0,0.0,0.0,1.0,1650849755518581.0
-15.0,5.0,0.0,17.0,0.0,-5.0,-1.0,-3.0,1650849755518581.0
10.0,4.0,0.0,-5.0,-6.0,-2.0,-1.0,1.0,1650849755527551.0
-10.0,0.0,-5.0,-4.0,4.0,0.0,-1.0,-3.0,1650849755527551.0
6.0,-2.0,-1.0,-2.0,0.0,1.0,0.0,0.0,1650849755542511.0
15.0,0.0,-4.0,-6.0,1.0,-2.0,-2.0,0.0,1650849755542511.0
9.0,6.0,5.0,2.0,-6.0,-7.0,0.0,2.0,1650849755544526.0
-61.0,-13.0,-6.0,-7.0,4.0,8.0,0.0,-6.0,1650849755544526.0
7.0,1.0,-5.0,3.0,-6.0,-1.0,0.0,2.0,1650849755565280.0
41.0,4.0,6.0,2.0,-2.0,1.0,-1.0,0.0,1650849755565280.0
-13.0,0.0,-1.0,0.0,10.0,2.0,-1.0,0.0,1650849755566249.0
3.0,-12.0,-5.0,-4.0,-2.0,-4.0,-2.0,-1.0,1650849755566249.0
10.0,-2.0,-5.0,-12.0,-1.0,-2.0,0.0,-1.0,1650849755579214.0
-39.0,-7.0,4.0,16.0,-1.0,-1.0,-3.0,-3.0,1650849755579214.0
12.0,-1.0,-4.0,-6.0,-3.0,-2.0,0.0,-2.0,1650849755588099.0
-1.0,2.0,1.0,0.0,2.0,-4.0,0.0,1.0,1650849755588099.0
9.0,-1.0,0.0,-7.0,-1.0,2.0,0.0,2.0,1650849755603147.0
-28.0,-2.0,-7.0,-12.0,-2.0,-1.0,1.0,-2.0,1650849755603147.0
-12.0,4.0,13.0,31.0,7.0,1.0,-3.0,-4.0,1650849755604056.0
24.0,-1.0,1.0,8.0,1.0,-1.0,-2.0,2.0,1650849755604056.0
-14.0,-9.0,-6.0,-5.0,-3.0,0.0,0.0,0.0,1650849755625082.0
6.0,7.0,-1.0,-13.0,-7.0,-4.0,-1.0,1.0,1650849755625082.0
-6.0,2.0,-4.0,-3.0,-1.0,0.0,0.0,-2.0,1650849755627079.0
0.0,-13.0,-4.0,-1.0,8.0,8.0,2.0,0.0,1650849755627079.0
-3.0,0.0,5.0,-7.0,-3.0,-4.0,-3.0,-4.0,1650849755639096.0
0.0,0.0,5.0,9.0,-1.0,-2.0,-1.0,-1.0,1650849755639096.0
0.0,-5.0,-1.0,-3.0,-7.0,-7.0,-1.0,1.0,1650849755648053.0
6.0,13.0,9.0,11.0,6.0,7.0,-1.0,0.0,1650849755648053.0
-2.0,-1.0,-8.0,-5.0,-4.0,-3.0,0.0,-1.0,1650849755663095.0
2.0,-7.0,1.0,-6.0,1.0,1.0,-1.0,0.0,1650849755663095.0
11.0,-2.0,-6.0,-5.0,-5.0,-3.0,-2.0,-1.0,1650849755669053.0
-12.0,-3.0,2.0,1.0,-9.0,-4.0,-1.0,0.0,1650849755669053.0
4.0,7.0,7.0,2.0,5.0,2.0,0.0,1.0,1650849755685041.0
3.0,0.0,-2.0,-1.0,-2.0,1.0,-1.0,-1.0,1650849755685041.0
-7.0,0.0,2.0,0.0,0.0,-1.0,1.0,-1.0,1650849755687033.0
-2.0,3.0,-5.0,-2.0,4.0,-4.0,0.0,1.0,1650849755687033.0
-5.0,2.0,4.0,3.0,-3.0,2.0,0.0,-3.0,1650849755708075.0
4.0,-10.0,-6.0,-2.0,0.0,1.0,0.0,1.0,1650849755708075.0
-7.0,-4.0,-28.0,-11.0,3.0,2.0,1.0,2.0,1650849755709043.0
0.0,2.0,10.0,-2.0,-5.0,-4.0,0.0,-2.0,1650849755709043.0
12.0,2.0,-1.0,8.0,-6.0,-7.0,-4.0,0.0,1650849755723075.0
-2.0,10.0,17.0,3.0,4.0,-1.0,2.0,-3.0,1650849755723075.0
-5.0,-27.0,-5.0,-4.0,-3.0,6.0,0.0,-2.0,1650849755724007.0
3.0,0.0,-11.0,-5.0,-4.0,-6.0,-4.0,-5.0,1650849755724007.0
2.0,1.0,-5.0,1.0,7.0,5.0,3.0,3.0,1650849755744946.0
1.0,0.0,-5.0,-4.0,-2.0,-2.0,3.0,12.0,1650849755744946.0
-4.0,6.0,10.0,1.0,-3.0,-4.0,-4.0,-4.0,1650849755746941.0
0.0,-9.0,-9.0,-3.0,-13.0,-4.0,0.0,0.0,1650849755746941.0
-3.0,6.0,28.0,7.0,9.0,4.0,-2.0,-7.0,1650849755758977.0
0.0,1.0,-31.0,-5.0,0.0,-3.0,-2.0,-1.0,1650849755758977.0
0.0,1.0,7.0,-1.0,0.0,2.0,0.0,0.0,1650849755767885.0
-1.0,4.0,-3.0,-5.0,-7.0,-1.0,2.0,2.0,1650849755767885.0
0.0,-5.0,-9.0,-3.0,-6.0,-6.0,-3.0,-1.0,1650849755782607.0
4.0,6.0,-8.0,3.0,5.0,3.0,1.0,0.0,1650849755782607.0
0.0,10.0,17.0,10.0,3.0,0.0,1.0,0.0,1650849755784575.0
-5.0,2.0,5.0,-4.0,1.0,-1.0,-1.0,0.0,1650849755784575.0
-2.0,-7.0,-16.0,-4.0,-1.0,2.0,1.0,2.0,1650849755805613.0
0.0,0.0,-15.0,-19.0,-11.0,-4.0,-5.0,-4.0,1650849755805613.0
-2.0,2.0,-4.0,9.0,10.0,5.0,-8.0,-9.0,1650849755806544.0
-1.0,-15.0,8.0,7.0,8.0,2.0,9.0,13.0,1650849755806544.0
7.0,3.0,1.0,0.0,-6.0,-4.0,2.0,6.0,1650849755827616.0
0.0,-2.0,13.0,5.0,-5.0,-2.0,2.0,1.0,1650849755827616.0
1.0,18.0,-1.0,-8.0,-3.0,-4.0,0.0,-4.0,1650849755829611.0
-3.0,-6.0,-1.0,-10.0,-1.0,2.0,-7.0,-8.0,1650849755829611.0
-4.0,-8.0,-10.0,1.0,-4.0,-5.0,-1.0,-2.0,1650849755842577.0
-3.0,-8.0,-2.0,5.0,5.0,4.0,1.0,-2.0,1650849755842577.0
-3.0,4.0,11.0,-2.0,-2.0,-2.0,0.0,0.0,1650849755844572.0
-1.0,-3.0,-12.0,-9.0,-10.0,-7.0,-2.0,-1.0,1650849755844572.0
0.0,4.0,3.0,3.0,-8.0,-3.0,-2.0,-1.0,1650849755864722.0
4.0,5.0,-5.0,2.0,18.0,14.0,3.0,0.0,1650849755864722.0
0.0,-9.0,5.0,-1.0,-8.0,-7.0,0.0,4.0,1650849755866691.0
2.0,10.0,8.0,6.0,4.0,3.0,-1.0,-1.0,1650849755866691.0
1.0,-7.0,-22.0,-13.0,0.0,1.0,0.0,0.0,1650849755878687.0
-1.0,15.0,52.0,28.0,0.0,-4.0,-3.0,-2.0,1650849755878687.0
-3.0,-10.0,-18.0,-12.0,-3.0,2.0,1.0,-1.0,1650849755887634.0
0.0,3.0,-14.0,-2.0,0.0,-5.0,-4.0,-2.0,1650849755887634.0
2.0,-2.0,8.0,0.0,-3.0,-1.0,0.0,1.0,1650849755902615.0
1.0,-15.0,-13.0,-8.0,7.0,2.0,0.0,2.0,1650849755902615.0
3.0,15.0,17.0,6.0,0.0,1.0,4.0,2.0,1650849755904589.0
0.0,-14.0,-2.0,0.0,-9.0,-6.0,1.0,-2.0,1650849755904589.0
-3.0,-7.0,16.0,11.0,11.0,7.0,0.0,-2.0,1650849755924707.0
-1.0,-2.0,-22.0,-13.0,-5.0,-9.0,-3.0,-1.0,1650849755924707.0
-3.0,-17.0,-16.0,1.0,6.0,7.0,-1.0,2.0,1650849755926701.0
1.0,8.0,-12.0,-10.0,-2.0,-2.0,-3.0,-1.0,1650849755926701.0
-1.0,6.0,8.0,2.0,-1.0,-2.0,-1.0,-3.0,1650849755947673.0
-3.0,-7.0,3.0,4.0,-4.0,2.0,3.0,2.0,1650849755947673.0
1.0,5.0,5.0,-6.0,-4.0,-2.0,1.0,-2.0,1650849755949641.0
-2.0,-5.0,-24.0,-1.0,1.0,-2.0,0.0,0.0,1650849755949641.0
0.0,6.0,14.0,1.0,1.0,-3.0,0.0,0.0,1650849755962606.0
-4.0,-5.0,-4.0,6.0,-3.0,-6.0,-3.0,-5.0,1650849755962606.0
1.0,6.0,12.0,-4.0,8.0,8.0,1.0,1.0,1650849755964632.0
-2.0,-2.0,0.0,5.0,-4.0,3.0,0.0,1.0,1650849755964632.0
0.0,-4.0,6.0,3.0,-3.0,-2.0,-2.0,1.0,1650849755985545.0
2.0,12.0,12.0,-2.0,7.0,3.0,1.0,0.0,1650849755985545.0
-2.0,-9.0,-26.0,-14.0,-8.0,-7.0,0.0,-1.0,1650849755986556.0
2.0,6.0,13.0,2.0,5.0,-1.0,-4.0,0.0,1650849755986556.0
1.0,9.0,22.0,25.0,4.0,4.0,1.0,-1.0,1650849756007486.0
-4.0,-14.0,-5.0,3.0,-12.0,-6.0,-5.0,-3.0,1650849756007486.0
0.0,11.0,12.0,3.0,3.0,1.0,-1.0,0.0,1650849756009501.0
-1.0,-6.0,-12.0,-11.0,1.0,-3.0,-1.0,-1.0,1650849756009501.0
0.0,2.0,-19.0,-5.0,9.0,-3.0,0.0,1.0,1650849756022512.0
-1.0,5.0,6.0,-2.0,-2.0,6.0,1.0,-1.0,1650849756022512.0
-2.0,-14.0,-9.0,-5.0,-1.0,6.0,4.0,1.0,1650849756024441.0
0.0,7.0,10.0,-2.0,-12.0,-5.0,-1.0,-2.0,1650849756024441.0
-2.0,-5.0,-19.0,-6.0,-4.0,-4.0,-2.0,-2.0,1650849756045412.0
-2.0,-11.0,-2.0,1.0,3.0,-4.0,0.0,-1.0,1650849756045412.0
1.0,9.0,-2.0,1.0,5.0,2.0,-1.0,1.0,1650849756046382.0
0.0,8.0,16.0,9.0,0.0,4.0,-1.0,-1.0,1650849756046382.0
-1.0,-3.0,-2.0,-8.0,-7.0,-4.0,-1.0,-2.0,1650849756067860.0
-1.0,-2.0,-5.0,-5.0,-4.0,-5.0,-1.0,-1.0,1650849756067860.0
2.0,-2.0,-1.0,4.0,6.0,7.0,1.0,1.0,1650849756068833.0
-2.0,-4.0,0.0,-4.0,-4.0,-4.0,0.0,-2.0,1650849756068833.0
0.0,4.0,-12.0,4.0,-1.0,2.0,0.0,-2.0,1650849756081796.0
1.0,5.0,15.0,8.0,7.0,5.0,1.0,1.0,1650849756081796.0
-4.0,-10.0,-28.0,-7.0,-7.0,-8.0,-2.0,-1.0,1650849756088846.0
-1.0,3.0,9.0,5.0,1.0,-2.0,-2.0,0.0,1650849756088846.0
-3.0,-1.0,-16.0,-18.0,-7.0,0.0,-2.0,-1.0,1650849756105630.0
1.0,-1.0,-2.0,3.0,5.0,4.0,1.0,-1.0,1650849756105630.0
-3.0,-1.0,13.0,10.0,3.0,-5.0,-3.0,-2.0,1650849756106638.0
1.0,-1.0,-3.0,-6.0,1.0,3.0,1.0,-1.0,1650849756106638.0
-1.0,-7.0,-11.0,-8.0,-3.0,-3.0,0.0,0.0,1650849756127742.0
0.0,17.0,12.0,-4.0,-6.0,-4.0,-2.0,0.0,1650849756127742.0
0.0,-4.0,3.0,-1.0,1.0,2.0,0.0,0.0,1650849756129748.0
-1.0,1.0,2.0,10.0,3.0,-1.0,-1.0,-1.0,1650849756129748.0
-1.0,0.0,10.0,3.0,3.0,3.0,3.0,0.0,1650849756141768.0
-3.0,2.0,-8.0,-11.0,-3.0,-3.0,-1.0,0.0,1650849756141768.0
-2.0,0.0,-3.0,-1.0,-5.0,-6.0,-1.0,-1.0,1650849756148713.0
0.0,-2.0,-1.0,1.0,2.0,0.0,-2.0,-1.0,1650849756148713.0
-2.0,-4.0,5.0,2.0,1.0,-1.0,-3.0,0.0,1650849756165178.0
0.0,5.0,-10.0,-9.0,-4.0,-6.0,-2.0,0.0,1650849756165178.0
-2.0,-8.0,-4.0,1.0,-2.0,10.0,2.0,0.0,1650849756167146.0
0.0,4.0,10.0,4.0,4.0,1.0,2.0,-1.0,1650849756167146.0
-1.0,-3.0,2.0,-2.0,-1.0,-3.0,-1.0,1.0,1650849756188146.0
-1.0,-8.0,-14.0,-7.0,-3.0,-6.0,-3.0,-2.0,1650849756188146.0
-2.0,3.0,13.0,1.0,-14.0,-10.0,-3.0,-2.0,1650849756189087.0
-1.0,0.0,-13.0,-1.0,9.0,6.0,4.0,1.0,1650849756189087.0
-2.0,3.0,6.0,-2.0,0.0,-2.0,-1.0,-1.0,1650849756202053.0
-1.0,-5.0,-5.0,-1.0,-1.0,-2.0,-2.0,0.0,1650849756202053.0
1.0,1.0,8.0,2.0,-1.0,1.0,0.0,0.0,1650849756209103.0
-1.0,1.0,-3.0,-3.0,-6.0,-1.0,0.0,0.0,1650849756209103.0
0.0,-6.0,-20.0,-3.0,-1.0,-3.0,0.0,-1.0,1650849756232171.0
-2.0,-9.0,8.0,-1.0,0.0,0.0,0.0,-1.0,1650849756232171.0
0.0,7.0,0.0,-1.0,4.0,1.0,0.0,-1.0,1650849756234148.0
-2.0,-1.0,2.0,-1.0,-5.0,-3.0,0.0,-1.0,1650849756234148.0
2.0,6.0,9.0,9.0,12.0,8.0,1.0,1.0,1650849756248117.0
-1.0,-2.0,-8.0,-4.0,-7.0,-2.0,-1.0,-3.0,1650849756248117.0
0.0,-6.0,-6.0,-2.0,2.0,-2.0,1.0,2.0,1650849756249099.0
0.0,10.0,25.0,1.0,3.0,0.0,1.0,-1.0,1650849756249099.0
-1.0,-11.0,-29.0,-5.0,-6.0,-4.0,-2.0,0.0,1650849756262063.0
0.0,2.0,0.0,0.0,2.0,3.0,1.0,0.0,1650849756262063.0
0.0,-10.0,-2.0,-1.0,-3.0,-6.0,-2.0,0.0,1650849756269045.0
-2.0,-4.0,1.0,5.0,0.0,1.0,-2.0,-1.0,1650849756269045.0
1.0,6.0,13.0,1.0,-1.0,1.0,-1.0,-1.0,1650849756285030.0
-2.0,-4.0,-2.0,3.0,-1.0,-2.0,-2.0,0.0,1650849756285030.0
0.0,4.0,-3.0,-6.0,-3.0,0.0,-1.0,0.0,1650849756286997.0
0.0,2.0,-4.0,0.0,-2.0,2.0,-1.0,0.0,1650849756286997.0
-3.0,-12.0,-3.0,0.0,3.0,1.0,0.0,-1.0,1650849756308120.0
-1.0,-6.0,0.0,-1.0,-2.0,2.0,0.0,-1.0,1650849756308120.0
-1.0,8.0,5.0,-6.0,-4.0,-6.0,0.0,0.0,1650849756309072.0
-1.0,-2.0,-15.0,-1.0,-2.0,-1.0,-1.0,0.0,1650849756309072.0
0.0,-7.0,0.0,0.0,-1.0,5.0,0.0,0.0,1650849756322492.0
2.0,19.0,20.0,2.0,2.0,1.0,1.0,0.0,1650849756322492.0
-1.0,-1.0,2.0,3.0,4.0,-1.0,-1.0,0.0,1650849756328505.0
-1.0,-7.0,-12.0,-5.0,-4.0,-2.0,-1.0,-2.0,1650849756328505.0
0.0,7.0,-5.0,-6.0,-9.0,-7.0,-2.0,-1.0,1650849756345460.0
-2.0,-7.0,3.0,4.0,0.0,-2.0,-2.0,0.0,1650849756345460.0
-1.0,11.0,20.0,1.0,-2.0,2.0,-2.0,-1.0,1650849756346430.0
-2.0,-8.0,-26.0,-4.0,0.0,0.0,-1.0,0.0,1650849756346430.0
-2.0,-3.0,-7.0,-6.0,-4.0,-3.0,-1.0,-3.0,1650849756367400.0
0.0,-3.0,-2.0,0.0,5.0,3.0,1.0,1.0,1650849756367400.0
-1.0,-2.0,-5.0,3.0,0.0,-3.0,-2.0,-1.0,1650849756369369.0
1.0,-4.0,13.0,1.0,1.0,0.0,-1.0,0.0,1650849756369369.0
0.0,5.0,13.0,4.0,1.0,2.0,1.0,1.0,1650849756382361.0
1.0,-4.0,-7.0,2.0,8.0,1.0,0.0,1.0,1650849756382361.0
-1.0,-10.0,-13.0,0.0,-4.0,-3.0,-1.0,-1.0,1650849756389331.0
0.0,12.0,12.0,4.0,6.0,7.0,0.0,0.0,1650849756389331.0
-1.0,13.0,-4.0,-12.0,-8.0,-5.0,-2.0,-2.0,1650849756405389.0
-4.0,-14.0,0.0,1.0,-1.0,-3.0,-1.0,-2.0,1650849756405389.0
1.0,11.0,2.0,1.0,-1.0,-2.0,-1.0,0.0,1650849756406390.0
-2.0,-4.0,-6.0,-3.0,1.0,-1.0,-1.0,0.0,1650849756406390.0
1.0,-5.0,25.0,12.0,4.0,2.0,0.0,2.0,1650849756426421.0
0.0,18.0,-11.0,-9.0,-1.0,6.0,3.0,0.0,1650849756426421.0
0.0,-2.0,-4.0,4.0,6.0,-2.0,-2.0,-2.0,1650849756435409.0
3.0,7.0,20.0,6.0,0.0,-1.0,0.0,1.0,1650849756435409.0
-4.0,-26.0,-17.0,-5.0,-3.0,-4.0,-2.0,-4.0,1650849756441446.0
3.0,7.0,8.0,4.0,-3.0,-2.0,0.0,0.0,1650849756441446.0
-2.0,0.0,5.0,4.0,3.0,3.0,1.0,2.0,1650849756450358.0
1.0,-12.0,-6.0,0.0,0.0,0.0,0.0,0.0,1650849756450358.0
-1.0,19.0,18.0,3.0,-3.0,-12.0,-2.0,0.0,1650849756465345.0
0.0,-6.0,-8.0,-3.0,-1.0,5.0,-1.0,-1.0,1650849756465345.0
0.0,0.0,1.0,-5.0,0.0,7.0,5.0,0.0,1650849756466316.0
0.0,-7.0,-4.0,-2.0,-3.0,-4.0,0.0,-2.0,1650849756466316.0
0.0,3.0,-5.0,7.0,9.0,4.0,1.0,1.0,1650849756487276.0
0.0,-1.0,-4.0,-6.0,-10.0,-6.0,-4.0,-1.0,1650849756487276.0
-1.0,-9.0,-4.0,-5.0,-3.0,-3.0,-3.0,-2.0,1650849756489255.0
0.0,6.0,-2.0,-5.0,-11.0,-8.0,-1.0,0.0,1650849756489255.0
-2.0,-8.0,-3.0,9.0,5.0,5.0,-2.0,1.0,1650849756501250.0
2.0,5.0,20.0,4.0,9.0,7.0,2.0,2.0,1650849756501250.0
-1.0,1.0,-22.0,-7.0,-1.0,-2.0,-1.0,0.0,1650849756510205.0
-3.0,-25.0,-2.0,-1.0,-2.0,-2.0,0.0,-3.0,1650849756510205.0
0.0,4.0,-2.0,-5.0,-4.0,-2.0,1.0,-1.0,1650849756525615.0
-1.0,-6.0,-2.0,0.0,1.0,-1.0,-1.0,-2.0,1650849756525615.0
0.0,-5.0,-1.0,-4.0,-4.0,0.0,-1.0,-1.0,1650849756527255.0
-2.0,-5.0,-6.0,-2.0,1.0,-1.0,-1.0,0.0,1650849756527255.0
0.0,19.0,14.0,-2.0,-2.0,1.0,-2.0,-1.0,1650849756547418.0
-3.0,-17.0,-2.0,1.0,-5.0,-1.0,-1.0,-2.0,1650849756547418.0
-1.0,0.0,-12.0,-5.0,-4.0,-6.0,-1.0,-3.0,1650849756549414.0
-1.0,2.0,3.0,0.0,-1.0,-5.0,-1.0,0.0,1650849756549414.0
1.0,1.0,-1.0,-1.0,-7.0,7.0,3.0,0.0,1650849756561450.0
2.0,3.0,1.0,1.0,17.0,7.0,2.0,4.0,1650849756561450.0
-2.0,-6.0,-11.0,-1.0,-4.0,-2.0,2.0,-1.0,1650849756570358.0
-1.0,5.0,-2.0,1.0,3.0,0.0,-1.0,0.0,1650849756570358.0
-3.0,-8.0,-3.0,-4.0,-5.0,-5.0,-2.0,-2.0,1650849756585317.0
1.0,13.0,6.0,-4.0,-7.0,-6.0,-2.0,-1.0,1650849756585317.0
-6.0,-32.0,-20.0,-2.0,-3.0,-11.0,-5.0,-2.0,1650849756586315.0
0.0,13.0,14.0,6.0,0.0,6.0,1.0,1.0,1650849756586315.0
-2.0,-8.0,-1.0,-2.0,-2.0,3.0,2.0,0.0,1650849756607326.0
0.0,0.0,-9.0,-1.0,6.0,5.0,0.0,-1.0,1650849756607326.0
3.0,10.0,11.0,0.0,2.0,1.0,-1.0,-1.0,1650849756609254.0
-2.0,2.0,-5.0,-5.0,-4.0,-6.0,-3.0,-1.0,1650849756609254.0
-1.0,-11.0,-10.0,-2.0,-1.0,-4.0,-2.0,1.0,1650849756621249.0
0.0,13.0,12.0,-1.0,-8.0,-3.0,0.0,-1.0,1650849756621249.0
1.0,-3.0,-2.0,3.0,0.0,-1.0,0.0,0.0,1650849756630208.0
-1.0,-7.0,-5.0,-1.0,3.0,4.0,0.0,0.0,1650849756630208.0
0.0,-9.0,-16.0,-3.0,-2.0,0.0,0.0,-1.0,1650849756645184.0
0.0,7.0,18.0,2.0,1.0,-3.0,-1.0,-2.0,1650849756645184.0
-2.0,9.0,0.0,-3.0,-2.0,1.0,0.0,-4.0,1650849756647173.0
-1.0,1.0,3.0,-3.0,0.0,2.0,0.0,0.0,1650849756647173.0
1.0,4.0,25.0,8.0,4.0,0.0,0.0,0.0,1650849756668095.0
-1.0,-15.0,-49.0,-8.0,-10.0,-4.0,-2.0,-1.0,1650849756668095.0
2.0,7.0,19.0,5.0,-6.0,-7.0,-3.0,0.0,1650849756669094.0
1.0,0.0,-11.0,1.0,8.0,8.0,1.0,0.0,1650849756669094.0
1.0,9.0,11.0,1.0,12.0,11.0,1.0,0.0,1650849756681090.0
-3.0,-6.0,-1.0,0.0,-8.0,-14.0,-1.0,-1.0,1650849756681090.0
0.0,-1.0,10.0,6.0,-3.0,21.0,5.0,1.0,1650849756696042.0
1.0,-3.0,-7.0,-3.0,1.0,-11.0,-3.0,-2.0,1650849756696042.0
0.0,2.0,-7.0,-4.0,-6.0,-3.0,2.0,0.0,1650849756705003.0
-2.0,1.0,-1.0,-1.0,0.0,-3.0,-1.0,-2.0,1650849756705003.0
-2.0,-8.0,-6.0,-6.0,-1.0,-3.0,-2.0,0.0,1650849756707021.0
1.0,2.0,-1.0,4.0,-6.0,-5.0,0.0,-2.0,1650849756707021.0
-3.0,-6.0,-3.0,-2.0,6.0,8.0,-1.0,0.0,1650849756728093.0
-2.0,5.0,-13.0,-4.0,-3.0,-3.0,1.0,-1.0,1650849756728093.0
0.0,-5.0,8.0,0.0,-8.0,-5.0,-3.0,-1.0,1650849756729061.0
2.0,18.0,28.0,2.0,6.0,7.0,1.0,2.0,1650849756729061.0
0.0,-6.0,-19.0,7.0,3.0,-6.0,-3.0,-3.0,1650849756741091.0
-1.0,-10.0,3.0,-5.0,-1.0,1.0,-1.0,2.0,1650849756741091.0
-1.0,22.0,17.0,4.0,3.0,-7.0,-2.0,0.0,1650849756750009.0
-3.0,-15.0,11.0,-7.0,-5.0,-3.0,-2.0,-2.0,1650849756750009.0
1.0,12.0,-32.0,-12.0,-7.0,-3.0,-1.0,-2.0,1650849756764992.0
0.0,-9.0,22.0,16.0,3.0,12.0,2.0,1.0,1650849756764992.0
0.0,4.0,-14.0,-18.0,1.0,1.0,3.0,0.0,1650849756766981.0
0.0,8.0,8.0,15.0,7.0,1.0,1.0,-1.0,1650849756766981.0
-4.0,-3.0,14.0,-2.0,-8.0,-11.0,-4.0,-3.0,1650849756787914.0
0.0,-7.0,-14.0,0.0,-6.0,-4.0,-2.0,-1.0,1650849756787914.0
0.0,-10.0,12.0,6.0,1.0,-1.0,-1.0,1.0,1650849756788902.0
2.0,13.0,-10.0,-13.0,-3.0,0.0,2.0,5.0,1650849756788902.0
-5.0,-11.0,-9.0,-5.0,5.0,6.0,-2.0,-2.0,1650849756800898.0
-1.0,-1.0,-5.0,-12.0,-2.0,-7.0,-1.0,-1.0,1650849756800898.0
1.0,1.0,11.0,16.0,9.0,15.0,4.0,1.0,1650849756809872.0
0.0,1.0,8.0,-2.0,-3.0,-2.0,-1.0,1.0,1650849756809872.0
-1.0,7.0,25.0,13.0,-5.0,-9.0,-3.0,-1.0,1650849756824901.0
13.0,-3.0,-19.0,-10.0,5.0,4.0,0.0,0.0,1650849756824901.0
-35.0,-10.0,-28.0,12.0,5.0,-3.0,-1.0,1.0,1650849756830902.0
3.0,3.0,1.0,-16.0,-14.0,-16.0,-4.0,-4.0,1650849756830902.0
3.0,-2.0,8.0,-19.0,-4.0,14.0,3.0,0.0,1650849756847857.0
-2.0,3.0,33.0,16.0,6.0,-1.0,0.0,1.0,1650849756847857.0
7.0,-9.0,-61.0,-1.0,3.0,-4.0,-3.0,-3.0,1650849756848866.0
-1.0,-2.0,-6.0,26.0,7.0,6.0,0.0,-1.0,1650849756848866.0
-9.0,8.0,72.0,28.0,-5.0,-11.0,-3.0,0.0,1650849756869803.0
4.0,3.0,-21.0,-34.0,-17.0,-3.0,0.0,3.0,1650849756869803.0
5.0,12.0,11.0,-5.0,3.0,6.0,1.0,0.0,1650849756871794.0
-7.0,-16.0,1.0,4.0,1.0,-1.0,-1.0,-4.0,1650849756871794.0
6.0,-9.0,-31.0,-20.0,-3.0,-2.0,0.0,1.0,1650849756884787.0
-6.0,24.0,33.0,26.0,9.0,1.0,-1.0,-4.0,1650849756884787.0
2.0,-1.0,1.0,-15.0,-5.0,-4.0,-1.0,1.0,1650849756886754.0
5.0,-3.0,-32.0,-14.0,-4.0,2.0,1.0,0.0,1650849756886754.0
1.0,4.0,16.0,21.0,3.0,6.0,2.0,0.0,1650849756907964.0
-6.0,-26.0,-19.0,8.0,12.0,6.0,0.0,-2.0,1650849756907964.0
48.0,26.0,29.0,16.0,-5.0,-7.0,-3.0,2.0,1650849756908922.0
-54.0,-4.0,31.0,20.0,10.0,2.0,0.0,-9.0,1650849756908922.0
7.0,-13.0,-51.0,-62.0,-19.0,-7.0,1.0,3.0,1650849756937992.0
-4.0,5.0,0.0,4.0,0.0,-2.0,-1.0,-1.0,1650849756937992.0
15.0,2.0,5.0,-12.0,1.0,-1.0,-2.0,-2.0,1650849756938990.0
12.0,-3.0,-33.0,-13.0,-3.0,-5.0,-2.0,2.0,1650849756938990.0
2.0,32.0,54.0,46.0,23.0,26.0,6.0,3.0,1650849756945000.0
0.0,-10.0,-32.0,-30.0,-24.0,-13.0,-10.0,-8.0,1650849756945000.0
-33.0,-20.0,-24.0,-9.0,2.0,7.0,6.0,10.0,1650849756946994.0
0.0,-9.0,55.0,19.0,-3.0,-7.0,-4.0,0.0,1650849756946994.0
-4.0,-11.0,-62.0,-30.0,1.0,-7.0,-2.0,1.0,1650849756967938.0
10.0,-5.0,10.0,-2.0,0.0,0.0,0.0,-3.0,1650849756967938.0
-5.0,5.0,29.0,10.0,0.0,-1.0,3.0,-2.0,1650849756968925.0
10.0,12.0,3.0,9.0,7.0,8.0,3.0,3.0,1650849756968925.0
7.0,2.0,-41.0,-9.0,-5.0,-2.0,-1.0,-3.0,1650849756989920.0
-10.0,-10.0,-32.0,-19.0,2.0,0.0,-1.0,1.0,1650849756989920.0
3.0,0.0,16.0,20.0,-4.0,-7.0,-3.0,-4.0,1650849756991848.0
9.0,-8.0,-6.0,-16.0,-8.0,-2.0,0.0,1.0,1650849756991848.0
-17.0,-1.0,-6.0,3.0,7.0,0.0,0.0,-2.0,1650849757004813.0
7.0,1.0,15.0,-2.0,-12.0,-3.0,1.0,3.0,1650849757004813.0
-11.0,11.0,31.0,5.0,7.0,-1.0,-2.0,-4.0,1650849757006808.0
21.0,0.0,-71.0,-24.0,1.0,3.0,-1.0,1.0,1650849757006808.0
-15.0,-3.0,23.0,24.0,1.0,-6.0,2.0,-1.0,1650849757027865.0
10.0,3.0,15.0,3.0,4.0,11.0,5.0,4.0,1650849757027865.0
0.0,-21.0,-6.0,-10.0,-8.0,-6.0,-6.0,-4.0,1650849757028861.0
-9.0,1.0,-2.0,-7.0,-9.0,-5.0,-2.0,-2.0,1650849757028861.0
20.0,-6.0,-30.0,-14.0,-7.0,-17.0,-4.0,1.0,1650849757057976.0
-10.0,-19.0,15.0,16.0,8.0,13.0,4.0,1.0,1650849757057976.0
1.0,14.0,-3.0,-6.0,5.0,3.0,0.0,1.0,1650849757058906.0
5.0,-1.0,-17.0,-25.0,-9.0,-2.0,-1.0,-1.0,1650849757058906.0
2.0,6.0,16.0,32.0,5.0,-4.0,-1.0,0.0,1650849757064890.0
-5.0,17.0,14.0,2.0,0.0,-2.0,0.0,0.0,1650849757064890.0
-6.0,-15.0,-39.0,-17.0,0.0,-2.0,-2.0,-3.0,1650849757070874.0
-3.0,-2.0,39.0,18.0,2.0,3.0,-1.0,-2.0,1650849757070874.0
0.0,-12.0,-52.0,-22.0,-3.0,5.0,1.0,0.0,1650849757087830.0
