EMG_s0,EMG_s1,EMG_s2,EMG_s3,EMG_s4,EMG_s5,EMG_s6,EMG_s7,timestamp
-1.0,1.0,-1.0,9.0,1.0,-7.0,-1.0,-1.0,1650849385962940.0
0.0,0.0,-3.0,-2.0,5.0,12.0,2.0,-2.0,1650849385962940.0
-1.0,-2.0,-1.0,-8.0,-7.0,-9.0,-3.0,-4.0,1650849385963925.0
0.0,0.0,0.0,7.0,0.0,-1.0,0.0,-3.0,1650849385963925.0
-1.0,-1.0,-4.0,-1.0,-2.0,-8.0,-2.0,-2.0,1650849385966917.0
-2.0,-4.0,-3.0,-7.0,0.0,3.0,-1.0,-1.0,1650849385966917.0
-2.0,0.0,-1.0,1.0,-2.0,5.0,1.0,0.0,1650849385966917.0
-4.0,-3.0,-2.0,4.0,-3.0,-14.0,-3.0,-1.0,1650849385966917.0
0.0,-2.0,0.0,-5.0,1.0,12.0,1.0,-1.0,1650849385968912.0
-2.0,-2.0,-4.0,-1.0,3.0,-4.0,-1.0,-1.0,1650849385968912.0
-3.0,-1.0,-1.0,5.0,-3.0,-5.0,-3.0,-1.0,1650849385972902.0
-3.0,-2.0,-2.0,-8.0,-10.0,-20.0,-4.0,-2.0,1650849385972902.0
0.0,-1.0,0.0,0.0,3.0,19.0,2.0,-1.0,1650849385980880.0
1.0,1.0,-1.0,1.0,-6.0,-7.0,-2.0,1.0,1650849385980880.0
0.0,1.0,-1.0,1.0,2.0,2.0,0.0,-1.0,1650849385994843.0
-2.0,-1.0,-1.0,-4.0,0.0,1.0,-1.0,-1.0,1650849385994843.0
1.0,-1.0,0.0,1.0,-2.0,-6.0,-2.0,0.0,1650849386005814.0
-1.0,1.0,2.0,4.0,3.0,-1.0,0.0,-1.0,1650849386005814.0
-1.0,-3.0,-2.0,-10.0,-4.0,-12.0,-3.0,-2.0,1650849386025925.0
1.0,-1.0,-1.0,3.0,3.0,16.0,3.0,-1.0,1650849386025925.0
-2.0,-1.0,-2.0,-1.0,3.0,-2.0,-1.0,1.0,1650849386027958.0
-1.0,0.0,-2.0,2.0,-4.0,2.0,0.0,-1.0,1650849386027958.0
-1.0,0.0,2.0,1.0,0.0,2.0,4.0,2.0,1650849386039928.0
0.0,1.0,1.0,-1.0,3.0,4.0,0.0,-1.0,1650849386039928.0
1.0,-2.0,-1.0,-5.0,-6.0,-9.0,-3.0,-4.0,1650849386080879.0
1.0,3.0,1.0,9.0,6.0,0.0,-2.0,1.0,1650849386080879.0
-1.0,0.0,0.0,-5.0,5.0,18.0,5.0,2.0,1650849386081875.0
-1.0,0.0,0.0,-2.0,-1.0,0.0,-2.0,0.0,1650849386081875.0
0.0,1.0,0.0,6.0,4.0,0.0,-2.0,2.0,1650849386085865.0
-1.0,0.0,-2.0,-4.0,-5.0,-17.0,-4.0,-2.0,1650849386085865.0
2.0,-1.0,-1.0,-5.0,2.0,7.0,-3.0,-2.0,1650849386087861.0
1.0,0.0,-2.0,-1.0,-3.0,-6.0,0.0,0.0,1650849386087861.0
1.0,-1.0,1.0,3.0,-6.0,1.0,1.0,-1.0,1650849386091849.0
0.0,-2.0,1.0,-8.0,1.0,-4.0,0.0,-2.0,1650849386091849.0
-1.0,1.0,-3.0,3.0,-9.0,1.0,-2.0,-1.0,1650849386100825.0
-1.0,0.0,-2.0,-1.0,7.0,4.0,-1.0,-2.0,1650849386100825.0
-1.0,-1.0,-2.0,-3.0,7.0,10.0,2.0,0.0,1650849386114788.0
0.0,-2.0,1.0,-3.0,-10.0,-12.0,-2.0,-1.0,1650849386114788.0
-1.0,0.0,1.0,4.0,1.0,6.0,1.0,1.0,1650849386123774.0
-2.0,-1.0,1.0,-5.0,-12.0,-7.0,0.0,0.0,1650849386123774.0
-1.0,1.0,1.0,0.0,6.0,1.0,1.0,0.0,1650849386129777.0
0.0,0.0,-3.0,-1.0,-1.0,-2.0,-3.0,0.0,1650849386129777.0
-1.0,-1.0,-2.0,0.0,3.0,6.0,-1.0,1.0,1650849386152686.0
-1.0,-2.0,-1.0,-1.0,-3.0,-3.0,-5.0,-1.0,1650849386152686.0
-1.0,0.0,0.0,-1.0,-5.0,-6.0,-2.0,-2.0,1650849386153683.0
-2.0,0.0,2.0,1.0,0.0,2.0,2.0,-1.0,1650849386153683.0
1.0,0.0,-2.0,-1.0,2.0,5.0,-2.0,-1.0,1650849386174686.0
0.0,-2.0,-1.0,3.0,7.0,5.0,3.0,2.0,1650849386174686.0
-2.0,0.0,-3.0,-3.0,-1.0,-1.0,0.0,-2.0,1650849386175688.0
0.0,0.0,-2.0,-1.0,-5.0,-2.0,-3.0,-1.0,1650849386175688.0
0.0,-2.0,0.0,-2.0,-6.0,-14.0,-1.0,-2.0,1650849386190678.0
0.0,1.0,-1.0,3.0,-4.0,-19.0,-3.0,-1.0,1650849386190678.0
0.0,-1.0,0.0,1.0,7.0,25.0,2.0,0.0,1650849386190678.0
-1.0,-2.0,1.0,-4.0,5.0,9.0,2.0,1.0,1650849386190678.0
0.0,0.0,2.0,-1.0,1.0,-1.0,1.0,1.0,1650849386212587.0
-2.0,-1.0,0.0,-4.0,-8.0,-2.0,0.0,1.0,1650849386212587.0
0.0,-2.0,0.0,6.0,3.0,-14.0,-3.0,1.0,1650849386213586.0
0.0,1.0,0.0,2.0,1.0,8.0,1.0,2.0,1650849386213586.0
-2.0,-1.0,-2.0,0.0,-3.0,-3.0,0.0,-1.0,1650849386234549.0
0.0,1.0,-1.0,-3.0,5.0,0.0,-2.0,-1.0,1650849386234549.0
1.0,0.0,0.0,-5.0,-8.0,-3.0,-1.0,0.0,1650849386235557.0
1.0,0.0,1.0,2.0,9.0,9.0,3.0,0.0,1650849386235557.0
-1.0,0.0,-1.0,-2.0,-2.0,-11.0,-2.0,-1.0,1650849386250514.0
0.0,-2.0,-1.0,0.0,-3.0,-3.0,0.0,-2.0,1650849386250514.0
-1.0,0.0,1.0,0.0,4.0,21.0,7.0,1.0,1650849386250514.0
0.0,-1.0,-2.0,-1.0,-3.0,0.0,-3.0,-2.0,1650849386250514.0
-1.0,-2.0,-1.0,-3.0,-10.0,-23.0,-5.0,-1.0,1650849386272429.0
-2.0,1.0,-1.0,1.0,5.0,20.0,-1.0,-1.0,1650849386272429.0
0.0,-1.0,-1.0,-1.0,-6.0,-16.0,-3.0,1.0,1650849386273426.0
-3.0,-2.0,-3.0,-1.0,6.0,11.0,-2.0,-3.0,1650849386273426.0
2.0,1.0,1.0,0.0,-4.0,3.0,3.0,1.0,1650849386295367.0
-2.0,-1.0,2.0,0.0,1.0,-8.0,-2.0,-1.0,1650849386295367.0
0.0,0.0,1.0,-1.0,-3.0,-3.0,-1.0,-1.0,1650849386295367.0
0.0,0.0,1.0,-1.0,0.0,-1.0,2.0,2.0,1650849386295367.0
-4.0,0.0,-1.0,-1.0,-4.0,-7.0,-4.0,-1.0,1650849386310365.0
0.0,-1.0,-1.0,0.0,3.0,5.0,0.0,0.0,1650849386310365.0
-2.0,-1.0,-1.0,-4.0,-5.0,-7.0,-3.0,-2.0,1650849386311335.0
-2.0,-1.0,-2.0,4.0,-1.0,-4.0,-1.0,-1.0,1650849386311335.0
0.0,-1.0,-2.0,1.0,12.0,5.0,1.0,-1.0,1650849386332299.0
1.0,-1.0,-1.0,-4.0,-5.0,-9.0,-1.0,0.0,1650849386332299.0
-3.0,1.0,-1.0,-2.0,-12.0,-8.0,-4.0,-1.0,1650849386333296.0
1.0,0.0,2.0,4.0,9.0,33.0,8.0,3.0,1650849386333296.0
0.0,0.0,1.0,2.0,15.0,14.0,2.0,1.0,1650849386355239.0
-1.0,0.0,-2.0,-1.0,2.0,0.0,1.0,0.0,1650849386355239.0
0.0,0.0,-1.0,-2.0,-5.0,-9.0,-2.0,1.0,1650849386362218.0
-1.0,-1.0,1.0,-1.0,-7.0,-16.0,-5.0,-3.0,1650849386362218.0
0.0,-1.0,-1.0,-1.0,-6.0,-7.0,-1.0,-1.0,1650849386370227.0
0.0,-2.0,-2.0,0.0,2.0,11.0,1.0,-1.0,1650849386370227.0
-1.0,-3.0,-1.0,-2.0,-9.0,-14.0,-2.0,-2.0,1650849386371195.0
-1.0,0.0,-1.0,1.0,6.0,9.0,0.0,2.0,1650849386371195.0
1.0,0.0,1.0,0.0,7.0,3.0,0.0,1.0,1650849386393137.0
0.0,-2.0,1.0,1.0,-7.0,-4.0,-2.0,-1.0,1650849386393137.0
0.0,-3.0,-2.0,-2.0,1.0,3.0,-1.0,-3.0,1650849386393137.0
-2.0,-2.0,-2.0,-7.0,-8.0,-14.0,-3.0,-2.0,1650849386393137.0
-2.0,1.0,3.0,2.0,-3.0,0.0,0.0,-2.0,1650849386415493.0
-1.0,0.0,0.0,-1.0,6.0,4.0,1.0,1.0,1650849386415493.0
0.0,-3.0,-4.0,-3.0,0.0,-9.0,-4.0,-1.0,1650849386415493.0
-1.0,-1.0,0.0,0.0,-11.0,-16.0,-2.0,-1.0,1650849386415493.0
2.0,2.0,1.0,3.0,18.0,47.0,13.0,5.0,1650849386430452.0
-2.0,-3.0,2.0,-2.0,0.0,-11.0,-1.0,-2.0,1650849386430452.0
0.0,0.0,-2.0,-1.0,6.0,8.0,0.0,-1.0,1650849386430452.0
0.0,-1.0,-2.0,-3.0,-7.0,-23.0,-6.0,-1.0,1650849386430452.0
-3.0,-2.0,-2.0,-3.0,-14.0,-19.0,-5.0,-3.0,1650849386452481.0
2.0,1.0,0.0,0.0,0.0,7.0,1.0,-1.0,1650849386452481.0
-2.0,1.0,1.0,2.0,10.0,1.0,1.0,1.0,1650849386453478.0
-1.0,0.0,-1.0,-2.0,4.0,11.0,1.0,1.0,1650849386453478.0
-2.0,-2.0,-2.0,-1.0,-17.0,-12.0,-4.0,-1.0,1650849386475506.0
0.0,-1.0,1.0,3.0,8.0,7.0,2.0,1.0,1650849386475506.0
-2.0,0.0,-1.0,-1.0,1.0,0.0,-2.0,-1.0,1650849386476506.0
-1.0,0.0,-2.0,-2.0,-4.0,-7.0,-1.0,-3.0,1650849386476506.0
-1.0,1.0,0.0,0.0,-1.0,-2.0,-1.0,0.0,1650849386490535.0
-1.0,0.0,-2.0,0.0,-2.0,-2.0,-4.0,-1.0,1650849386490535.0
0.0,0.0,0.0,0.0,2.0,22.0,6.0,2.0,1650849386490535.0
2.0,0.0,1.0,1.0,6.0,9.0,5.0,2.0,1650849386490535.0
-1.0,-2.0,-1.0,-3.0,-7.0,-22.0,-6.0,-1.0,1650849386512477.0
-1.0,-1.0,-2.0,-2.0,-7.0,-6.0,-4.0,0.0,1650849386512477.0
0.0,-1.0,0.0,-2.0,-4.0,-6.0,0.0,1.0,1650849386513407.0
-2.0,0.0,0.0,-1.0,-1.0,5.0,-1.0,-2.0,1650849386513407.0
0.0,-2.0,-1.0,-4.0,-8.0,-7.0,-2.0,-2.0,1650849386535519.0
-3.0,1.0,-1.0,1.0,2.0,1.0,1.0,1.0,1650849386535519.0
1.0,1.0,1.0,0.0,6.0,6.0,-1.0,-1.0,1650849386535519.0
-2.0,-4.0,-1.0,-4.0,-7.0,-7.0,-4.0,-1.0,1650849386535519.0
1.0,-1.0,0.0,2.0,-8.0,-11.0,-2.0,-2.0,1650849386550479.0
0.0,1.0,2.0,3.0,12.0,20.0,5.0,2.0,1650849386550479.0
-1.0,0.0,0.0,4.0,14.0,5.0,0.0,0.0,1650849386550479.0
0.0,-1.0,0.0,-4.0,3.0,1.0,0.0,-1.0,1650849386550479.0
1.0,-1.0,0.0,-1.0,-4.0,-6.0,-4.0,-1.0,1650849386572421.0
-2.0,-2.0,-3.0,-4.0,-5.0,-3.0,-2.0,-1.0,1650849386572421.0
-2.0,-1.0,-2.0,-2.0,-10.0,-9.0,-3.0,0.0,1650849386573419.0
-1.0,-2.0,1.0,-1.0,-4.0,-9.0,-2.0,-1.0,1650849386573419.0
-3.0,1.0,-1.0,-1.0,3.0,3.0,-2.0,-1.0,1650849386595358.0
1.0,1.0,4.0,4.0,11.0,33.0,13.0,4.0,1650849386595358.0
0.0,0.0,0.0,-2.0,-1.0,-2.0,0.0,0.0,1650849386595358.0
1.0,0.0,-1.0,0.0,-6.0,-1.0,-1.0,-1.0,1650849386595358.0
-1.0,-1.0,-3.0,0.0,4.0,-7.0,0.0,0.0,1650849386610385.0
-2.0,0.0,-1.0,-5.0,-10.0,-13.0,-5.0,-2.0,1650849386610385.0
-1.0,0.0,-1.0,1.0,-3.0,1.0,-1.0,-1.0,1650849386611346.0
0.0,-1.0,0.0,1.0,4.0,1.0,0.0,0.0,1650849386611346.0
-2.0,-1.0,-3.0,-1.0,-5.0,-11.0,-3.0,-2.0,1650849386634265.0
1.0,-2.0,0.0,-2.0,-6.0,14.0,2.0,0.0,1650849386634265.0
-2.0,0.0,0.0,1.0,2.0,-2.0,0.0,1.0,1650849386635252.0
1.0,1.0,1.0,5.0,11.0,10.0,0.0,0.0,1650849386635252.0
1.0,-1.0,0.0,1.0,7.0,2.0,2.0,-1.0,1650849386655198.0
0.0,-2.0,-3.0,-2.0,-6.0,-14.0,-3.0,-5.0,1650849386655198.0
-1.0,-2.0,0.0,-1.0,-8.0,-4.0,-2.0,-2.0,1650849386656197.0
-1.0,-1.0,-2.0,-4.0,-10.0,-14.0,-4.0,-3.0,1650849386656197.0
-2.0,1.0,1.0,1.0,10.0,13.0,-1.0,2.0,1650849386670159.0
0.0,-1.0,-1.0,0.0,-6.0,-3.0,1.0,1.0,1650849386670159.0
1.0,-1.0,0.0,4.0,5.0,21.0,3.0,0.0,1650849386671156.0
0.0,0.0,0.0,1.0,6.0,4.0,0.0,0.0,1650849386671156.0
2.0,-2.0,-1.0,-2.0,0.0,-11.0,-2.0,-2.0,1650849386693099.0
-3.0,-1.0,-2.0,-2.0,-5.0,-6.0,-5.0,-3.0,1650849386693099.0
-1.0,-2.0,-1.0,-1.0,2.0,-4.0,1.0,0.0,1650849386693099.0
-2.0,-1.0,-2.0,-3.0,-9.0,-3.0,0.0,0.0,1650849386693099.0
0.0,0.0,1.0,1.0,0.0,12.0,2.0,0.0,1650849386715038.0
-1.0,-2.0,-2.0,1.0,0.0,-13.0,-4.0,-2.0,1650849386715038.0
0.0,-2.0,0.0,-2.0,-6.0,-6.0,-1.0,-1.0,1650849386716036.0
0.0,0.0,1.0,2.0,4.0,9.0,1.0,0.0,1650849386716036.0
-1.0,0.0,-1.0,-2.0,-4.0,-3.0,0.0,0.0,1650849386729998.0
-1.0,1.0,-1.0,1.0,8.0,4.0,-1.0,1.0,1650849386729998.0
-2.0,-1.0,-1.0,-2.0,-5.0,-9.0,-4.0,-4.0,1650849386730996.0
-2.0,-2.0,-1.0,-2.0,-12.0,-22.0,-2.0,-1.0,1650849386730996.0
0.0,-1.0,0.0,0.0,8.0,30.0,2.0,1.0,1650849386752937.0
2.0,0.0,3.0,3.0,14.0,6.0,4.0,2.0,1650849386752937.0
-1.0,-1.0,-2.0,-3.0,-1.0,-14.0,-5.0,-3.0,1650849386752937.0
0.0,0.0,-2.0,-1.0,-6.0,23.0,8.0,2.0,1650849386752937.0
-1.0,-1.0,-2.0,-1.0,-3.0,-12.0,-3.0,-4.0,1650849386775594.0
-1.0,1.0,-2.0,1.0,-2.0,-6.0,-2.0,-1.0,1650849386775594.0
-2.0,-2.0,-2.0,-1.0,1.0,-1.0,-3.0,-2.0,1650849386775917.0
1.0,-1.0,1.0,-1.0,1.0,2.0,0.0,-1.0,1650849386775917.0
-2.0,1.0,0.0,0.0,-1.0,1.0,-1.0,0.0,1650849386789882.0
0.0,0.0,1.0,3.0,-1.0,3.0,0.0,-1.0,1650849386789882.0
1.0,0.0,0.0,-1.0,3.0,-4.0,1.0,1.0,1650849386790892.0
-2.0,-2.0,-3.0,-2.0,-4.0,-4.0,-2.0,-1.0,1650849386790892.0
-1.0,-1.0,1.0,-1.0,-4.0,5.0,2.0,1.0,1650849386812851.0
-1.0,-1.0,-1.0,-5.0,-2.0,-11.0,-4.0,-1.0,1650849386812851.0
-3.0,0.0,-1.0,-1.0,-12.0,-18.0,-3.0,-2.0,1650849386813820.0
1.0,0.0,0.0,2.0,12.0,15.0,2.0,1.0,1650849386813820.0
-2.0,-2.0,0.0,0.0,7.0,16.0,4.0,0.0,1650849386834849.0
1.0,-1.0,-2.0,-8.0,-14.0,-15.0,-3.0,-2.0,1650849386834849.0
1.0,0.0,2.0,8.0,16.0,14.0,1.0,2.0,1650849386835847.0
0.0,-1.0,-2.0,-1.0,-3.0,-1.0,1.0,0.0,1650849386835847.0
-1.0,0.0,-1.0,-4.0,-10.0,-16.0,-4.0,-1.0,1650849386849837.0
-3.0,-2.0,1.0,-1.0,-3.0,-3.0,-4.0,-2.0,1650849386849837.0
0.0,0.0,2.0,-1.0,0.0,8.0,2.0,-1.0,1650849386850807.0
-2.0,-1.0,-2.0,0.0,0.0,-15.0,-5.0,-3.0,1650849386850807.0
1.0,-1.0,1.0,-1.0,1.0,11.0,2.0,1.0,1650849386873874.0
0.0,0.0,0.0,-1.0,-8.0,-5.0,0.0,1.0,1650849386873874.0
1.0,1.0,1.0,2.0,9.0,7.0,2.0,1.0,1650849386874871.0
0.0,-1.0,-1.0,-4.0,-3.0,-13.0,-4.0,-1.0,1650849386874871.0
-1.0,-1.0,-2.0,3.0,7.0,12.0,4.0,0.0,1650849386894885.0
0.0,0.0,0.0,-1.0,-4.0,-3.0,-3.0,-1.0,1650849386894885.0
0.0,-1.0,-4.0,-3.0,-4.0,1.0,0.0,-1.0,1650849386895815.0
0.0,1.0,2.0,3.0,1.0,-1.0,-2.0,-1.0,1650849386895815.0
-3.0,0.0,-1.0,-1.0,-5.0,-16.0,-6.0,-2.0,1650849386910775.0
0.0,-1.0,1.0,1.0,-1.0,13.0,3.0,1.0,1650849386910775.0
-1.0,-1.0,-1.0,0.0,-2.0,-14.0,-3.0,-1.0,1650849386916759.0
1.0,0.0,0.0,1.0,12.0,29.0,8.0,0.0,1650849386916759.0
1.0,-2.0,-1.0,-5.0,-11.0,-16.0,-3.0,1.0,1650849386932826.0
0.0,-2.0,-2.0,1.0,4.0,-1.0,-1.0,-2.0,1650849386932826.0
0.0,0.0,-3.0,-6.0,-13.0,-12.0,-3.0,-1.0,1650849386933819.0
-2.0,-1.0,1.0,-1.0,-3.0,-14.0,-4.0,-2.0,1650849386933819.0
-1.0,-1.0,1.0,0.0,3.0,9.0,1.0,-1.0,1650849386954793.0
-1.0,0.0,-2.0,-2.0,-1.0,5.0,0.0,-1.0,1650849386954793.0
1.0,-1.0,0.0,0.0,-6.0,2.0,0.0,0.0,1650849386955764.0
-2.0,0.0,0.0,0.0,-6.0,-15.0,-1.0,1.0,1650849386955764.0
-1.0,2.0,1.0,2.0,12.0,19.0,2.0,1.0,1650849386969755.0
-1.0,0.0,-1.0,-2.0,-1.0,-14.0,-4.0,-2.0,1650849386969755.0
-1.0,-2.0,-1.0,-1.0,-6.0,4.0,1.0,0.0,1650849386976890.0
0.0,-1.0,-2.0,1.0,-5.0,-7.0,-1.0,0.0,1650849386976890.0
2.0,1.0,-1.0,-2.0,6.0,7.0,1.0,0.0,1650849386992842.0
0.0,0.0,0.0,1.0,0.0,1.0,0.0,0.0,1650849386992842.0
1.0,-1.0,-2.0,-3.0,-2.0,1.0,0.0,0.0,1650849386993777.0
0.0,-1.0,-3.0,-2.0,-9.0,-15.0,-5.0,0.0,1650849386993777.0
0.0,0.0,0.0,2.0,-2.0,15.0,5.0,2.0,1650849387014720.0
0.0,0.0,0.0,-1.0,3.0,2.0,-2.0,0.0,1650849387014720.0
-2.0,1.0,-1.0,-1.0,-8.0,-11.0,-2.0,-1.0,1650849387015717.0
0.0,0.0,-1.0,2.0,10.0,15.0,0.0,0.0,1650849387015717.0
3.0,-2.0,0.0,1.0,3.0,-1.0,1.0,0.0,1650849387029817.0
-1.0,-1.0,1.0,0.0,-1.0,0.0,1.0,1.0,1650849387029817.0
-1.0,0.0,-2.0,1.0,-4.0,-3.0,-1.0,0.0,1650849387036798.0
0.0,0.0,0.0,2.0,15.0,7.0,1.0,0.0,1650849387036798.0
-3.0,0.0,0.0,-3.0,-5.0,-14.0,-4.0,-3.0,1650849387068685.0
0.0,-3.0,-4.0,-3.0,-12.0,-2.0,0.0,0.0,1650849387068685.0
1.0,-1.0,1.0,2.0,8.0,-3.0,0.0,-1.0,1650849387068685.0
-2.0,-1.0,-1.0,-5.0,1.0,15.0,-1.0,0.0,1650849387068685.0
2.0,-1.0,0.0,-2.0,-3.0,-23.0,-5.0,-1.0,1650849387074670.0
1.0,2.0,2.0,2.0,-3.0,27.0,8.0,1.0,1650849387074670.0
-1.0,0.0,0.0,2.0,15.0,12.0,1.0,2.0,1650849387075667.0
1.0,-1.0,0.0,-2.0,-4.0,-2.0,0.0,-1.0,1650849387075667.0
-1.0,1.0,0.0,0.0,-5.0,-15.0,-5.0,-2.0,1650849387097734.0
-2.0,0.0,-2.0,-1.0,-2.0,-12.0,-4.0,-2.0,1650849387097734.0
0.0,-1.0,-2.0,-3.0,-2.0,4.0,0.0,-1.0,1650849387098732.0
1.0,0.0,2.0,1.0,-1.0,3.0,0.0,0.0,1650849387098732.0
-2.0,0.0,-3.0,-1.0,-4.0,-5.0,-2.0,-5.0,1650849387120675.0
1.0,-1.0,-5.0,-5.0,-9.0,-33.0,-5.0,-2.0,1650849387120675.0
1.0,0.0,2.0,4.0,9.0,45.0,5.0,2.0,1650849387121670.0
0.0,2.0,1.0,5.0,2.0,-4.0,2.0,1.0,1650849387121670.0
0.0,-1.0,1.0,0.0,2.0,8.0,3.0,-1.0,1650849387135637.0
-2.0,-2.0,0.0,-1.0,11.0,3.0,-2.0,-1.0,1650849387135637.0
-2.0,-3.0,-2.0,-5.0,-13.0,-22.0,-5.0,-3.0,1650849387135637.0
-2.0,-2.0,-3.0,-4.0,-9.0,-12.0,-5.0,-2.0,1650849387135637.0
0.0,-1.0,0.0,1.0,2.0,18.0,3.0,1.0,1650849387157580.0
-1.0,-1.0,-1.0,2.0,-2.0,-11.0,-4.0,-1.0,1650849387157580.0
-1.0,0.0,0.0,0.0,7.0,16.0,7.0,1.0,1650849387158571.0
0.0,-2.0,-2.0,-3.0,-4.0,-2.0,-1.0,-1.0,1650849387158571.0
-2.0,1.0,2.0,-1.0,-1.0,-8.0,1.0,0.0,1650849387180540.0
0.0,0.0,1.0,1.0,4.0,2.0,0.0,2.0,1650849387180540.0
0.0,1.0,0.0,-2.0,2.0,-1.0,-1.0,0.0,1650849387187523.0
1.0,-1.0,0.0,-2.0,2.0,1.0,-1.0,-2.0,1650849387187523.0
0.0,-1.0,-3.0,-4.0,-2.0,-10.0,-3.0,-3.0,1650849387195479.0
0.0,1.0,0.0,0.0,-2.0,0.0,-1.0,1.0,1650849387195479.0
-1.0,-1.0,0.0,2.0,0.0,16.0,2.0,1.0,1650849387195479.0
0.0,-1.0,-2.0,-2.0,-5.0,-1.0,-3.0,1.0,1650849387195479.0
-1.0,-2.0,-2.0,0.0,-3.0,-13.0,-4.0,-2.0,1650849387217413.0
1.0,0.0,2.0,0.0,19.0,23.0,8.0,2.0,1650849387217413.0
-1.0,0.0,1.0,2.0,1.0,-12.0,-3.0,-1.0,1650849387218411.0
-1.0,-1.0,0.0,-3.0,-4.0,-10.0,-2.0,-2.0,1650849387218411.0
-1.0,-2.0,-2.0,-1.0,-8.0,15.0,8.0,1.0,1650849387241350.0
-2.0,-1.0,-2.0,-1.0,-9.0,-5.0,-2.0,-1.0,1650849387241350.0
0.0,0.0,0.0,0.0,8.0,-1.0,-2.0,-1.0,1650849387241350.0
1.0,0.0,-1.0,0.0,-3.0,-3.0,-2.0,-1.0,1650849387241350.0
-2.0,0.0,-1.0,-2.0,-1.0,-7.0,-5.0,1.0,1650849387255339.0
-2.0,-1.0,-2.0,-1.0,-6.0,-21.0,-1.0,-3.0,1650849387255339.0
1.0,-1.0,-2.0,0.0,6.0,25.0,1.0,0.0,1650849387256311.0
1.0,0.0,0.0,-1.0,1.0,0.0,3.0,1.0,1650849387256311.0
1.0,-2.0,-1.0,-3.0,-6.0,-13.0,-2.0,1.0,1650849387277321.0
0.0,0.0,0.0,4.0,12.0,22.0,2.0,0.0,1650849387277321.0
-2.0,-1.0,-1.0,-7.0,-17.0,-33.0,-5.0,-2.0,1650849387278250.0
-2.0,0.0,-1.0,2.0,6.0,2.0,-2.0,0.0,1650849387278250.0
1.0,1.0,1.0,2.0,7.0,17.0,3.0,0.0,1650849387299339.0
1.0,0.0,-1.0,-2.0,-14.0,-18.0,-4.0,-1.0,1650849387299339.0
2.0,1.0,0.0,2.0,14.0,-5.0,-1.0,2.0,1650849387307319.0
-1.0,-3.0,-2.0,-4.0,-6.0,16.0,5.0,-1.0,1650849387307319.0
0.0,-2.0,0.0,1.0,-2.0,-8.0,-3.0,0.0,1650849387315297.0
0.0,-3.0,1.0,-2.0,-2.0,2.0,1.0,0.0,1650849387315297.0
-1.0,-1.0,1.0,1.0,-6.0,-15.0,-2.0,-1.0,1650849387316294.0
0.0,1.0,0.0,1.0,3.0,-1.0,1.0,0.0,1650849387316294.0
0.0,-1.0,-1.0,-3.0,1.0,7.0,-3.0,-1.0,1650849387337373.0
0.0,0.0,0.0,0.0,0.0,6.0,3.0,0.0,1650849387337373.0
2.0,0.0,-3.0,0.0,-9.0,-16.0,-1.0,0.0,1650849387345492.0
-1.0,0.0,0.0,1.0,4.0,16.0,2.0,1.0,1650849387345492.0
-1.0,-1.0,-1.0,0.0,2.0,-4.0,1.0,-2.0,1650849387360521.0
0.0,-1.0,1.0,-2.0,-1.0,2.0,-3.0,-2.0,1650849387360521.0
0.0,-1.0,0.0,-4.0,-3.0,-7.0,-1.0,-1.0,1650849387361467.0
0.0,-2.0,0.0,0.0,-9.0,-3.0,-2.0,-1.0,1650849387361467.0
1.0,-1.0,0.0,4.0,14.0,1.0,-1.0,0.0,1650849387375117.0
-2.0,0.0,-2.0,-2.0,-3.0,1.0,0.0,-1.0,1650849387375117.0
-1.0,-2.0,-2.0,-4.0,-19.0,-16.0,0.0,-1.0,1650849387376047.0
-2.0,-1.0,-1.0,1.0,11.0,11.0,-2.0,-2.0,1650849387376047.0
0.0,-1.0,0.0,-2.0,-6.0,-1.0,1.0,0.0,1650849387398007.0
-2.0,-2.0,-3.0,0.0,2.0,-19.0,-6.0,-3.0,1650849387398007.0
1.0,-3.0,-2.0,1.0,-1.0,13.0,-1.0,-2.0,1650849387398007.0
1.0,-1.0,-1.0,-2.0,-5.0,-7.0,1.0,0.0,1650849387398007.0
-1.0,0.0,0.0,1.0,0.0,3.0,-2.0,-2.0,1650849387420927.0
0.0,1.0,1.0,-5.0,0.0,3.0,1.0,1.0,1650849387420927.0
-1.0,0.0,2.0,8.0,-4.0,-4.0,-1.0,0.0,1650849387421924.0
0.0,0.0,1.0,2.0,17.0,8.0,1.0,0.0,1650849387421924.0
-1.0,-2.0,-2.0,-4.0,-8.0,-2.0,-2.0,-2.0,1650849387433921.0
-2.0,-3.0,-3.0,-3.0,-4.0,-1.0,-1.0,-2.0,1650849387433921.0
-2.0,1.0,-1.0,-1.0,2.0,11.0,-1.0,1.0,1650849387442936.0
-1.0,-2.0,0.0,-1.0,-8.0,-15.0,-4.0,-3.0,1650849387442936.0
2.0,0.0,1.0,-2.0,-5.0,-6.0,0.0,-1.0,1650849387457827.0
0.0,0.0,-1.0,1.0,-11.0,-29.0,-6.0,-2.0,1650849387457827.0
1.0,-1.0,1.0,4.0,28.0,61.0,12.0,4.0,1650849387458825.0
-1.0,1.0,0.0,-4.0,-5.0,7.0,2.0,0.0,1650849387458825.0
-1.0,0.0,-3.0,0.0,-5.0,-5.0,-1.0,0.0,1650849387480881.0
0.0,2.0,0.0,3.0,8.0,5.0,0.0,1.0,1650849387480881.0
-2.0,-1.0,-2.0,-6.0,-7.0,-26.0,-9.0,-4.0,1650849387481877.0
0.0,0.0,-1.0,-1.0,0.0,-7.0,-3.0,-1.0,1650849387481877.0
-1.0,1.0,0.0,-1.0,-6.0,3.0,1.0,0.0,1650849387494910.0
1.0,1.0,2.0,0.0,-1.0,1.0,1.0,1.0,1650849387494910.0
1.0,1.0,0.0,-2.0,7.0,0.0,0.0,0.0,1650849387502920.0
-1.0,0.0,-1.0,-1.0,-3.0,5.0,2.0,0.0,1650849387502920.0
-3.0,0.0,-1.0,-2.0,-3.0,-9.0,-2.0,2.0,1650849387517850.0
-1.0,0.0,-1.0,0.0,-2.0,8.0,-1.0,0.0,1650849387517850.0
0.0,0.0,0.0,-1.0,-1.0,-3.0,-1.0,-1.0,1650849387518848.0
-1.0,0.0,-2.0,2.0,-6.0,-35.0,-8.0,-2.0,1650849387518848.0
1.0,0.0,-2.0,1.0,13.0,41.0,8.0,1.0,1650849387539792.0
1.0,0.0,3.0,-1.0,-3.0,9.0,4.0,2.0,1650849387539792.0
-2.0,-2.0,0.0,1.0,16.0,8.0,0.0,-1.0,1650849387540804.0
-2.0,-4.0,-1.0,-3.0,-16.0,-21.0,-6.0,-2.0,1650849387540804.0
-3.0,-1.0,-1.0,-1.0,-6.0,-17.0,-2.0,-1.0,1650849387554751.0
0.0,0.0,-1.0,2.0,10.0,12.0,1.0,0.0,1650849387554751.0
-1.0,0.0,0.0,-1.0,-12.0,-15.0,-2.0,-1.0,1650849387562799.0
-1.0,0.0,-2.0,0.0,3.0,6.0,0.0,-1.0,1650849387562799.0
1.0,-1.0,1.0,-2.0,-4.0,-5.0,-1.0,-1.0,1650849387593741.0
1.0,-1.0,-2.0,0.0,10.0,17.0,2.0,0.0,1650849387593741.0
-3.0,0.0,1.0,1.0,-4.0,-9.0,-1.0,0.0,1650849387593741.0
0.0,-1.0,-1.0,-2.0,0.0,4.0,0.0,0.0,1650849387593741.0
-1.0,-1.0,-3.0,1.0,-6.0,-9.0,-1.0,0.0,1650849387599727.0
1.0,-1.0,-1.0,-1.0,-3.0,-2.0,-3.0,0.0,1650849387599727.0
1.0,1.0,-1.0,2.0,20.0,37.0,6.0,1.0,1650849387600725.0
-1.0,0.0,0.0,-3.0,-11.0,-3.0,-1.0,0.0,1650849387600725.0
0.0,-1.0,2.0,0.0,4.0,-8.0,-1.0,0.0,1650849387623665.0
-1.0,-2.0,-1.0,-1.0,-7.0,-11.0,-2.0,-2.0,1650849387623665.0
-1.0,0.0,1.0,-1.0,-4.0,-10.0,-3.0,-2.0,1650849387624661.0
1.0,1.0,1.0,1.0,3.0,7.0,2.0,0.0,1650849387624661.0
0.0,-1.0,0.0,-2.0,1.0,-3.0,-2.0,-1.0,1650849387637654.0
-2.0,-1.0,-3.0,-2.0,-1.0,-3.0,-4.0,-1.0,1650849387637654.0
0.0,-1.0,-1.0,-3.0,-15.0,-9.0,-2.0,-1.0,1650849387638645.0
4.0,0.0,0.0,0.0,17.0,17.0,3.0,1.0,1650849387638645.0
1.0,0.0,0.0,1.0,0.0,-6.0,-1.0,-2.0,1650849387660565.0
-1.0,-1.0,0.0,1.0,0.0,12.0,-1.0,0.0,1650849387660565.0
0.0,-1.0,-1.0,-2.0,-4.0,-15.0,-1.0,-1.0,1650849387660565.0
0.0,-1.0,-2.0,-5.0,-7.0,-21.0,-8.0,-2.0,1650849387660565.0
1.0,1.0,1.0,2.0,7.0,44.0,11.0,3.0,1650849387674528.0
0.0,0.0,-1.0,-3.0,-2.0,-4.0,0.0,-2.0,1650849387674528.0
-1.0,-1.0,0.0,-3.0,-5.0,-5.0,-3.0,1.0,1650849387682534.0
-2.0,-1.0,-1.0,0.0,-3.0,0.0,0.0,0.0,1650849387682534.0
-1.0,1.0,0.0,1.0,12.0,-6.0,-3.0,0.0,1650849387697653.0
-2.0,1.0,1.0,-3.0,-4.0,-1.0,-1.0,-2.0,1650849387697653.0
-1.0,-1.0,0.0,-3.0,-7.0,-5.0,-3.0,0.0,1650849387698578.0
0.0,0.0,1.0,3.0,-2.0,-8.0,-1.0,-1.0,1650849387698578.0
-2.0,-1.0,-3.0,0.0,-2.0,4.0,-1.0,-2.0,1650849387720519.0
-1.0,-1.0,0.0,-1.0,1.0,-2.0,-1.0,0.0,1650849387720519.0
-2.0,0.0,-1.0,1.0,1.0,3.0,0.0,-2.0,1650849387720519.0
-1.0,0.0,1.0,1.0,0.0,-11.0,0.0,1.0,1650849387720519.0
-2.0,-2.0,-2.0,-1.0,-7.0,5.0,-4.0,0.0,1650849387743574.0
0.0,-3.0,-1.0,2.0,11.0,1.0,3.0,2.0,1650849387743574.0
-2.0,-2.0,-2.0,-1.0,-9.0,-9.0,-3.0,0.0,1650849387744580.0
1.0,-1.0,-3.0,0.0,2.0,5.0,-1.0,-1.0,1650849387744580.0
-1.0,-1.0,-1.0,-1.0,-5.0,-12.0,-3.0,-3.0,1650849387757539.0
-1.0,-2.0,0.0,-1.0,-9.0,-4.0,0.0,1.0,1650849387757539.0
-1.0,-1.0,0.0,1.0,8.0,11.0,2.0,0.0,1650849387758536.0
1.0,-2.0,2.0,-1.0,-2.0,5.0,1.0,2.0,1650849387758536.0
-1.0,0.0,0.0,-2.0,0.0,-9.0,-3.0,2.0,1650849387779883.0
0.0,-1.0,-1.0,0.0,-1.0,2.0,1.0,-1.0,1650849387779883.0
0.0,-1.0,-3.0,-5.0,-10.0,-11.0,0.0,-3.0,1650849387780882.0
-2.0,0.0,0.0,1.0,2.0,16.0,0.0,1.0,1650849387780882.0
-1.0,1.0,-1.0,-1.0,-1.0,-25.0,-3.0,-2.0,1650849387802912.0
-1.0,0.0,0.0,0.0,-2.0,19.0,6.0,1.0,1650849387802912.0
1.0,0.0,0.0,-3.0,4.0,10.0,4.0,1.0,1650849387803909.0
-2.0,-2.0,-1.0,1.0,6.0,-2.0,-2.0,-2.0,1650849387803909.0
0.0,-1.0,1.0,0.0,-2.0,-11.0,-3.0,-2.0,1650849387817900.0
-1.0,1.0,-2.0,1.0,5.0,-4.0,-3.0,-1.0,1650849387817900.0
0.0,-2.0,-4.0,-1.0,-3.0,-3.0,-2.0,-1.0,1650849387817900.0
-1.0,-2.0,-1.0,-4.0,-5.0,0.0,-1.0,-1.0,1650849387817900.0
1.0,-1.0,1.0,-2.0,-2.0,5.0,1.0,-1.0,1650849387839841.0
0.0,0.0,0.0,0.0,-8.0,-17.0,-4.0,0.0,1650849387839841.0
0.0,0.0,0.0,1.0,2.0,6.0,-2.0,1.0,1650849387840811.0
0.0,1.0,-1.0,0.0,7.0,17.0,2.0,1.0,1650849387840811.0
1.0,0.0,3.0,4.0,3.0,4.0,3.0,0.0,1650849387862751.0
1.0,0.0,-2.0,-2.0,-1.0,-10.0,-1.0,-1.0,1650849387862751.0
0.0,-3.0,-2.0,0.0,-4.0,0.0,-2.0,-2.0,1650849387863749.0
-1.0,-1.0,-2.0,-5.0,-9.0,-12.0,-1.0,-1.0,1650849387863749.0
0.0,-2.0,-2.0,-2.0,-3.0,5.0,0.0,0.0,1650849387877779.0
0.0,1.0,-1.0,-3.0,1.0,-12.0,-5.0,-1.0,1650849387877779.0
-1.0,-1.0,2.0,1.0,-2.0,9.0,1.0,-1.0,1650849387878736.0
-1.0,-1.0,-2.0,0.0,-1.0,-2.0,1.0,0.0,1650849387878736.0
0.0,1.0,1.0,1.0,-1.0,11.0,0.0,0.0,1650849387899818.0
-1.0,0.0,-1.0,2.0,9.0,1.0,3.0,1.0,1650849387899818.0
-3.0,0.0,-2.0,-1.0,-1.0,-7.0,-1.0,0.0,1650849387900825.0
-1.0,2.0,0.0,0.0,-5.0,-4.0,-1.0,-2.0,1650849387900825.0
-1.0,-2.0,-1.0,-2.0,8.0,0.0,-1.0,-1.0,1650849387922879.0
-1.0,-1.0,0.0,-1.0,-1.0,-3.0,-4.0,-1.0,1650849387922879.0
-1.0,-1.0,-1.0,1.0,-1.0,5.0,0.0,-1.0,1650849387923877.0
-1.0,-1.0,0.0,-1.0,-4.0,-4.0,1.0,-1.0,1650849387923877.0
-1.0,0.0,-3.0,-4.0,-1.0,-4.0,1.0,0.0,1650849387937867.0
0.0,-1.0,-1.0,0.0,-1.0,5.0,-1.0,-1.0,1650849387937867.0
0.0,-2.0,1.0,-1.0,0.0,-7.0,-1.0,-1.0,1650849387938845.0
-2.0,-3.0,0.0,0.0,3.0,3.0,0.0,1.0,1650849387938845.0
1.0,0.0,0.0,-1.0,-6.0,-4.0,-1.0,-2.0,1650849387959848.0
-2.0,1.0,0.0,1.0,4.0,1.0,-1.0,-1.0,1650849387959848.0
0.0,0.0,-2.0,-1.0,-3.0,0.0,-2.0,-1.0,1650849387960787.0
0.0,-1.0,-1.0,-2.0,-4.0,-13.0,-5.0,-3.0,1650849387960787.0
-1.0,-1.0,-1.0,-1.0,-2.0,0.0,-2.0,-1.0,1650849387982877.0
0.0,1.0,1.0,2.0,7.0,26.0,6.0,1.0,1650849387982877.0
0.0,0.0,1.0,-1.0,-7.0,-16.0,-2.0,-1.0,1650849387983874.0
-1.0,-1.0,-2.0,1.0,2.0,-2.0,-1.0,-1.0,1650849387983874.0
-2.0,-3.0,-3.0,-2.0,0.0,9.0,-1.0,-2.0,1650849387997865.0
-1.0,-2.0,-3.0,-6.0,-15.0,-22.0,-5.0,-3.0,1650849387997865.0
0.0,0.0,1.0,2.0,7.0,11.0,3.0,0.0,1650849387998848.0
1.0,1.0,2.0,1.0,3.0,10.0,3.0,0.0,1650849387998848.0
0.0,0.0,-1.0,-2.0,-5.0,-10.0,-2.0,0.0,1650849388019901.0
-1.0,-2.0,0.0,0.0,-1.0,5.0,-1.0,-2.0,1650849388019901.0
-2.0,1.0,-1.0,-4.0,-10.0,-19.0,-4.0,-1.0,1650849388027947.0
-1.0,0.0,-1.0,3.0,2.0,11.0,4.0,0.0,1650849388027947.0
0.0,-3.0,-3.0,-1.0,5.0,9.0,-1.0,1.0,1650849388042843.0
-2.0,-1.0,0.0,-3.0,-1.0,-3.0,-1.0,0.0,1650849388042843.0
0.0,1.0,1.0,0.0,5.0,6.0,3.0,3.0,1650849388043837.0
-1.0,0.0,1.0,-2.0,-1.0,-8.0,-3.0,-1.0,1650849388043837.0
1.0,0.0,-2.0,-1.0,-6.0,-5.0,0.0,0.0,1650849388057800.0
0.0,-1.0,-1.0,0.0,-6.0,6.0,-1.0,-1.0,1650849388057800.0
1.0,0.0,1.0,5.0,6.0,-1.0,0.0,1.0,1650849388058802.0
-1.0,0.0,-2.0,-1.0,-1.0,3.0,-1.0,1.0,1650849388058802.0
0.0,-1.0,0.0,1.0,-3.0,-6.0,0.0,0.0,1650849388079811.0
-1.0,-1.0,-1.0,-2.0,-5.0,-9.0,-1.0,0.0,1650849388079811.0
0.0,-1.0,-2.0,-1.0,7.0,1.0,0.0,-2.0,1650849388080739.0
2.0,0.0,0.0,2.0,6.0,10.0,2.0,2.0,1650849388080739.0
0.0,0.0,0.0,0.0,-5.0,-5.0,-2.0,0.0,1650849388103780.0
0.0,-1.0,-3.0,-2.0,-7.0,-23.0,-4.0,-2.0,1650849388103780.0
-1.0,0.0,-1.0,-2.0,-4.0,19.0,-2.0,-1.0,1650849388103780.0
0.0,-1.0,-2.0,0.0,-3.0,2.0,2.0,-1.0,1650849388103780.0
1.0,-1.0,-1.0,1.0,8.0,1.0,0.0,0.0,1650849388117771.0
1.0,0.0,-2.0,0.0,0.0,7.0,2.0,1.0,1650849388117771.0
-2.0,0.0,0.0,-2.0,-3.0,-17.0,-5.0,-2.0,1650849388118761.0
0.0,-2.0,-1.0,-4.0,-7.0,-9.0,-6.0,-2.0,1650849388118761.0
-1.0,2.0,1.0,-1.0,-2.0,-3.0,1.0,1.0,1650849388139714.0
-1.0,0.0,-1.0,4.0,11.0,17.0,-1.0,0.0,1650849388139714.0
1.0,-2.0,0.0,1.0,0.0,-3.0,0.0,1.0,1650849388140689.0
-1.0,0.0,0.0,-1.0,1.0,1.0,1.0,-2.0,1650849388140689.0
-1.0,1.0,-1.0,-3.0,-2.0,-4.0,2.0,1.0,1650849388163700.0
-1.0,-1.0,0.0,2.0,0.0,-3.0,-2.0,1.0,1650849388163700.0
0.0,-2.0,-1.0,-2.0,-9.0,-3.0,-1.0,-1.0,1650849388163700.0
1.0,0.0,0.0,3.0,7.0,8.0,1.0,1.0,1650849388163700.0
-1.0,-2.0,-2.0,-1.0,5.0,-4.0,-1.0,-1.0,1650849388177737.0
0.0,-2.0,-2.0,-2.0,-11.0,-7.0,-3.0,-1.0,1650849388177737.0
1.0,-2.0,0.0,1.0,13.0,11.0,3.0,0.0,1650849388178664.0
0.0,0.0,-1.0,-2.0,-4.0,2.0,-2.0,-1.0,1650849388178664.0
-1.0,0.0,1.0,2.0,2.0,11.0,0.0,2.0,1650849388199876.0
0.0,0.0,-1.0,-4.0,-5.0,-16.0,-2.0,-1.0,1650849388199876.0
-1.0,0.0,-1.0,-1.0,-4.0,1.0,0.0,-1.0,1650849388200846.0
0.0,-2.0,-1.0,-1.0,-6.0,-15.0,-3.0,-2.0,1650849388200846.0
0.0,-1.0,-1.0,1.0,5.0,10.0,1.0,1.0,1650849388222909.0
0.0,-2.0,1.0,0.0,10.0,8.0,3.0,1.0,1650849388222909.0
-1.0,0.0,0.0,-1.0,-4.0,-10.0,-4.0,1.0,1650849388223906.0
-1.0,0.0,1.0,0.0,-1.0,-3.0,0.0,0.0,1650849388223906.0
-2.0,-1.0,-1.0,0.0,-10.0,-6.0,-1.0,-1.0,1650849388237870.0
0.0,-1.0,1.0,0.0,8.0,4.0,2.0,0.0,1650849388237870.0
-2.0,-1.0,-1.0,-2.0,-8.0,-16.0,-2.0,-2.0,1650849388237870.0
-1.0,-2.0,-1.0,1.0,19.0,34.0,3.0,2.0,1650849388237870.0
0.0,-1.0,1.0,-2.0,-9.0,-11.0,-1.0,-2.0,1650849388259816.0
1.0,-1.0,-1.0,0.0,4.0,6.0,0.0,-2.0,1650849388259816.0
-1.0,-2.0,-1.0,-2.0,-14.0,-27.0,-5.0,-2.0,1650849388260815.0
2.0,2.0,-1.0,3.0,0.0,19.0,2.0,1.0,1650849388260815.0
1.0,-3.0,-2.0,-2.0,6.0,-1.0,-1.0,-1.0,1650849388283746.0
0.0,-1.0,1.0,-1.0,-3.0,2.0,2.0,0.0,1650849388283746.0
-1.0,-2.0,-2.0,-1.0,-4.0,-11.0,-3.0,0.0,1650849388283746.0
-1.0,-3.0,-2.0,0.0,-4.0,-3.0,-4.0,-2.0,1650849388283746.0
1.0,0.0,0.0,-1.0,0.0,7.0,3.0,1.0,1650849388297878.0
0.0,1.0,-2.0,0.0,1.0,-1.0,0.0,1.0,1650849388297878.0
0.0,-2.0,1.0,0.0,5.0,6.0,-1.0,-1.0,1650849388298847.0
-2.0,-2.0,-3.0,-5.0,-8.0,-28.0,-5.0,-2.0,1650849388298847.0
-1.0,-2.0,-1.0,2.0,4.0,15.0,0.0,-2.0,1650849388319817.0
-1.0,-1.0,-1.0,0.0,-9.0,-4.0,-1.0,-2.0,1650849388319817.0
0.0,0.0,0.0,1.0,5.0,11.0,3.0,1.0,1650849388320792.0
1.0,1.0,-1.0,-1.0,5.0,5.0,4.0,1.0,1650849388320792.0
0.0,-1.0,-1.0,0.0,-5.0,-11.0,-2.0,0.0,1650849388343743.0
0.0,-1.0,0.0,-1.0,-2.0,1.0,0.0,-1.0,1650849388343743.0
-1.0,0.0,0.0,-2.0,-4.0,-2.0,-1.0,-2.0,1650849388343743.0
-1.0,-1.0,1.0,-2.0,0.0,-11.0,-3.0,-1.0,1650849388343743.0
-2.0,0.0,0.0,-1.0,2.0,22.0,5.0,0.0,1650849388357688.0
-1.0,-1.0,0.0,-1.0,1.0,-2.0,-2.0,0.0,1650849388357688.0
-1.0,-1.0,0.0,0.0,1.0,4.0,1.0,-2.0,1650849388358696.0
-2.0,-1.0,-2.0,-1.0,-15.0,-25.0,-3.0,-2.0,1650849388358696.0
-1.0,0.0,-1.0,3.0,2.0,9.0,0.0,-2.0,1650849388380656.0
1.0,3.0,-1.0,2.0,12.0,5.0,3.0,2.0,1650849388380656.0
2.0,-1.0,-1.0,-2.0,3.0,12.0,0.0,-1.0,1650849388381625.0
-1.0,-3.0,-1.0,0.0,-4.0,2.0,-3.0,0.0,1650849388381625.0
0.0,0.0,1.0,-2.0,-7.0,-16.0,-2.0,1.0,1650849388403565.0
-2.0,-2.0,-3.0,0.0,-5.0,0.0,-2.0,-1.0,1650849388403565.0
0.0,-1.0,-4.0,-1.0,4.0,3.0,-2.0,1.0,1650849388404563.0
-1.0,1.0,-1.0,0.0,-4.0,-10.0,-1.0,-1.0,1650849388404563.0
-1.0,0.0,1.0,1.0,1.0,-5.0,0.0,-2.0,1650849388417659.0
1.0,-1.0,0.0,1.0,5.0,3.0,1.0,0.0,1650849388417659.0
-1.0,1.0,1.0,-1.0,-1.0,-7.0,-2.0,-2.0,1650849388425639.0
0.0,-1.0,-1.0,-2.0,2.0,17.0,6.0,2.0,1650849388425639.0
0.0,-2.0,-3.0,-6.0,-2.0,-11.0,-5.0,-1.0,1650849388439796.0
-1.0,0.0,-2.0,0.0,-1.0,0.0,-1.0,0.0,1650849388439796.0
-2.0,-2.0,0.0,1.0,-5.0,-8.0,-1.0,-2.0,1650849388440780.0
0.0,-2.0,-1.0,-3.0,-5.0,-18.0,-3.0,2.0,1650849388440780.0
0.0,-1.0,-3.0,1.0,9.0,30.0,1.0,-1.0,1650849388463770.0
-1.0,-1.0,-1.0,-4.0,-3.0,-6.0,1.0,-3.0,1650849388463770.0
-1.0,0.0,0.0,1.0,-2.0,6.0,2.0,-1.0,1650849388463770.0
-1.0,-1.0,0.0,4.0,8.0,2.0,0.0,-2.0,1650849388463770.0
-1.0,0.0,0.0,-1.0,-7.0,-18.0,-2.0,-2.0,1650849388476678.0
0.0,-3.0,-2.0,-4.0,-5.0,-8.0,-2.0,0.0,1650849388476678.0
0.0,0.0,-2.0,-1.0,-3.0,17.0,-1.0,-1.0,1650849388484649.0
1.0,1.0,4.0,4.0,0.0,-7.0,-1.0,0.0,1650849388484649.0
-1.0,-1.0,-1.0,2.0,4.0,-3.0,-1.0,2.0,1650849388499694.0
1.0,1.0,0.0,-2.0,6.0,16.0,5.0,1.0,1650849388499694.0
-1.0,-1.0,-3.0,-4.0,-4.0,-8.0,0.0,-1.0,1650849388500692.0
-1.0,-1.0,-5.0,-1.0,-4.0,-3.0,-3.0,-3.0,1650849388500692.0
-2.0,-1.0,-2.0,-2.0,-7.0,-25.0,-5.0,-2.0,1650849388522758.0
-3.0,-2.0,-1.0,-2.0,-5.0,20.0,1.0,1.0,1650849388522758.0
1.0,1.0,2.0,5.0,17.0,9.0,7.0,4.0,1650849388523760.0
0.0,-2.0,1.0,-4.0,1.0,3.0,-1.0,-1.0,1650849388523760.0
0.0,-1.0,0.0,-2.0,-7.0,-8.0,0.0,-1.0,1650849388536720.0
-2.0,-2.0,0.0,0.0,-4.0,-16.0,-4.0,-3.0,1650849388536720.0
-3.0,-1.0,-1.0,-2.0,-8.0,-16.0,-4.0,-1.0,1650849388545402.0
0.0,0.0,-1.0,1.0,0.0,24.0,2.0,-1.0,1650849388545402.0
1.0,-2.0,-1.0,1.0,6.0,-4.0,-3.0,0.0,1650849388560431.0
2.0,-1.0,1.0,-3.0,-8.0,-4.0,-1.0,0.0,1650849388560431.0
0.0,0.0,-1.0,2.0,7.0,4.0,1.0,0.0,1650849388561375.0
-2.0,2.0,-1.0,-1.0,5.0,6.0,2.0,0.0,1650849388561375.0
-3.0,-2.0,-1.0,-2.0,-6.0,-3.0,-1.0,-2.0,1650849388582866.0
-1.0,-2.0,-1.0,-3.0,-2.0,-10.0,-2.0,0.0,1650849388582866.0
1.0,0.0,-1.0,-3.0,-6.0,3.0,4.0,1.0,1650849388583836.0
-1.0,1.0,0.0,1.0,2.0,8.0,1.0,-2.0,1650849388583836.0
1.0,1.0,-1.0,1.0,6.0,24.0,8.0,2.0,1650849388596865.0
-1.0,-1.0,-1.0,-2.0,-2.0,-7.0,-3.0,0.0,1650849388596865.0
-1.0,-2.0,-1.0,0.0,-1.0,-11.0,-3.0,-1.0,1650849388604807.0
-2.0,-2.0,-1.0,-2.0,-3.0,-9.0,0.0,-1.0,1650849388604807.0
-1.0,-1.0,1.0,0.0,-2.0,-13.0,-2.0,-1.0,1650849388619740.0
-1.0,0.0,-1.0,-1.0,-2.0,16.0,-1.0,-1.0,1650849388619740.0
-1.0,-1.0,-1.0,1.0,-8.0,-1.0,0.0,2.0,1650849388620738.0
2.0,0.0,4.0,2.0,7.0,4.0,2.0,-1.0,1650849388620738.0
-1.0,-1.0,0.0,-3.0,0.0,-3.0,-1.0,-1.0,1650849388643678.0
-3.0,0.0,1.0,0.0,-8.0,-12.0,-2.0,-1.0,1650849388643678.0
-1.0,-2.0,-2.0,0.0,2.0,4.0,-1.0,-3.0,1650849388643678.0
0.0,0.0,-2.0,-2.0,-3.0,0.0,-1.0,0.0,1650849388643678.0
0.0,0.0,1.0,-3.0,-3.0,-10.0,-3.0,-2.0,1650849388656641.0
-1.0,0.0,-1.0,2.0,3.0,-4.0,-2.0,-2.0,1650849388656641.0
1.0,0.0,1.0,-2.0,2.0,18.0,7.0,1.0,1650849388665618.0
2.0,0.0,-1.0,1.0,-5.0,-1.0,1.0,2.0,1650849388665618.0
0.0,1.0,2.0,4.0,12.0,15.0,3.0,1.0,1650849388680199.0
1.0,2.0,0.0,2.0,4.0,-8.0,-2.0,-1.0,1650849388680199.0
0.0,-2.0,-3.0,-2.0,-3.0,-9.0,-3.0,-2.0,1650849388681161.0
-1.0,-3.0,-3.0,-4.0,-8.0,-9.0,-2.0,-1.0,1650849388681161.0
-1.0,-2.0,-3.0,-3.0,-7.0,-17.0,-2.0,-2.0,1650849388703148.0
-1.0,0.0,1.0,1.0,7.0,21.0,5.0,2.0,1650849388703148.0
-1.0,0.0,1.0,1.0,0.0,-2.0,-1.0,0.0,1650849388704124.0
0.0,0.0,0.0,0.0,3.0,-2.0,-1.0,0.0,1650849388704124.0
0.0,-1.0,0.0,2.0,-5.0,-2.0,-1.0,2.0,1650849388726060.0
-1.0,-1.0,1.0,-1.0,5.0,0.0,2.0,-2.0,1650849388726060.0
0.0,0.0,-1.0,-3.0,-2.0,-4.0,-2.0,-2.0,1650849388726060.0
0.0,-2.0,-3.0,-2.0,3.0,8.0,2.0,0.0,1650849388726060.0
-2.0,-1.0,0.0,3.0,10.0,6.0,2.0,0.0,1650849388740050.0
-1.0,0.0,-3.0,-1.0,-8.0,-17.0,-3.0,-1.0,1650849388740050.0
0.0,0.0,0.0,0.0,-1.0,21.0,3.0,0.0,1650849388741021.0
1.0,2.0,0.0,-1.0,0.0,0.0,-1.0,0.0,1650849388741021.0
0.0,1.0,0.0,2.0,8.0,6.0,0.0,0.0,1650849388763595.0
1.0,-2.0,-3.0,0.0,-5.0,-19.0,-2.0,0.0,1650849388763595.0
-1.0,1.0,-1.0,-3.0,1.0,11.0,-1.0,-4.0,1650849388763595.0
0.0,-1.0,1.0,0.0,-9.0,-11.0,-1.0,-1.0,1650849388763595.0
1.0,-1.0,0.0,0.0,9.0,11.0,1.0,1.0,1650849388785755.0
0.0,0.0,-2.0,-1.0,0.0,-1.0,-2.0,0.0,1650849388785755.0
0.0,-2.0,-2.0,-3.0,-6.0,-13.0,-4.0,-1.0,1650849388786727.0
0.0,0.0,-2.0,-2.0,-3.0,3.0,-3.0,0.0,1650849388786727.0
-2.0,0.0,-3.0,-3.0,-17.0,-21.0,-2.0,-3.0,1650849388799756.0
0.0,0.0,1.0,5.0,9.0,24.0,4.0,1.0,1650849388799756.0
-2.0,0.0,-1.0,-2.0,-1.0,-8.0,-2.0,-1.0,1650849388800688.0
-3.0,0.0,-2.0,0.0,1.0,-13.0,-2.0,-1.0,1650849388800688.0
1.0,-1.0,-1.0,-1.0,-6.0,24.0,6.0,0.0,1650849388822735.0
0.0,-1.0,1.0,-1.0,3.0,1.0,0.0,1.0,1650849388822735.0
-2.0,2.0,1.0,3.0,-2.0,-6.0,-2.0,0.0,1650849388823733.0
-3.0,0.0,-2.0,-1.0,1.0,1.0,-4.0,-2.0,1650849388823733.0
0.0,-1.0,-2.0,-2.0,-5.0,-9.0,-2.0,1.0,1650849388846765.0
-1.0,-1.0,-2.0,-3.0,-6.0,3.0,0.0,-2.0,1650849388846765.0
1.0,-1.0,0.0,1.0,3.0,0.0,-1.0,0.0,1650849388846765.0
-1.0,-1.0,0.0,-3.0,0.0,-12.0,-3.0,-1.0,1650849388846765.0
-1.0,0.0,-1.0,-3.0,2.0,1.0,-2.0,0.0,1650849388859734.0
1.0,0.0,3.0,4.0,7.0,18.0,5.0,0.0,1650849388859734.0
0.0,-1.0,-2.0,-2.0,-10.0,-21.0,-2.0,-1.0,1650849388860730.0
0.0,-1.0,-1.0,2.0,0.0,16.0,0.0,1.0,1650849388860730.0
0.0,1.0,1.0,1.0,6.0,2.0,1.0,-1.0,1650849388883699.0
-1.0,0.0,1.0,-3.0,-5.0,-9.0,-1.0,-2.0,1650849388883699.0
0.0,-1.0,-3.0,-1.0,4.0,-2.0,-3.0,-1.0,1650849388883699.0
-1.0,-1.0,1.0,1.0,0.0,8.0,5.0,0.0,1650849388883699.0
-1.0,-1.0,-1.0,-3.0,-14.0,-12.0,-4.0,-2.0,1650849388905778.0
0.0,0.0,0.0,-2.0,5.0,1.0,-1.0,0.0,1650849388905778.0
0.0,-1.0,1.0,1.0,4.0,11.0,-1.0,1.0,1650849388906749.0
1.0,-1.0,0.0,1.0,11.0,5.0,3.0,1.0,1650849388906749.0
-2.0,-3.0,-2.0,-1.0,-12.0,-14.0,-3.0,-1.0,1650849388919740.0
0.0,-3.0,-2.0,2.0,-3.0,-6.0,0.0,-1.0,1650849388919740.0
-1.0,-1.0,-2.0,0.0,3.0,3.0,2.0,0.0,1650849388920710.0
-1.0,-2.0,-2.0,-5.0,-14.0,-22.0,-5.0,-2.0,1650849388920710.0
0.0,1.0,2.0,4.0,18.0,36.0,6.0,1.0,1650849388943650.0
-1.0,0.0,0.0,-3.0,-11.0,-13.0,-2.0,-1.0,1650849388943650.0
-2.0,-2.0,1.0,3.0,3.0,7.0,2.0,0.0,1650849388943650.0
1.0,0.0,-1.0,-1.0,0.0,1.0,0.0,-1.0,1650849388943650.0
0.0,-1.0,-3.0,-3.0,-7.0,-12.0,-2.0,-2.0,1650849388964682.0
-2.0,-1.0,-1.0,-2.0,-3.0,-12.0,-3.0,-1.0,1650849388964682.0
0.0,0.0,-1.0,2.0,10.0,33.0,5.0,0.0,1650849388972693.0
-1.0,-2.0,-1.0,-1.0,0.0,-2.0,1.0,0.0,1650849388972693.0
-1.0,-1.0,0.0,-2.0,-14.0,-9.0,-1.0,-1.0,1650849388979707.0
1.0,1.0,1.0,2.0,13.0,9.0,1.0,-1.0,1650849388979707.0
1.0,0.0,-1.0,-1.0,-8.0,-17.0,-4.0,-1.0,1650849388980641.0
-1.0,0.0,1.0,2.0,-3.0,3.0,-2.0,-1.0,1650849388980641.0
1.0,-2.0,1.0,0.0,7.0,8.0,0.0,1.0,1650849389002907.0
-2.0,-1.0,-2.0,-4.0,-11.0,-22.0,-5.0,-2.0,1650849389002907.0
1.0,-1.0,-1.0,0.0,2.0,9.0,2.0,0.0,1650849389003880.0
-2.0,1.0,-2.0,-1.0,1.0,0.0,-1.0,-3.0,1650849389003880.0
1.0,-1.0,0.0,-1.0,4.0,-2.0,0.0,0.0,1650849389025823.0
1.0,-1.0,-2.0,-3.0,-8.0,8.0,2.0,0.0,1650849389025823.0
-2.0,0.0,0.0,1.0,3.0,-3.0,-1.0,0.0,1650849389026824.0
-1.0,-2.0,-1.0,-2.0,0.0,-3.0,0.0,-1.0,1650849389026824.0
-2.0,0.0,-2.0,-5.0,-11.0,-39.0,-9.0,-5.0,1650849389039810.0
-2.0,-1.0,1.0,3.0,3.0,40.0,0.0,-1.0,1650849389039810.0
1.0,0.0,1.0,-2.0,-15.0,-14.0,-1.0,-2.0,1650849389040784.0
0.0,0.0,0.0,4.0,17.0,-7.0,-2.0,1.0,1650849389040784.0
-2.0,0.0,2.0,-1.0,3.0,21.0,3.0,1.0,1650849389063769.0
0.0,-1.0,-1.0,0.0,7.0,-6.0,-2.0,0.0,1650849389063769.0
0.0,-1.0,-2.0,-4.0,-8.0,-10.0,-3.0,-2.0,1650849389063769.0
-1.0,-1.0,-4.0,-1.0,-8.0,-8.0,-2.0,-2.0,1650849389063769.0
-1.0,-1.0,-2.0,-1.0,-2.0,0.0,-4.0,-2.0,1650849389093637.0
0.0,-1.0,0.0,0.0,3.0,4.0,3.0,0.0,1650849389093637.0
-1.0,-1.0,1.0,0.0,2.0,3.0,0.0,1.0,1650849389093637.0
1.0,0.0,1.0,-3.0,-4.0,-4.0,1.0,-1.0,1650849389093637.0
0.0,0.0,0.0,0.0,0.0,-1.0,0.0,0.0,1650849389100618.0
0.0,0.0,-2.0,-2.0,-10.0,-9.0,-2.0,0.0,1650849389100618.0
-2.0,-1.0,-3.0,-1.0,10.0,-1.0,-3.0,-2.0,1650849389100618.0
-2.0,0.0,1.0,0.0,0.0,27.0,7.0,1.0,1650849389100618.0
0.0,-2.0,1.0,-2.0,-6.0,-1.0,2.0,0.0,1650849389124553.0
-1.0,0.0,1.0,0.0,2.0,0.0,0.0,0.0,1650849389124553.0
0.0,0.0,-1.0,0.0,7.0,-5.0,1.0,2.0,1650849389125551.0
-3.0,0.0,-3.0,0.0,-3.0,-11.0,-4.0,-2.0,1650849389125551.0
-2.0,-1.0,-1.0,2.0,9.0,17.0,2.0,0.0,1650849389145561.0
-2.0,0.0,-3.0,-2.0,-9.0,-12.0,-1.0,-1.0,1650849389145561.0
1.0,-2.0,0.0,-2.0,-5.0,-4.0,-2.0,-2.0,1650849389146495.0
0.0,0.0,1.0,-1.0,1.0,4.0,-1.0,0.0,1650849389146495.0
0.0,-1.0,-3.0,3.0,4.0,6.0,0.0,1.0,1650849389160467.0
-1.0,-1.0,1.0,-2.0,0.0,-9.0,-4.0,-1.0,1650849389160467.0
0.0,0.0,-1.0,1.0,1.0,7.0,-2.0,0.0,1650849389160467.0
0.0,0.0,1.0,0.0,0.0,-3.0,0.0,0.0,1650849389160467.0
0.0,-1.0,-1.0,-3.0,-8.0,-1.0,-3.0,-2.0,1650849389183166.0
2.0,0.0,1.0,3.0,5.0,4.0,2.0,1.0,1650849389183166.0
1.0,1.0,-2.0,0.0,8.0,2.0,1.0,0.0,1650849389184103.0
-1.0,-1.0,-3.0,-4.0,-7.0,-18.0,-6.0,-3.0,1650849389184103.0
-1.0,1.0,1.0,2.0,-6.0,-2.0,0.0,0.0,1650849389206171.0
-1.0,-1.0,-2.0,-1.0,13.0,18.0,1.0,1.0,1650849389206171.0
-1.0,-2.0,0.0,-3.0,-11.0,-12.0,-1.0,1.0,1650849389206171.0
1.0,-2.0,-2.0,1.0,1.0,6.0,-1.0,-2.0,1650849389206171.0
-1.0,-3.0,-1.0,-2.0,-1.0,-3.0,1.0,-1.0,1650849389220160.0
-1.0,0.0,-1.0,0.0,-4.0,-6.0,-1.0,0.0,1650849389220160.0
-3.0,-1.0,-1.0,1.0,-1.0,-1.0,-1.0,-2.0,1650849389221128.0
1.0,-2.0,-2.0,-5.0,0.0,2.0,-3.0,-1.0,1650849389221128.0
-1.0,1.0,0.0,1.0,-3.0,0.0,-3.0,-2.0,1650849389243070.0
1.0,-1.0,0.0,0.0,2.0,4.0,3.0,0.0,1650849389243070.0
-2.0,-1.0,-2.0,-2.0,0.0,-23.0,-5.0,-1.0,1650849389244067.0
0.0,1.0,2.0,0.0,6.0,43.0,11.0,3.0,1650849389244067.0
0.0,-1.0,-2.0,-2.0,-6.0,-11.0,-3.0,0.0,1650849389266220.0
0.0,-2.0,-2.0,0.0,3.0,-14.0,-3.0,-1.0,1650849389266220.0
-1.0,-1.0,0.0,1.0,11.0,24.0,4.0,1.0,1650849389266220.0
-2.0,0.0,-1.0,-3.0,-5.0,-13.0,-4.0,-1.0,1650849389266220.0
-1.0,-1.0,0.0,-2.0,-5.0,-7.0,0.0,-2.0,1650849389280165.0
0.0,-1.0,0.0,0.0,3.0,10.0,1.0,-1.0,1650849389280165.0
-1.0,-2.0,0.0,-1.0,-1.0,1.0,-1.0,-1.0,1650849389281111.0
-1.0,0.0,-1.0,0.0,-8.0,-17.0,-3.0,0.0,1650849389281111.0
-1.0,-3.0,-2.0,2.0,6.0,19.0,1.0,1.0,1650849389302905.0
-1.0,0.0,-2.0,-3.0,-8.0,-22.0,-3.0,-2.0,1650849389302905.0
-1.0,0.0,1.0,1.0,3.0,14.0,4.0,-1.0,1650849389303877.0
0.0,-1.0,0.0,-1.0,-1.0,-11.0,-3.0,-1.0,1650849389303877.0
1.0,-1.0,-1.0,-2.0,7.0,17.0,4.0,0.0,1650849389325962.0
-3.0,-2.0,-1.0,-4.0,-18.0,-19.0,-5.0,-2.0,1650849389325962.0
2.0,1.0,1.0,5.0,13.0,19.0,0.0,2.0,1650849389326932.0
1.0,-1.0,0.0,-4.0,-7.0,-7.0,-3.0,-1.0,1650849389326932.0
-1.0,-1.0,1.0,-1.0,-1.0,-7.0,0.0,1.0,1650849389340000.0
0.0,2.0,-3.0,0.0,5.0,11.0,0.0,0.0,1650849389340000.0
-2.0,-2.0,0.0,-5.0,-11.0,-13.0,-4.0,-3.0,1650849389347960.0
-3.0,0.0,-1.0,2.0,-9.0,-7.0,-2.0,-1.0,1650849389347960.0
1.0,2.0,1.0,3.0,19.0,15.0,4.0,2.0,1650849389370919.0
-1.0,-1.0,0.0,1.0,-5.0,4.0,1.0,0.0,1650849389370919.0
0.0,1.0,-2.0,-3.0,1.0,-7.0,-2.0,-2.0,1650849389371917.0
0.0,-2.0,-1.0,0.0,-4.0,-15.0,-1.0,-1.0,1650849389371917.0
0.0,0.0,-1.0,-1.0,-6.0,3.0,-2.0,-1.0,1650849389385907.0
0.0,-1.0,0.0,0.0,2.0,5.0,2.0,1.0,1650849389385907.0
1.0,-1.0,0.0,-2.0,-4.0,-10.0,0.0,-1.0,1650849389386898.0
0.0,-1.0,-2.0,-1.0,-3.0,-3.0,0.0,-2.0,1650849389386898.0
-1.0,0.0,-3.0,0.0,8.0,12.0,5.0,0.0,1650849389407848.0
-1.0,-1.0,-1.0,-2.0,1.0,7.0,-3.0,-2.0,1650849389407848.0
-1.0,-1.0,0.0,1.0,-5.0,-9.0,-1.0,1.0,1650849389408826.0
-1.0,1.0,2.0,-1.0,4.0,7.0,1.0,-1.0,1650849389408826.0
1.0,2.0,2.0,-2.0,-4.0,-26.0,-6.0,0.0,1650849389422809.0
0.0,-1.0,0.0,0.0,0.0,18.0,1.0,-1.0,1650849389422809.0
-1.0,0.0,0.0,-2.0,-2.0,-3.0,0.0,0.0,1650849389423779.0
0.0,-1.0,0.0,-1.0,2.0,5.0,-1.0,-1.0,1650849389423779.0
-3.0,-1.0,-3.0,-3.0,-8.0,-21.0,-6.0,-2.0,1650849389445788.0
0.0,1.0,0.0,1.0,6.0,12.0,2.0,1.0,1650849389445788.0
-1.0,-1.0,-1.0,1.0,0.0,2.0,0.0,-2.0,1650849389446718.0
0.0,0.0,1.0,-1.0,-6.0,4.0,-2.0,0.0,1650849389446718.0
-1.0,-2.0,-2.0,1.0,7.0,-1.0,-2.0,-1.0,1650849389459710.0
0.0,-2.0,-1.0,-2.0,-7.0,-13.0,-2.0,0.0,1650849389459710.0
0.0,1.0,-1.0,-3.0,-6.0,5.0,0.0,1.0,1650849389467660.0
-1.0,-1.0,-2.0,2.0,1.0,-6.0,1.0,0.0,1650849389467660.0
-2.0,0.0,0.0,-1.0,0.0,-8.0,-3.0,-2.0,1650849389483685.0
0.0,-1.0,0.0,-1.0,-3.0,-1.0,-4.0,-3.0,1650849389483685.0
1.0,1.0,1.0,3.0,-2.0,2.0,1.0,2.0,1650849389483685.0
-2.0,0.0,-2.0,0.0,7.0,7.0,3.0,1.0,1650849389483685.0
0.0,0.0,-1.0,-2.0,-2.0,1.0,1.0,-2.0,1650849389506235.0
-1.0,0.0,-2.0,-1.0,2.0,-5.0,0.0,1.0,1650849389506235.0
-2.0,0.0,-2.0,-2.0,-9.0,-9.0,-3.0,-1.0,1650849389506235.0
-1.0,1.0,3.0,1.0,2.0,5.0,-1.0,1.0,1650849389506235.0
-3.0,-1.0,0.0,-2.0,0.0,4.0,0.0,-1.0,1650849389519256.0
-3.0,0.0,-1.0,-4.0,-17.0,-23.0,-3.0,-1.0,1650849389519256.0
1.0,-2.0,0.0,4.0,13.0,12.0,0.0,-3.0,1650849389527169.0
0.0,-1.0,-3.0,-2.0,4.0,17.0,2.0,-1.0,1650849389527169.0
0.0,-1.0,1.0,0.0,-2.0,3.0,3.0,0.0,1650849389542905.0
1.0,-1.0,0.0,-2.0,4.0,-7.0,-1.0,-2.0,1650849389542905.0
-3.0,-1.0,-4.0,-3.0,-12.0,-9.0,-2.0,-2.0,1650849389543876.0
-1.0,0.0,-1.0,-1.0,0.0,-13.0,-4.0,0.0,1650849389543876.0
0.0,0.0,-1.0,0.0,-5.0,-16.0,-4.0,-1.0,1650849389565949.0
-1.0,0.0,0.0,0.0,6.0,20.0,3.0,-2.0,1650849389565949.0
1.0,-1.0,0.0,-2.0,-10.0,-4.0,1.0,0.0,1650849389566949.0
1.0,2.0,1.0,3.0,8.0,8.0,2.0,-2.0,1650849389566949.0
0.0,-2.0,1.0,1.0,3.0,-1.0,1.0,0.0,1650849389579919.0
-1.0,-1.0,-3.0,-3.0,3.0,-1.0,0.0,1.0,1650849389579919.0
-1.0,0.0,-1.0,0.0,-1.0,0.0,-1.0,-1.0,1650849389587891.0
0.0,0.0,0.0,2.0,-3.0,-3.0,0.0,1.0,1650849389587891.0
1.0,0.0,-1.0,-1.0,-6.0,-6.0,-3.0,-1.0,1650849389602852.0
-1.0,0.0,2.0,3.0,6.0,2.0,-2.0,0.0,1650849389602852.0
-1.0,0.0,-1.0,-3.0,-2.0,-2.0,0.0,0.0,1650849389603849.0
-1.0,-2.0,-2.0,-3.0,-11.0,2.0,-2.0,-1.0,1650849389603849.0
2.0,0.0,3.0,5.0,13.0,1.0,2.0,1.0,1650849389625818.0
0.0,1.0,1.0,3.0,20.0,21.0,9.0,3.0,1650849389625818.0
0.0,-2.0,-2.0,-3.0,-7.0,-10.0,-2.0,0.0,1650849389626788.0
0.0,-1.0,-1.0,-2.0,0.0,-1.0,0.0,-2.0,1650849389626788.0
-4.0,-2.0,-2.0,-6.0,-13.0,-12.0,-4.0,-3.0,1650849389639753.0
-1.0,-1.0,-3.0,-1.0,-7.0,-11.0,-3.0,-1.0,1650849389639753.0
1.0,2.0,1.0,3.0,9.0,19.0,5.0,1.0,1650849389647799.0
0.0,-1.0,1.0,1.0,2.0,-5.0,0.0,0.0,1650849389647799.0
-1.0,-1.0,-2.0,0.0,1.0,11.0,0.0,1.0,1650849389663739.0
0.0,-1.0,-1.0,0.0,-7.0,-10.0,-2.0,-2.0,1650849389663739.0
0.0,-1.0,0.0,-2.0,-1.0,-15.0,-4.0,-2.0,1650849389663739.0
-2.0,-1.0,0.0,0.0,4.0,18.0,3.0,-1.0,1650849389663739.0
-2.0,0.0,-1.0,-1.0,-1.0,0.0,-1.0,-2.0,1650849389685735.0
0.0,1.0,0.0,-4.0,-8.0,-16.0,-3.0,-4.0,1650849389685735.0
-1.0,-1.0,0.0,0.0,-4.0,1.0,-3.0,-1.0,1650849389686732.0
1.0,2.0,-1.0,3.0,4.0,2.0,5.0,2.0,1650849389686732.0
-1.0,-1.0,-1.0,0.0,10.0,9.0,1.0,1.0,1650849389708723.0
-1.0,0.0,-1.0,-1.0,-4.0,-8.0,0.0,0.0,1650849389708723.0
-1.0,1.0,0.0,-3.0,-7.0,-19.0,-4.0,-4.0,1650849389708723.0
0.0,-2.0,-1.0,1.0,-4.0,4.0,-1.0,0.0,1650849389708723.0
0.0,1.0,-2.0,0.0,0.0,6.0,2.0,1.0,1650849389723661.0
0.0,-1.0,-1.0,1.0,1.0,-3.0,-4.0,1.0,1650849389723661.0
-2.0,-1.0,0.0,-3.0,0.0,0.0,2.0,-1.0,1650849389723661.0
0.0,-2.0,-1.0,-1.0,1.0,-2.0,-1.0,-1.0,1650849389723661.0
-1.0,-1.0,2.0,1.0,-8.0,-5.0,-1.0,-1.0,1650849389745576.0
0.0,0.0,0.0,0.0,2.0,10.0,-1.0,1.0,1650849389745576.0
0.0,-2.0,-2.0,-2.0,2.0,0.0,1.0,0.0,1650849389746572.0
-2.0,0.0,0.0,-3.0,-10.0,-13.0,-4.0,-3.0,1650849389746572.0
-1.0,1.0,0.0,2.0,7.0,16.0,1.0,1.0,1650849389768712.0
-1.0,-2.0,-2.0,-2.0,0.0,-4.0,-1.0,-1.0,1650849389768712.0
-1.0,-2.0,-2.0,0.0,-7.0,-12.0,-3.0,-1.0,1650849389768712.0
1.0,1.0,3.0,4.0,13.0,30.0,9.0,2.0,1650849389768712.0
0.0,-1.0,-2.0,-2.0,-5.0,-13.0,-3.0,-1.0,1650849389781740.0
-1.0,-1.0,0.0,-2.0,5.0,7.0,1.0,-2.0,1650849389781740.0
-2.0,-1.0,-2.0,0.0,-5.0,-11.0,-2.0,-1.0,1650849389790667.0
-2.0,-1.0,-2.0,-2.0,2.0,2.0,-1.0,-1.0,1650849389790667.0
-2.0,1.0,0.0,-3.0,-6.0,0.0,2.0,0.0,1650849389805640.0
1.0,0.0,3.0,2.0,2.0,4.0,3.0,1.0,1650849389805640.0
1.0,-2.0,-1.0,-1.0,2.0,3.0,1.0,1.0,1650849389807608.0
-1.0,-1.0,-2.0,-2.0,-2.0,-10.0,-3.0,0.0,1650849389807608.0
-1.0,-3.0,-5.0,-4.0,-6.0,1.0,-1.0,-2.0,1650849389828553.0
-2.0,-1.0,-1.0,2.0,-13.0,-21.0,-5.0,-2.0,1650849389828553.0
0.0,0.0,1.0,3.0,20.0,32.0,5.0,3.0,1650849389829561.0
1.0,-2.0,0.0,-4.0,-4.0,-6.0,-3.0,1.0,1650849389829561.0
0.0,-1.0,-1.0,-2.0,-14.0,-9.0,-2.0,-1.0,1650849389841545.0
-1.0,-1.0,-1.0,-1.0,-2.0,-2.0,-2.0,1.0,1650849389841545.0
-1.0,1.0,0.0,0.0,1.0,-8.0,-2.0,0.0,1650849389850493.0
-1.0,0.0,0.0,3.0,14.0,38.0,7.0,1.0,1650849389850493.0
-3.0,0.0,1.0,-2.0,-4.0,-12.0,-3.0,-2.0,1650849389865600.0
1.0,0.0,0.0,0.0,1.0,-7.0,0.0,0.0,1650849389865600.0
-1.0,-1.0,-3.0,0.0,-3.0,10.0,2.0,-1.0,1650849389867597.0
-1.0,-3.0,-3.0,-1.0,-6.0,-21.0,-4.0,-4.0,1650849389867597.0
-1.0,0.0,1.0,1.0,-3.0,-2.0,0.0,-1.0,1650849389888540.0
1.0,-2.0,-3.0,-2.0,-2.0,9.0,1.0,1.0,1650849389888540.0
0.0,1.0,-1.0,0.0,4.0,-3.0,-1.0,0.0,1650849389889567.0
-3.0,0.0,-2.0,0.0,-5.0,-13.0,-3.0,-2.0,1650849389889567.0
1.0,-1.0,0.0,1.0,5.0,5.0,1.0,1.0,1650849389901533.0
-3.0,-2.0,1.0,-2.0,0.0,1.0,-1.0,-1.0,1650849389901533.0
-1.0,-1.0,-1.0,-1.0,-4.0,-4.0,-1.0,0.0,1650849389910511.0
-1.0,0.0,0.0,-4.0,-3.0,-6.0,-3.0,-2.0,1650849389910511.0
0.0,0.0,1.0,3.0,-2.0,1.0,3.0,1.0,1650849389925470.0
0.0,2.0,1.0,6.0,20.0,20.0,6.0,3.0,1650849389925470.0
0.0,-1.0,-2.0,-1.0,-8.0,-1.0,-1.0,0.0,1650849389927437.0
-1.0,-2.0,0.0,0.0,5.0,-9.0,-2.0,-1.0,1650849389927437.0
-1.0,-1.0,-3.0,-3.0,-1.0,-6.0,-2.0,-1.0,1650849389948449.0
0.0,0.0,-2.0,-4.0,-6.0,-11.0,-2.0,-2.0,1650849389948449.0
-3.0,-1.0,0.0,-1.0,-4.0,-8.0,-4.0,-2.0,1650849389949405.0
-1.0,1.0,0.0,3.0,0.0,22.0,8.0,2.0,1650849389949405.0
0.0,1.0,1.0,4.0,17.0,16.0,2.0,2.0,1650849389962344.0
-1.0,-2.0,-1.0,-4.0,-8.0,-1.0,0.0,-1.0,1650849389962344.0
0.0,-1.0,-3.0,-2.0,2.0,-5.0,-1.0,-1.0,1650849389971347.0
-2.0,-2.0,-1.0,-3.0,-9.0,-17.0,-6.0,-1.0,1650849389971347.0
-1.0,-1.0,1.0,0.0,-2.0,-1.0,-1.0,-2.0,1650849389985501.0
-2.0,0.0,0.0,0.0,-2.0,1.0,0.0,-2.0,1650849389985501.0
0.0,-1.0,0.0,0.0,-3.0,-7.0,-3.0,0.0,1650849389987429.0
-1.0,-1.0,-1.0,0.0,3.0,5.0,0.0,-1.0,1650849389987429.0
-1.0,1.0,-1.0,-2.0,-3.0,-4.0,-1.0,0.0,1650849390008401.0
1.0,1.0,0.0,-1.0,-5.0,-1.0,-1.0,0.0,1650849390008401.0
1.0,0.0,1.0,4.0,18.0,18.0,2.0,1.0,1650849390010378.0
-1.0,-3.0,-3.0,-4.0,-5.0,-10.0,-2.0,-1.0,1650849390010378.0
0.0,-1.0,-1.0,-2.0,-1.0,-6.0,-2.0,-1.0,1650849390022335.0
-1.0,-2.0,0.0,-2.0,-11.0,-12.0,-3.0,-2.0,1650849390022335.0
-3.0,1.0,-1.0,-2.0,-4.0,6.0,-2.0,-1.0,1650849390031316.0
1.0,2.0,2.0,-1.0,4.0,-9.0,-2.0,0.0,1650849390031316.0
0.0,-2.0,-2.0,-1.0,-2.0,-7.0,1.0,0.0,1650849390045794.0
-2.0,-1.0,-1.0,1.0,-1.0,11.0,0.0,0.0,1650849390045794.0
-2.0,0.0,0.0,0.0,-6.0,-10.0,1.0,-1.0,1650849390047791.0
2.0,0.0,1.0,5.0,7.0,9.0,-1.0,1.0,1650849390047791.0
-1.0,-2.0,-2.0,0.0,5.0,0.0,-2.0,-2.0,1650849390068737.0
0.0,1.0,-3.0,-4.0,-3.0,-2.0,1.0,1.0,1650849390068737.0
0.0,1.0,1.0,0.0,-9.0,-8.0,0.0,-1.0,1650849390069731.0
-1.0,-2.0,-2.0,0.0,-2.0,-2.0,0.0,-1.0,1650849390069731.0
0.0,-1.0,1.0,-1.0,-3.0,0.0,0.0,0.0,1650849390081767.0
-1.0,-4.0,-3.0,-1.0,5.0,1.0,0.0,-1.0,1650849390081767.0
-1.0,-2.0,-1.0,-3.0,-6.0,0.0,-1.0,-2.0,1650849390090676.0
0.0,2.0,0.0,-1.0,-10.0,-22.0,-2.0,-1.0,1650849390090676.0
-3.0,-1.0,0.0,1.0,8.0,24.0,1.0,-1.0,1650849390105664.0
2.0,1.0,3.0,4.0,13.0,4.0,1.0,0.0,1650849390105664.0
-1.0,-1.0,1.0,-1.0,-6.0,-3.0,0.0,1.0,1650849390107630.0
-1.0,-1.0,-2.0,-2.0,-3.0,0.0,0.0,0.0,1650849390107630.0
1.0,0.0,-1.0,-1.0,2.0,-6.0,3.0,-1.0,1650849390128575.0
-2.0,-1.0,-2.0,-2.0,-11.0,-21.0,-5.0,-3.0,1650849390128575.0
1.0,-1.0,1.0,3.0,16.0,28.0,4.0,1.0,1650849390129574.0
-1.0,-2.0,-2.0,-4.0,-12.0,-22.0,-6.0,-3.0,1650849390129574.0
-2.0,-2.0,-1.0,2.0,1.0,7.0,-2.0,-1.0,1650849390141567.0
0.0,-1.0,0.0,0.0,10.0,9.0,1.0,1.0,1650849390141567.0
0.0,-3.0,-2.0,-2.0,-13.0,-11.0,-2.0,-2.0,1650849390150516.0
-2.0,-1.0,1.0,-2.0,8.0,0.0,0.0,1.0,1650849390150516.0
0.0,0.0,0.0,2.0,1.0,0.0,1.0,-1.0,1650849390166213.0
-2.0,2.0,1.0,2.0,2.0,6.0,1.0,0.0,1650849390166213.0
0.0,-1.0,-1.0,-1.0,5.0,-2.0,-1.0,-1.0,1650849390167491.0
-2.0,-1.0,0.0,-2.0,-13.0,-21.0,-3.0,-3.0,1650849390167491.0
-2.0,-4.0,-2.0,-1.0,0.0,21.0,-1.0,-2.0,1650849390188612.0
-1.0,-3.0,-1.0,-2.0,0.0,-3.0,-1.0,-1.0,1650849390188612.0
1.0,-2.0,-2.0,2.0,0.0,0.0,0.0,0.0,1650849390189620.0
-1.0,-1.0,-3.0,-1.0,-5.0,7.0,-1.0,-2.0,1650849390189620.0
0.0,1.0,1.0,0.0,4.0,-21.0,-3.0,-1.0,1650849390201606.0
-2.0,-2.0,-1.0,-1.0,-3.0,16.0,1.0,0.0,1650849390201606.0
-1.0,1.0,1.0,-1.0,-1.0,-1.0,-1.0,-1.0,1650849390210553.0
1.0,1.0,0.0,-3.0,0.0,-4.0,-2.0,0.0,1650849390210553.0
0.0,1.0,-1.0,0.0,-8.0,-8.0,-3.0,1.0,1650849390225542.0
-1.0,-1.0,-1.0,1.0,5.0,0.0,-1.0,-2.0,1650849390225542.0
1.0,-1.0,0.0,0.0,2.0,2.0,0.0,-2.0,1650849390227509.0
1.0,0.0,0.0,-1.0,2.0,7.0,1.0,1.0,1650849390227509.0
-1.0,0.0,-2.0,-4.0,-23.0,-21.0,-4.0,0.0,1650849390255463.0
0.0,1.0,1.0,3.0,9.0,14.0,1.0,0.0,1650849390255463.0
1.0,0.0,-2.0,0.0,8.0,0.0,1.0,2.0,1650849390257429.0
-1.0,-1.0,1.0,0.0,0.0,2.0,0.0,-2.0,1650849390257429.0
-1.0,0.0,-1.0,-2.0,-1.0,2.0,-1.0,-2.0,1650849390261417.0
0.0,-2.0,-1.0,-5.0,-10.0,-15.0,-2.0,-1.0,1650849390261417.0
-1.0,-1.0,-1.0,-2.0,-2.0,0.0,-1.0,-3.0,1650849390270393.0
-1.0,-1.0,-1.0,2.0,5.0,12.0,2.0,1.0,1650849390270393.0
-1.0,-1.0,-1.0,-3.0,1.0,-5.0,0.0,-1.0,1650849390285353.0
-1.0,0.0,0.0,1.0,-2.0,-3.0,-1.0,1.0,1650849390285353.0
0.0,1.0,3.0,2.0,0.0,2.0,-1.0,0.0,1650849390287358.0
-8.0,-1.0,1.0,1.0,1.0,1.0,1.0,3.0,1650849390287358.0
-1.0,-2.0,-5.0,-2.0,-2.0,1.0,-2.0,-2.0,1650849390308320.0
-3.0,-2.0,-1.0,-4.0,-6.0,-9.0,-3.0,-2.0,1650849390308320.0
-1.0,0.0,4.0,3.0,2.0,11.0,5.0,0.0,1650849390310307.0
3.0,2.0,-2.0,-1.0,-3.0,-3.0,-1.0,0.0,1650849390310307.0
25.0,3.0,5.0,2.0,6.0,5.0,-1.0,-7.0,1650849390322283.0
-49.0,-19.0,-13.0,-1.0,-2.0,-2.0,3.0,2.0,1650849390322283.0
40.0,24.0,13.0,1.0,-1.0,-5.0,1.0,17.0,1650849390331232.0
-55.0,-6.0,0.0,1.0,3.0,8.0,2.0,-1.0,1650849390331232.0
6.0,-1.0,2.0,3.0,-1.0,-3.0,0.0,2.0,1650849390346205.0
11.0,-7.0,-2.0,0.0,-2.0,0.0,-3.0,-11.0,1650849390346205.0
1.0,-1.0,-8.0,-2.0,-7.0,-17.0,-4.0,-4.0,1650849390347188.0
13.0,10.0,14.0,3.0,6.0,24.0,2.0,2.0,1650849390347188.0
-21.0,-17.0,-24.0,-6.0,5.0,6.0,4.0,-1.0,1650849390368199.0
12.0,8.0,6.0,-6.0,-2.0,-14.0,-4.0,7.0,1650849390368199.0
-19.0,-14.0,-1.0,-3.0,-1.0,18.0,6.0,-2.0,1650849390370157.0
14.0,4.0,2.0,2.0,-9.0,-24.0,-7.0,-3.0,1650849390370157.0
-11.0,4.0,7.0,2.0,1.0,15.0,5.0,1.0,1650849390382162.0
12.0,3.0,3.0,-3.0,0.0,6.0,2.0,0.0,1650849390382162.0
-9.0,-5.0,-30.0,-7.0,-1.0,-6.0,-4.0,-4.0,1650849390391072.0
2.0,-9.0,-4.0,-2.0,1.0,-5.0,-2.0,-4.0,1650849390391072.0
6.0,5.0,6.0,1.0,-3.0,-7.0,-1.0,3.0,1650849390406030.0
-2.0,7.0,4.0,4.0,-7.0,-1.0,0.0,1.0,1650849390406030.0
-7.0,-6.0,6.0,2.0,5.0,-1.0,0.0,-2.0,1650849390407030.0
7.0,-9.0,-6.0,-2.0,3.0,5.0,1.0,2.0,1650849390407030.0
-5.0,5.0,-5.0,-3.0,-5.0,-7.0,-3.0,-1.0,1650849390428000.0
16.0,29.0,20.0,6.0,-1.0,-1.0,1.0,1.0,1650849390428000.0
-19.0,-31.0,-6.0,-3.0,-2.0,-12.0,-11.0,-10.0,1650849390429967.0
6.0,-4.0,-8.0,1.0,3.0,20.0,7.0,-5.0,1650849390429967.0
-8.0,17.0,28.0,8.0,3.0,-8.0,-11.0,-8.0,1650849390441966.0
-9.0,-58.0,-46.0,-32.0,-12.0,4.0,-10.0,-13.0,1650849390441966.0
26.0,42.0,26.0,21.0,4.0,-5.0,2.0,1.0,1650849390450910.0
-39.0,-75.0,-33.0,11.0,15.0,5.0,4.0,-16.0,1650849390450910.0
42.0,86.0,36.0,5.0,-7.0,-11.0,27.0,40.0,1650849390466239.0
33.0,-52.0,6.0,3.0,11.0,7.0,23.0,6.0,1650849390466239.0
-12.0,27.0,-20.0,-18.0,-11.0,2.0,-16.0,27.0,1650849390467846.0
-5.0,0.0,11.0,0.0,-1.0,1.0,-2.0,-37.0,1650849390467846.0
-41.0,-59.0,-24.0,-2.0,0.0,13.0,-14.0,-14.0,1650849390487771.0
14.0,103.0,27.0,22.0,20.0,17.0,14.0,-5.0,1650849390487771.0
16.0,-73.0,-20.0,-17.0,-6.0,4.0,33.0,14.0,1650849390489776.0
-3.0,18.0,9.0,4.0,-9.0,-10.0,-4.0,21.0,1650849390489776.0
-6.0,-16.0,12.0,11.0,15.0,5.0,2.0,-10.0,1650849390501763.0
1.0,9.0,-1.0,-4.0,-3.0,-9.0,-30.0,-13.0,1650849390501763.0
-17.0,-17.0,-16.0,-4.0,-5.0,6.0,-4.0,-17.0,1650849390516763.0
13.0,29.0,22.0,5.0,3.0,1.0,-4.0,2.0,1650849390516763.0
-10.0,-15.0,-18.0,-4.0,-2.0,-4.0,-7.0,-14.0,1650849390525697.0
-8.0,12.0,18.0,10.0,1.0,-4.0,-12.0,1.0,1650849390525697.0
-6.0,14.0,-6.0,0.0,0.0,4.0,29.0,17.0,1650849390527665.0
14.0,-57.0,-38.0,-17.0,-6.0,-6.0,-13.0,7.0,1650849390527665.0
11.0,79.0,57.0,21.0,11.0,0.0,-7.0,-4.0,1650849390548678.0
-17.0,-37.0,-47.0,-29.0,-18.0,-6.0,4.0,15.0,1650849390548678.0
2.0,9.0,13.0,5.0,1.0,-4.0,-6.0,-18.0,1650849390549615.0
13.0,32.0,23.0,3.0,-1.0,-2.0,12.0,42.0,1650849390549615.0
13.0,-42.0,-30.0,-7.0,-3.0,-1.0,-3.0,1.0,1650849390561603.0
-21.0,29.0,28.0,7.0,1.0,-6.0,-29.0,-17.0,1650849390561603.0
-19.0,3.0,0.0,0.0,2.0,5.0,37.0,15.0,1650849390570550.0
16.0,-10.0,-7.0,4.0,3.0,2.0,-3.0,13.0,1650849390570550.0
12.0,11.0,-2.0,-13.0,-4.0,-1.0,24.0,-13.0,1650849390585510.0
-21.0,-63.0,-6.0,7.0,1.0,2.0,7.0,22.0,1650849390585510.0
-2.0,-15.0,0.0,-3.0,-6.0,-21.0,-32.0,-25.0,1650849390599540.0
-1.0,36.0,8.0,2.0,5.0,15.0,-10.0,-10.0,1650849390599540.0
-12.0,-23.0,-17.0,-14.0,-14.0,-11.0,-12.0,-2.0,1650849390608477.0
9.0,-15.0,-9.0,3.0,4.0,-3.0,11.0,1.0,1650849390608477.0
-1.0,22.0,9.0,5.0,3.0,2.0,-13.0,-1.0,1650849390609467.0
-4.0,25.0,17.0,-4.0,-10.0,-14.0,1.0,-5.0,1650849390609467.0
5.0,-52.0,-30.0,-7.0,-2.0,1.0,-8.0,4.0,1650849390630391.0
12.0,73.0,20.0,3.0,8.0,3.0,5.0,2.0,1650849390630391.0
-2.0,17.0,8.0,3.0,-4.0,-2.0,-2.0,1.0,1650849390632386.0
0.0,0.0,-2.0,-4.0,5.0,-2.0,3.0,-5.0,1650849390632386.0
-8.0,-9.0,-17.0,-20.0,-14.0,-1.0,1.0,4.0,1650849390645378.0
-6.0,37.0,5.0,7.0,-11.0,-10.0,-5.0,-14.0,1650849390645378.0
9.0,-40.0,-1.0,1.0,15.0,11.0,-14.0,-6.0,1650849390647345.0
11.0,-4.0,2.0,-16.0,-21.0,-16.0,5.0,3.0,1650849390647345.0
2.0,-5.0,1.0,13.0,11.0,3.0,4.0,17.0,1650849390669416.0
-13.0,-16.0,-14.0,-8.0,-1.0,-13.0,-7.0,-9.0,1650849390669416.0
0.0,-3.0,3.0,0.0,-3.0,12.0,-3.0,-8.0,1650849390671412.0
-9.0,-1.0,-12.0,-2.0,0.0,4.0,-8.0,-18.0,1650849390671412.0
-1.0,-47.0,-2.0,-7.0,-6.0,-6.0,-2.0,6.0,1650849390691358.0
14.0,7.0,-3.0,0.0,1.0,0.0,15.0,7.0,1650849390691358.0
3.0,1.0,-1.0,4.0,3.0,-4.0,-3.0,4.0,1650849390692356.0
0.0,19.0,5.0,4.0,-3.0,-4.0,-14.0,-6.0,1650849390692356.0
-4.0,15.0,6.0,-3.0,-7.0,-2.0,-17.0,-28.0,1650849390705465.0
0.0,-9.0,-28.0,-8.0,-8.0,-8.0,20.0,15.0,1650849390705465.0
6.0,3.0,14.0,4.0,6.0,11.0,-8.0,-2.0,1650849390707463.0
-8.0,-11.0,0.0,-2.0,8.0,2.0,0.0,-6.0,1650849390707463.0
8.0,-9.0,-17.0,-7.0,-8.0,-6.0,-7.0,3.0,1650849390727951.0
3.0,27.0,21.0,6.0,1.0,2.0,-4.0,-4.0,1650849390727951.0
5.0,-32.0,-14.0,-13.0,-15.0,-9.0,1.0,-1.0,1650849390729881.0
-26.0,-22.0,-3.0,4.0,1.0,-5.0,4.0,1.0,1650849390729881.0
0.0,25.0,2.0,26.0,25.0,6.0,1.0,2.0,1650849390750837.0
1.0,-1.0,-1.0,-4.0,-4.0,-5.0,-4.0,-4.0,1650849390750837.0
-2.0,-7.0,3.0,-5.0,2.0,29.0,15.0,3.0,1650849390752823.0
9.0,41.0,10.0,1.0,-7.0,-7.0,0.0,1.0,1650849390752823.0
-6.0,-2.0,5.0,1.0,4.0,0.0,-2.0,-4.0,1650849390765818.0
1.0,-19.0,-9.0,-1.0,2.0,-3.0,-3.0,-1.0,1650849390765818.0
-1.0,18.0,14.0,7.0,3.0,-11.0,-5.0,-1.0,1650849390767799.0
-3.0,-15.0,-10.0,-6.0,-7.0,-1.0,1.0,-6.0,1650849390767799.0
0.0,6.0,-3.0,-7.0,-2.0,2.0,8.0,11.0,1650849390788735.0
5.0,5.0,21.0,7.0,8.0,5.0,-6.0,5.0,1650849390788735.0
-4.0,-6.0,-14.0,0.0,-5.0,-7.0,2.0,8.0,1650849390789721.0
1.0,-9.0,-4.0,-1.0,6.0,5.0,-12.0,-16.0,1650849390789721.0
-10.0,24.0,-2.0,-9.0,-16.0,-16.0,8.0,-6.0,1650849390810811.0
3.0,-47.0,8.0,6.0,-2.0,14.0,23.0,22.0,1650849390810811.0
10.0,64.0,26.0,9.0,10.0,0.0,-8.0,0.0,1650849390812806.0
-3.0,-53.0,-32.0,-7.0,-4.0,-9.0,1.0,1.0,1650849390812806.0
2.0,8.0,11.0,8.0,9.0,12.0,-9.0,-9.0,1650849390824839.0
14.0,5.0,-12.0,-5.0,-11.0,-3.0,-4.0,-6.0,1650849390824839.0
-21.0,6.0,-2.0,-7.0,-10.0,-19.0,-1.0,0.0,1650849390831821.0
3.0,10.0,14.0,7.0,8.0,20.0,0.0,-3.0,1650849390831821.0
2.0,3.0,-7.0,-3.0,2.0,-1.0,0.0,4.0,1650849390848736.0
-2.0,9.0,3.0,-2.0,-5.0,-7.0,-11.0,-15.0,1650849390848736.0
6.0,-16.0,-12.0,-3.0,-3.0,-8.0,4.0,1.0,1650849390849705.0
5.0,15.0,6.0,-1.0,-4.0,5.0,-2.0,1.0,1650849390849705.0
0.0,16.0,2.0,2.0,1.0,2.0,9.0,7.0,1650849390870727.0
-6.0,-7.0,7.0,2.0,2.0,1.0,-9.0,-8.0,1650849390870727.0
-4.0,-43.0,-16.0,-4.0,1.0,-1.0,-4.0,-4.0,1650849390872671.0
-1.0,18.0,2.0,-1.0,-2.0,-7.0,-6.0,-5.0,1650849390872671.0
2.0,15.0,7.0,1.0,-7.0,-1.0,11.0,6.0,1650849390884811.0
-4.0,-12.0,-7.0,1.0,3.0,3.0,0.0,0.0,1650849390884811.0
3.0,-10.0,-21.0,-1.0,0.0,3.0,-1.0,-3.0,1650849390891862.0
8.0,-18.0,5.0,1.0,0.0,2.0,15.0,13.0,1650849390891862.0
3.0,18.0,14.0,2.0,-2.0,-18.0,-15.0,-8.0,1650849390916030.0
-7.0,-8.0,-12.0,-7.0,2.0,23.0,2.0,-2.0,1650849390916030.0
-2.0,0.0,0.0,-3.0,-5.0,-7.0,-3.0,-2.0,1650849390917001.0
6.0,24.0,9.0,11.0,16.0,8.0,5.0,3.0,1650849390917001.0
0.0,-13.0,-13.0,3.0,6.0,7.0,8.0,10.0,1650849390930924.0
-10.0,-26.0,-3.0,-7.0,-6.0,-17.0,-11.0,-10.0,1650849390930924.0
7.0,54.0,13.0,7.0,3.0,5.0,3.0,1.0,1650849390931950.0
-7.0,6.0,-11.0,-17.0,-21.0,-24.0,-5.0,-5.0,1650849390931950.0
4.0,-21.0,-19.0,0.0,-4.0,0.0,-4.0,1.0,1650849390944972.0
6.0,12.0,0.0,1.0,13.0,19.0,11.0,-3.0,1650849390944972.0
-6.0,-20.0,11.0,1.0,-1.0,0.0,-6.0,-6.0,1650849390952022.0
20.0,48.0,1.0,5.0,9.0,-1.0,-1.0,-1.0,1650849390952022.0
-19.0,-25.0,8.0,-6.0,-7.0,-5.0,-6.0,-6.0,1650849390968133.0
11.0,-19.0,-14.0,-5.0,-4.0,-6.0,-4.0,-2.0,1650849390968133.0
-3.0,3.0,-1.0,1.0,-5.0,-1.0,-2.0,-3.0,1650849390970087.0
3.0,12.0,0.0,2.0,-1.0,-6.0,10.0,11.0,1650849390970087.0
2.0,-9.0,-1.0,-2.0,3.0,10.0,2.0,-1.0,1650849390991190.0
-4.0,11.0,-1.0,1.0,-6.0,-5.0,-3.0,-1.0,1650849390991190.0
0.0,-26.0,-4.0,0.0,10.0,4.0,-1.0,0.0,1650849390992156.0
1.0,-7.0,15.0,2.0,-6.0,-11.0,-8.0,3.0,1650849390992156.0
-10.0,-15.0,-10.0,4.0,11.0,5.0,-3.0,-9.0,1650849391005121.0
-4.0,-8.0,-3.0,-1.0,6.0,10.0,6.0,7.0,1650849391005121.0
2.0,3.0,-7.0,-6.0,-9.0,-13.0,-9.0,-4.0,1650849391012102.0
-8.0,7.0,12.0,-2.0,-6.0,5.0,6.0,-1.0,1650849391012102.0
9.0,32.0,13.0,1.0,0.0,-6.0,-4.0,4.0,1650849391028086.0
-7.0,-37.0,-1.0,7.0,0.0,-14.0,-1.0,-3.0,1650849391028086.0
-1.0,8.0,-5.0,-7.0,6.0,12.0,4.0,-3.0,1650849391030055.0
7.0,-10.0,-2.0,0.0,0.0,-1.0,-2.0,5.0,1650849391030055.0
-9.0,-22.0,3.0,-8.0,-11.0,-5.0,-7.0,-12.0,1650849391051000.0
6.0,20.0,-14.0,1.0,-4.0,-12.0,0.0,6.0,1650849391051000.0
3.0,3.0,2.0,-4.0,-1.0,1.0,14.0,13.0,1650849391051998.0
-3.0,-9.0,3.0,7.0,9.0,18.0,3.0,1.0,1650849391051998.0
-3.0,4.0,-3.0,-6.0,-9.0,-4.0,-2.0,-5.0,1650849391065651.0
-9.0,18.0,8.0,0.0,4.0,-5.0,-8.0,-2.0,1650849391065651.0
-6.0,-12.0,6.0,1.0,1.0,1.0,-6.0,-16.0,1650849391071704.0
-12.0,-20.0,-19.0,-9.0,-11.0,-8.0,-8.0,-6.0,1650849391071704.0
10.0,6.0,1.0,2.0,0.0,9.0,19.0,12.0,1650849391088748.0
1.0,-3.0,-3.0,-5.0,-1.0,-10.0,-5.0,4.0,1650849391088748.0
-3.0,40.0,-3.0,1.0,-4.0,-12.0,-13.0,-12.0,1650849391089741.0
-3.0,-51.0,5.0,3.0,14.0,36.0,19.0,4.0,1650849391089741.0
8.0,6.0,-14.0,-8.0,-9.0,-11.0,-18.0,-14.0,1650849391110800.0
0.0,-3.0,0.0,5.0,1.0,8.0,6.0,4.0,1650849391110800.0
4.0,12.0,8.0,1.0,-3.0,-7.0,-6.0,1.0,1650849391112815.0
3.0,-8.0,-3.0,-2.0,-1.0,-9.0,-4.0,-4.0,1650849391112815.0
0.0,6.0,-2.0,-8.0,0.0,-1.0,0.0,3.0,1650849391124791.0
2.0,-10.0,14.0,12.0,1.0,0.0,-2.0,-5.0,1650849391124791.0
-2.0,21.0,-12.0,-2.0,3.0,25.0,12.0,11.0,1650849391133916.0
10.0,1.0,-8.0,17.0,17.0,-6.0,-4.0,0.0,1650849391133916.0
-4.0,-2.0,4.0,-7.0,-6.0,1.0,-9.0,-2.0,1650849391147881.0
-14.0,-3.0,6.0,-7.0,-4.0,-19.0,14.0,2.0,1650849391147881.0
10.0,-3.0,-10.0,-5.0,-7.0,4.0,-12.0,-5.0,1650849391149876.0
-9.0,-21.0,-7.0,-11.0,-6.0,-5.0,6.0,-2.0,1650849391149876.0
-1.0,-4.0,-2.0,6.0,5.0,-6.0,1.0,1.0,1650849391170927.0
5.0,36.0,8.0,-3.0,0.0,12.0,-13.0,-5.0,1650849391170927.0
-11.0,-67.0,-9.0,-1.0,-7.0,-12.0,8.0,8.0,1650849391171925.0
10.0,41.0,12.0,6.0,-1.0,8.0,5.0,0.0,1650849391171925.0
-7.0,-6.0,5.0,2.0,11.0,4.0,-7.0,-8.0,1650849391184921.0
0.0,-4.0,-10.0,2.0,-4.0,2.0,1.0,0.0,1650849391184921.0
3.0,-4.0,5.0,0.0,2.0,-13.0,0.0,-1.0,1650849391192901.0
17.0,7.0,3.0,-3.0,-10.0,16.0,1.0,0.0,1650849391192901.0
-15.0,-34.0,-33.0,-2.0,-3.0,-14.0,0.0,-3.0,1650849391207889.0
9.0,11.0,0.0,0.0,4.0,7.0,1.0,4.0,1650849391207889.0
-1.0,8.0,7.0,2.0,2.0,11.0,3.0,4.0,1650849391209857.0
2.0,11.0,-1.0,-6.0,-1.0,-16.0,-1.0,-1.0,1650849391209857.0
7.0,-3.0,10.0,4.0,-2.0,1.0,0.0,1.0,1650849391230815.0
-23.0,-21.0,-19.0,-11.0,-12.0,-6.0,-5.0,-5.0,1650849391230815.0
4.0,15.0,14.0,7.0,3.0,-8.0,-4.0,-7.0,1650849391232796.0
-12.0,-2.0,-13.0,-9.0,-9.0,-3.0,-2.0,-1.0,1650849391232796.0
3.0,-2.0,5.0,4.0,6.0,13.0,7.0,7.0,1650849391244791.0
-4.0,9.0,0.0,-4.0,3.0,-5.0,-8.0,-7.0,1650849391244791.0
-2.0,-12.0,-2.0,-1.0,-3.0,-4.0,12.0,9.0,1650849391253739.0
-7.0,5.0,-14.0,-3.0,-7.0,-6.0,-8.0,-1.0,1650849391253739.0
-6.0,10.0,13.0,4.0,10.0,4.0,1.0,-3.0,1650849391267958.0
18.0,14.0,-8.0,0.0,-3.0,5.0,5.0,12.0,1650849391267958.0
-12.0,6.0,0.0,-17.0,-12.0,-4.0,-9.0,-16.0,1650849391269884.0
-3.0,-26.0,-16.0,-3.0,1.0,-7.0,-1.0,4.0,1650849391269884.0
-5.0,-8.0,2.0,3.0,-3.0,0.0,-8.0,-6.0,1650849391290852.0
0.0,5.0,2.0,-2.0,-2.0,-14.0,-3.0,-1.0,1650849391290852.0
1.0,0.0,4.0,2.0,3.0,17.0,2.0,-3.0,1650849391292834.0
-4.0,0.0,-9.0,-8.0,-2.0,-16.0,-5.0,-2.0,1650849391292834.0
0.0,5.0,7.0,2.0,-7.0,0.0,7.0,6.0,1650849391304819.0
-2.0,-12.0,8.0,5.0,7.0,13.0,0.0,-3.0,1650849391304819.0
3.0,5.0,-3.0,4.0,3.0,-4.0,0.0,1.0,1650849391313768.0
-3.0,-20.0,-1.0,-5.0,-10.0,-21.0,-5.0,0.0,1650849391313768.0
-21.0,13.0,-19.0,-1.0,1.0,14.0,3.0,-1.0,1650849391328755.0
3.0,-15.0,-3.0,-4.0,-10.0,-11.0,-1.0,-2.0,1650849391328755.0
6.0,-4.0,2.0,4.0,1.0,12.0,0.0,0.0,1650849391329725.0
-2.0,29.0,14.0,5.0,8.0,4.0,4.0,1.0,1650849391329725.0
14.0,29.0,11.0,-2.0,-2.0,-9.0,0.0,3.0,1650849391350734.0
-4.0,-23.0,-9.0,-1.0,0.0,5.0,-1.0,-1.0,1650849391350734.0
-12.0,-17.0,-12.0,-5.0,-10.0,-22.0,-14.0,-12.0,1650849391352663.0
11.0,27.0,15.0,8.0,7.0,28.0,11.0,16.0,1650849391352663.0
12.0,-7.0,-2.0,5.0,12.0,5.0,18.0,11.0,1650849391364631.0
1.0,-11.0,11.0,7.0,2.0,2.0,0.0,-3.0,1650849391364631.0
-5.0,-4.0,-8.0,-3.0,1.0,-10.0,-8.0,-5.0,1650849391373606.0
0.0,22.0,8.0,2.0,-6.0,0.0,-1.0,-1.0,1650849391373606.0
4.0,-1.0,-2.0,-4.0,-4.0,-2.0,-2.0,-1.0,1650849391388102.0
-2.0,4.0,-4.0,-4.0,3.0,4.0,1.0,-1.0,1650849391388102.0
-3.0,-7.0,2.0,2.0,-5.0,-13.0,0.0,5.0,1650849391390069.0
-7.0,-4.0,-5.0,-4.0,0.0,1.0,-12.0,-11.0,1650849391390069.0
1.0,9.0,-1.0,-7.0,0.0,9.0,5.0,4.0,1650849391411041.0
7.0,-32.0,5.0,12.0,8.0,1.0,-3.0,-1.0,1650849391411041.0
3.0,36.0,-4.0,-5.0,-2.0,-9.0,13.0,6.0,1650849391412011.0
-4.0,-12.0,-7.0,-2.0,0.0,5.0,-8.0,-6.0,1650849391412011.0
3.0,19.0,10.0,1.0,-1.0,-5.0,-7.0,-3.0,1650849391424006.0
-12.0,33.0,4.0,-6.0,-8.0,-2.0,-3.0,-7.0,1650849391424006.0
20.0,-8.0,5.0,5.0,3.0,5.0,-1.0,1.0,1650849391433934.0
-14.0,-11.0,4.0,2.0,3.0,-7.0,-1.0,-2.0,1650849391433934.0
14.0,-13.0,-14.0,-7.0,-8.0,-7.0,-3.0,-6.0,1650849391447899.0
2.0,15.0,6.0,3.0,-1.0,-9.0,0.0,1.0,1650849391447899.0
10.0,10.0,3.0,0.0,-6.0,15.0,5.0,2.0,1650849391449898.0
1.0,-4.0,-2.0,-1.0,6.0,4.0,3.0,3.0,1650849391449898.0
1.0,-6.0,-1.0,2.0,-1.0,5.0,2.0,1.0,1650849391470839.0
-12.0,-1.0,4.0,0.0,11.0,-5.0,4.0,4.0,1650849391470839.0
-8.0,-1.0,2.0,1.0,5.0,0.0,-7.0,-3.0,1650849391472866.0
9.0,-6.0,-1.0,-1.0,2.0,14.0,11.0,11.0,1650849391472866.0
-13.0,-42.0,-26.0,-12.0,-15.0,-19.0,-7.0,-7.0,1650849391484836.0
-1.0,-9.0,-1.0,2.0,-1.0,16.0,0.0,-1.0,1650849391484836.0
-2.0,1.0,7.0,7.0,7.0,-1.0,0.0,2.0,1650849391493870.0
1.0,15.0,11.0,6.0,7.0,0.0,2.0,-2.0,1650849391493870.0
0.0,7.0,11.0,0.0,-6.0,-11.0,-2.0,2.0,1650849391507955.0
-3.0,1.0,-7.0,-8.0,-15.0,-17.0,-1.0,-2.0,1650849391507955.0
6.0,3.0,-2.0,0.0,22.0,37.0,7.0,0.0,1650849391513939.0
1.0,-7.0,-1.0,10.0,3.0,-14.0,1.0,-2.0,1650849391513939.0
-7.0,-4.0,5.0,-4.0,-2.0,1.0,-5.0,-4.0,1650849391530894.0
19.0,8.0,0.0,-2.0,-10.0,-16.0,-5.0,-3.0,1650849391530894.0
-24.0,-13.0,-19.0,-6.0,-4.0,4.0,-3.0,-1.0,1650849391531892.0
1.0,-7.0,5.0,-3.0,-8.0,-15.0,-4.0,-1.0,1650849391531892.0
23.0,14.0,0.0,8.0,17.0,21.0,7.0,5.0,1650849391544885.0
25.0,-4.0,5.0,0.0,5.0,11.0,-11.0,5.0,1650849391544885.0
-6.0,-1.0,0.0,-3.0,-16.0,-8.0,3.0,-6.0,1650849391553852.0
-12.0,-10.0,7.0,-4.0,-4.0,-5.0,10.0,-4.0,1650849391553852.0
-5.0,-13.0,-14.0,-4.0,-4.0,-8.0,-8.0,-2.0,1650849391568798.0
10.0,17.0,11.0,6.0,8.0,3.0,3.0,-2.0,1650849391568798.0
1.0,-1.0,1.0,2.0,-3.0,-9.0,-10.0,5.0,1650849391569791.0
6.0,-1.0,3.0,-3.0,-3.0,-1.0,-9.0,-6.0,1650849391569791.0
-4.0,-29.0,-6.0,2.0,5.0,0.0,5.0,-1.0,1650849391590855.0
-19.0,-12.0,-6.0,-2.0,1.0,0.0,-3.0,-4.0,1650849391590855.0
2.0,13.0,6.0,1.0,-1.0,0.0,0.0,-2.0,1650849391591871.0
-15.0,-5.0,-3.0,-6.0,-10.0,-10.0,3.0,0.0,1650849391591871.0
23.0,8.0,0.0,3.0,7.0,8.0,-1.0,-1.0,1650849391612938.0
-44.0,-16.0,-1.0,-2.0,6.0,10.0,8.0,0.0,1650849391612938.0
3.0,5.0,-9.0,0.0,-8.0,-16.0,-2.0,0.0,1650849391614906.0
14.0,-4.0,-4.0,-6.0,-8.0,-24.0,-6.0,-1.0,1650849391614906.0
-2.0,4.0,-8.0,6.0,5.0,24.0,0.0,0.0,1650849391627898.0
-12.0,2.0,8.0,-8.0,1.0,6.0,2.0,-2.0,1650849391627898.0
35.0,1.0,-19.0,-5.0,-5.0,-3.0,4.0,4.0,1650849391629867.0
-35.0,-5.0,2.0,6.0,4.0,4.0,-1.0,-7.0,1650849391629867.0
-6.0,2.0,14.0,0.0,-7.0,-16.0,-4.0,-2.0,1650849391650818.0
7.0,14.0,2.0,-1.0,-5.0,3.0,3.0,-1.0,1650849391650818.0
3.0,-5.0,5.0,2.0,5.0,1.0,-1.0,1.0,1650849391652823.0
8.0,-10.0,-17.0,-8.0,-5.0,-1.0,-5.0,-2.0,1650849391652823.0
-9.0,11.0,19.0,9.0,1.0,-5.0,2.0,3.0,1650849391673775.0
5.0,9.0,1.0,-3.0,0.0,4.0,0.0,0.0,1650849391673775.0
-13.0,-29.0,-14.0,-7.0,-7.0,-24.0,-10.0,-5.0,1650849391675743.0
10.0,5.0,-10.0,0.0,8.0,41.0,13.0,6.0,1650849391675743.0
-5.0,-3.0,-12.0,-13.0,5.0,-2.0,2.0,2.0,1650849391687854.0
10.0,7.0,24.0,13.0,-3.0,-2.0,-1.0,0.0,1650849391687854.0
0.0,3.0,-15.0,-3.0,-3.0,-15.0,-2.0,-2.0,1650849391689836.0
-40.0,-8.0,13.0,2.0,-7.0,-22.0,-5.0,-4.0,1650849391689836.0
4.0,3.0,-7.0,-1.0,-4.0,17.0,2.0,-1.0,1650849391710766.0
8.0,-2.0,-3.0,-5.0,4.0,2.0,1.0,2.0,1650849391710766.0
-4.0,0.0,-6.0,0.0,11.0,14.0,4.0,1.0,1650849391712781.0
11.0,-3.0,2.0,0.0,4.0,1.0,-3.0,0.0,1650849391712781.0
-5.0,5.0,-6.0,-6.0,-11.0,-12.0,-1.0,-1.0,1650849391733806.0
-5.0,10.0,2.0,8.0,-9.0,-13.0,-4.0,-4.0,1650849391733806.0
-4.0,7.0,17.0,-10.0,-1.0,6.0,1.0,2.0,1650849391734815.0
15.0,-11.0,4.0,0.0,-1.0,-7.0,-3.0,2.0,1650849391734815.0
-9.0,6.0,-4.0,-1.0,3.0,14.0,4.0,0.0,1650849391747771.0
20.0,-28.0,-26.0,4.0,5.0,5.0,1.0,-1.0,1650849391747771.0
-16.0,-6.0,22.0,3.0,-10.0,-7.0,-2.0,-4.0,1650849391754781.0
28.0,15.0,-28.0,-3.0,3.0,5.0,-3.0,0.0,1650849391754781.0
-50.0,-16.0,1.0,-1.0,3.0,-6.0,-2.0,-5.0,1650849391770751.0
-2.0,-6.0,-41.0,4.0,-4.0,-8.0,-2.0,-2.0,1650849391770751.0
3.0,7.0,27.0,-5.0,2.0,16.0,2.0,1.0,1650849391772704.0
4.0,-5.0,-19.0,-14.0,-12.0,-10.0,-5.0,-3.0,1650849391772704.0
15.0,15.0,19.0,27.0,-4.0,-8.0,-2.0,-1.0,1650849391794904.0
3.0,-1.0,14.0,-17.0,15.0,19.0,5.0,0.0,1650849391794904.0
-3.0,-3.0,-7.0,4.0,-6.0,-16.0,-5.0,-7.0,1650849391795875.0
3.0,4.0,3.0,18.0,2.0,4.0,-2.0,-3.0,1650849391795875.0
6.0,3.0,6.0,-5.0,-2.0,-10.0,0.0,1.0,1650849391807871.0
-8.0,-7.0,-25.0,-5.0,2.0,6.0,3.0,1.0,1650849391807871.0
13.0,-1.0,-9.0,0.0,6.0,1.0,-2.0,0.0,1650849391814825.0
-1.0,5.0,9.0,-9.0,1.0,8.0,1.0,3.0,1650849391814825.0
0.0,-41.0,-25.0,-6.0,-12.0,-15.0,-5.0,-1.0,1650849391830787.0
-5.0,11.0,33.0,-1.0,-8.0,-14.0,-5.0,-1.0,1650849391830787.0
-4.0,8.0,12.0,13.0,10.0,10.0,2.0,0.0,1650849391832789.0
-1.0,1.0,-15.0,3.0,0.0,17.0,3.0,2.0,1650849391832789.0
-2.0,5.0,11.0,-4.0,2.0,0.0,-1.0,0.0,1650849391853771.0
-3.0,0.0,-3.0,-8.0,-5.0,-11.0,-4.0,-2.0,1650849391853771.0
-3.0,-7.0,-15.0,0.0,0.0,5.0,1.0,1.0,1650849391854771.0
-28.0,12.0,19.0,6.0,3.0,-9.0,-2.0,-4.0,1650849391854771.0
33.0,10.0,-11.0,-3.0,-3.0,-1.0,0.0,1.0,1650849391867803.0
-4.0,-11.0,22.0,1.0,-5.0,13.0,2.0,3.0,1650849391867803.0
-2.0,8.0,2.0,4.0,5.0,-4.0,-4.0,1.0,1650849391874746.0
4.0,-13.0,-18.0,-3.0,0.0,-2.0,-2.0,-1.0,1650849391874746.0
-1.0,3.0,3.0,6.0,5.0,0.0,-1.0,-2.0,1650849391890409.0
-7.0,-9.0,-10.0,-4.0,-7.0,-9.0,-1.0,2.0,1650849391890409.0
3.0,-1.0,6.0,3.0,-3.0,4.0,2.0,1.0,1650849391892374.0
11.0,5.0,29.0,5.0,1.0,-1.0,1.0,0.0,1650849391892374.0
-7.0,0.0,-7.0,-14.0,-4.0,-2.0,-3.0,-2.0,1650849391913604.0
4.0,-1.0,-11.0,11.0,8.0,14.0,5.0,2.0,1650849391913604.0
-3.0,-2.0,5.0,-1.0,-1.0,-6.0,0.0,-1.0,1650849391914602.0
3.0,-7.0,-19.0,-6.0,-3.0,0.0,0.0,0.0,1650849391914602.0
-7.0,5.0,11.0,2.0,-3.0,-12.0,-2.0,-1.0,1650849391927594.0
4.0,6.0,-5.0,-1.0,2.0,-6.0,-2.0,0.0,1650849391927594.0
3.0,14.0,-3.0,-8.0,0.0,13.0,5.0,1.0,1650849391934897.0
-4.0,-33.0,-7.0,-8.0,-3.0,-11.0,-3.0,-4.0,1650849391934897.0
-2.0,14.0,11.0,11.0,2.0,5.0,1.0,0.0,1650849391950861.0
-3.0,-6.0,-7.0,-7.0,-8.0,-10.0,-3.0,-2.0,1650849391950861.0
22.0,0.0,-13.0,-5.0,-2.0,0.0,0.0,-2.0,1650849391952861.0
-15.0,12.0,19.0,5.0,0.0,0.0,1.0,-2.0,1650849391952861.0
20.0,3.0,-24.0,-4.0,-4.0,-5.0,0.0,1.0,1650849391972797.0
-8.0,-12.0,7.0,10.0,10.0,11.0,1.0,0.0,1650849391972797.0
4.0,10.0,-6.0,-3.0,-10.0,-19.0,-3.0,-2.0,1650849391974793.0
-5.0,0.0,3.0,-3.0,9.0,18.0,3.0,2.0,1650849391974793.0
7.0,-1.0,4.0,-4.0,1.0,3.0,3.0,0.0,1650849391995756.0
-1.0,7.0,-7.0,-1.0,-6.0,-9.0,-2.0,-2.0,1650849391995756.0
-16.0,5.0,11.0,1.0,-11.0,-10.0,-3.0,0.0,1650849391997732.0
11.0,-17.0,7.0,2.0,9.0,9.0,1.0,2.0,1650849391997732.0
-13.0,9.0,2.0,0.0,6.0,6.0,1.0,-1.0,1650849392010696.0
9.0,-1.0,-9.0,-2.0,-3.0,1.0,-1.0,1.0,1650849392010696.0
-9.0,-10.0,-3.0,-1.0,1.0,-5.0,-1.0,-1.0,1650849392012691.0
-2.0,17.0,7.0,3.0,-1.0,-1.0,1.0,4.0,1650849392012691.0
-3.0,8.0,27.0,7.0,-7.0,-24.0,-8.0,-4.0,1650849392033644.0
-9.0,-28.0,-26.0,-4.0,4.0,43.0,12.0,5.0,1650849392033644.0
5.0,4.0,4.0,2.0,4.0,1.0,-1.0,0.0,1650849392034632.0
9.0,21.0,-8.0,-3.0,-5.0,-6.0,-1.0,0.0,1650849392034632.0
-34.0,-24.0,-7.0,-6.0,1.0,2.0,1.0,0.0,1650849392047498.0
7.0,11.0,10.0,-3.0,-14.0,-31.0,-8.0,-3.0,1650849392047498.0
-4.0,-4.0,3.0,6.0,5.0,23.0,1.0,0.0,1650849392054479.0
-1.0,-12.0,-8.0,-3.0,-6.0,-6.0,0.0,-2.0,1650849392054479.0
6.0,5.0,1.0,2.0,9.0,7.0,1.0,3.0,1650849392070579.0
0.0,14.0,0.0,-3.0,-11.0,-20.0,-5.0,-3.0,1650849392070579.0
-3.0,-32.0,-12.0,3.0,4.0,8.0,1.0,0.0,1650849392072509.0
4.0,36.0,14.0,2.0,5.0,2.0,-2.0,-2.0,1650849392072509.0
6.0,-11.0,6.0,-3.0,2.0,7.0,2.0,0.0,1650849392093735.0
-8.0,-2.0,-17.0,-3.0,-4.0,-8.0,-2.0,-1.0,1650849392093735.0
-3.0,0.0,9.0,-5.0,-4.0,-8.0,0.0,-1.0,1650849392094741.0
-2.0,-6.0,-2.0,5.0,-5.0,-5.0,-1.0,-2.0,1650849392094741.0
5.0,5.0,-9.0,-5.0,2.0,4.0,1.0,0.0,1650849392106779.0
-4.0,-12.0,-9.0,8.0,5.0,4.0,0.0,-2.0,1650849392106779.0
-4.0,8.0,2.0,2.0,3.0,-6.0,0.0,-1.0,1650849392115858.0
9.0,-3.0,6.0,-8.0,-7.0,-2.0,1.0,3.0,1650849392115858.0
-27.0,-6.0,-3.0,-3.0,-7.0,-11.0,-3.0,-2.0,1650849392130971.0
5.0,2.0,-6.0,-5.0,9.0,19.0,-1.0,0.0,1650849392130971.0
2.0,-6.0,-9.0,-7.0,-8.0,-4.0,-1.0,-2.0,1650849392131969.0
1.0,7.0,1.0,11.0,0.0,2.0,0.0,0.0,1650849392131969.0
8.0,-34.0,-3.0,3.0,14.0,6.0,2.0,3.0,1650849392153749.0
1.0,17.0,7.0,-4.0,3.0,3.0,0.0,-1.0,1650849392153749.0
-7.0,-3.0,0.0,-1.0,2.0,-2.0,-2.0,1.0,1650849392154751.0
-3.0,-3.0,-7.0,-10.0,-6.0,-6.0,-1.0,-1.0,1650849392154751.0
4.0,7.0,-2.0,-1.0,-12.0,-10.0,-5.0,-3.0,1650849392166717.0
-2.0,3.0,10.0,6.0,4.0,-2.0,-2.0,-1.0,1650849392166717.0
4.0,-7.0,0.0,0.0,-1.0,-1.0,0.0,1.0,1650849392175651.0
-3.0,11.0,-4.0,-2.0,2.0,-1.0,-1.0,-1.0,1650849392175651.0
3.0,-3.0,-3.0,-3.0,-8.0,15.0,2.0,0.0,1650849392190742.0
-31.0,0.0,4.0,-1.0,7.0,0.0,0.0,0.0,1650849392190742.0
6.0,24.0,6.0,0.0,-4.0,1.0,-1.0,0.0,1650849392192720.0
-2.0,-19.0,-4.0,-1.0,-5.0,-8.0,-3.0,-3.0,1650849392192720.0
-2.0,-1.0,-11.0,0.0,9.0,7.0,0.0,-1.0,1650849392212909.0
8.0,19.0,20.0,1.0,-10.0,-14.0,-4.0,-2.0,1650849392212909.0
-3.0,-6.0,-11.0,-3.0,-6.0,-4.0,-2.0,-1.0,1650849392214877.0
-3.0,-5.0,8.0,3.0,19.0,25.0,8.0,4.0,1650849392214877.0
8.0,3.0,2.0,-4.0,-13.0,-15.0,-4.0,-2.0,1650849392226994.0
5.0,6.0,3.0,2.0,0.0,3.0,0.0,1.0,1650849392226994.0
-6.0,-42.0,-15.0,-5.0,8.0,-2.0,-1.0,-2.0,1650849392235609.0
5.0,-3.0,-3.0,-2.0,-8.0,-8.0,-2.0,0.0,1650849392235609.0
-2.0,10.0,11.0,3.0,5.0,7.0,1.0,-1.0,1650849392250582.0
3.0,-5.0,-2.0,-8.0,-12.0,-22.0,-1.0,-1.0,1650849392250582.0
-3.0,15.0,3.0,2.0,-3.0,8.0,1.0,0.0,1650849392252593.0
-2.0,0.0,-5.0,5.0,11.0,7.0,1.0,2.0,1650849392252593.0
0.0,-2.0,-3.0,-3.0,3.0,-10.0,-3.0,0.0,1650849392273529.0
1.0,0.0,2.0,1.0,1.0,11.0,0.0,1.0,1650849392273529.0
-2.0,10.0,1.0,-2.0,-2.0,0.0,-1.0,-1.0,1650849392274524.0
-3.0,-26.0,-16.0,-10.0,-8.0,-4.0,-2.0,-2.0,1650849392274524.0
-4.0,2.0,-1.0,0.0,-7.0,-18.0,-4.0,-4.0,1650849392286894.0
10.0,1.0,3.0,3.0,2.0,11.0,1.0,3.0,1650849392286894.0
0.0,19.0,12.0,8.0,4.0,4.0,0.0,-2.0,1650849392303087.0
-1.0,3.0,-5.0,-4.0,-13.0,-26.0,-9.0,-2.0,1650849392303087.0
1.0,-9.0,-6.0,3.0,9.0,27.0,1.0,0.0,1650849392311069.0
0.0,4.0,3.0,-1.0,1.0,2.0,3.0,-1.0,1650849392311069.0
1.0,5.0,18.0,0.0,0.0,-6.0,0.0,0.0,1650849392312066.0
-4.0,6.0,-24.0,-4.0,-6.0,-9.0,-2.0,-3.0,1650849392312066.0
0.0,-28.0,2.0,3.0,3.0,-5.0,-2.0,0.0,1650849392332013.0
-1.0,3.0,0.0,1.0,1.0,0.0,-1.0,-1.0,1650849392332013.0
-1.0,0.0,0.0,0.0,-3.0,-7.0,-3.0,-2.0,1650849392340994.0
0.0,-1.0,3.0,1.0,-1.0,7.0,-1.0,-1.0,1650849392340994.0
-1.0,13.0,-3.0,-7.0,-8.0,1.0,1.0,1.0,1650849392346973.0
-1.0,-8.0,-4.0,-1.0,0.0,-13.0,-1.0,-1.0,1650849392346973.0
-3.0,-7.0,-5.0,1.0,9.0,16.0,4.0,0.0,1650849392355949.0
-4.0,-8.0,-2.0,-2.0,-8.0,-2.0,-3.0,-3.0,1650849392355949.0
4.0,7.0,4.0,3.0,0.0,4.0,2.0,2.0,1650849392370910.0
-1.0,-2.0,-5.0,-1.0,2.0,-1.0,-1.0,-1.0,1650849392370910.0
0.0,2.0,-5.0,-4.0,-12.0,-28.0,-7.0,0.0,1650849392371933.0
-3.0,-5.0,1.0,0.0,11.0,17.0,-1.0,-1.0,1650849392371933.0
1.0,9.0,5.0,-1.0,-7.0,7.0,5.0,3.0,1650849392392789.0
0.0,0.0,-6.0,-4.0,-1.0,-14.0,-3.0,-2.0,1650849392392789.0
1.0,-9.0,1.0,2.0,-3.0,9.0,3.0,0.0,1650849392394756.0
3.0,9.0,8.0,9.0,23.0,6.0,1.0,-1.0,1650849392394756.0
-1.0,0.0,-5.0,-5.0,-15.0,-19.0,-5.0,-2.0,1650849392406750.0
-3.0,-6.0,-5.0,-3.0,-2.0,7.0,-1.0,-1.0,1650849392406750.0
-1.0,-7.0,-9.0,-6.0,-5.0,-3.0,0.0,-1.0,1650849392421683.0
1.0,-3.0,0.0,-5.0,-13.0,-17.0,-1.0,1.0,1650849392421683.0
2.0,21.0,5.0,6.0,9.0,22.0,3.0,1.0,1650849392430691.0
-6.0,-15.0,7.0,-8.0,-8.0,-10.0,-1.0,-4.0,1650849392430691.0
-1.0,-3.0,-6.0,-2.0,4.0,5.0,0.0,0.0,1650849392432655.0
0.0,1.0,2.0,0.0,-9.0,-3.0,0.0,-1.0,1650849392432655.0
-3.0,-1.0,-1.0,-5.0,5.0,2.0,-3.0,-3.0,1650849392454135.0
1.0,-4.0,2.0,5.0,0.0,-5.0,0.0,1.0,1650849392454135.0
-1.0,1.0,0.0,-1.0,7.0,17.0,-1.0,1.0,1650849392459630.0
1.0,9.0,4.0,-4.0,-12.0,-11.0,-4.0,-1.0,1650849392459630.0
-2.0,-11.0,-1.0,-1.0,-10.0,-11.0,0.0,0.0,1650849392466613.0
4.0,3.0,0.0,5.0,22.0,23.0,4.0,1.0,1650849392466613.0
2.0,-4.0,-5.0,-4.0,-10.0,-9.0,-1.0,0.0,1650849392475588.0
-2.0,4.0,0.0,2.0,7.0,6.0,2.0,0.0,1650849392475588.0
0.0,1.0,3.0,-2.0,-2.0,-5.0,-1.0,-2.0,1650849392490548.0
1.0,-5.0,-8.0,-3.0,-5.0,1.0,-3.0,0.0,1650849392490548.0
-1.0,3.0,3.0,2.0,-2.0,-6.0,2.0,0.0,1650849392492543.0
0.0,-1.0,2.0,1.0,-2.0,2.0,0.0,0.0,1650849392492543.0
0.0,1.0,0.0,2.0,4.0,-2.0,-1.0,0.0,1650849392513486.0
0.0,3.0,-5.0,-7.0,-7.0,-4.0,-1.0,-1.0,1650849392513486.0
-2.0,-7.0,-7.0,-5.0,-1.0,-4.0,-2.0,-1.0,1650849392514484.0
-2.0,-2.0,-4.0,1.0,3.0,11.0,3.0,0.0,1650849392514484.0
-2.0,-7.0,-3.0,3.0,-3.0,-7.0,-1.0,0.0,1650849392535496.0
0.0,21.0,8.0,2.0,3.0,-5.0,-3.0,-1.0,1650849392535496.0
0.0,-7.0,-1.0,-1.0,-4.0,-3.0,-4.0,-1.0,1650849392537423.0
0.0,-3.0,0.0,2.0,-2.0,3.0,5.0,0.0,1650849392537423.0
0.0,-5.0,-12.0,-4.0,6.0,1.0,1.0,0.0,1650849392550400.0
-1.0,25.0,13.0,-4.0,-6.0,-5.0,-2.0,-1.0,1650849392550400.0
-5.0,-29.0,-9.0,0.0,-5.0,-20.0,-4.0,-3.0,1650849392552383.0
-1.0,-2.0,5.0,9.0,5.0,2.0,-3.0,0.0,1650849392552383.0
2.0,1.0,1.0,0.0,9.0,21.0,8.0,3.0,1650849392573355.0
0.0,-5.0,-5.0,1.0,-9.0,-3.0,1.0,3.0,1650849392573355.0
2.0,16.0,6.0,1.0,4.0,-3.0,1.0,1.0,1650849392574324.0
-3.0,-10.0,-9.0,-10.0,-2.0,2.0,-3.0,-2.0,1650849392574324.0
-2.0,-5.0,-4.0,-2.0,-5.0,-9.0,-3.0,0.0,1650849392595900.0
-1.0,-2.0,-1.0,-3.0,-4.0,2.0,-2.0,-2.0,1650849392595900.0
-1.0,0.0,-3.0,5.0,-5.0,-3.0,-1.0,0.0,1650849392596870.0
0.0,-6.0,-2.0,3.0,10.0,1.0,0.0,1.0,1650849392596870.0
-1.0,0.0,-3.0,3.0,-3.0,-9.0,-4.0,-1.0,1650849392609863.0
-2.0,-5.0,-1.0,-6.0,-4.0,5.0,0.0,-1.0,1650849392609863.0
-1.0,6.0,5.0,-7.0,1.0,6.0,3.0,-1.0,1650849392618813.0
3.0,4.0,6.0,9.0,9.0,-1.0,3.0,1.0,1650849392618813.0
1.0,8.0,1.0,-2.0,-6.0,-15.0,-4.0,-1.0,1650849392632899.0
-4.0,-23.0,-7.0,1.0,-2.0,7.0,-2.0,-2.0,1650849392632899.0
1.0,21.0,11.0,6.0,0.0,5.0,1.0,0.0,1650849392634895.0
-1.0,0.0,-2.0,-7.0,-4.0,-1.0,0.0,1.0,1650849392634895.0
0.0,9.0,-4.0,-5.0,-4.0,-5.0,-2.0,-1.0,1650849392655839.0
-1.0,-2.0,-2.0,3.0,-4.0,-10.0,-2.0,0.0,1650849392655839.0
0.0,-8.0,-5.0,0.0,3.0,0.0,1.0,2.0,1650849392657846.0
1.0,19.0,5.0,1.0,2.0,15.0,3.0,0.0,1650849392657846.0
-5.0,-18.0,-2.0,-2.0,2.0,-3.0,0.0,-5.0,1650849392669868.0
0.0,14.0,2.0,-1.0,-4.0,-4.0,1.0,-2.0,1650849392669868.0
0.0,-4.0,-2.0,-1.0,1.0,12.0,2.0,1.0,1650849392676782.0
1.0,-1.0,-2.0,-3.0,-4.0,-21.0,-7.0,-3.0,1650849392676782.0
1.0,4.0,3.0,-7.0,-9.0,4.0,2.0,-1.0,1650849392693288.0
-1.0,-3.0,-4.0,8.0,0.0,-18.0,-4.0,-2.0,1650849392693288.0
0.0,1.0,-1.0,13.0,33.0,43.0,8.0,6.0,1650849392695282.0
-1.0,-2.0,0.0,-9.0,-17.0,-18.0,-2.0,-1.0,1650849392695282.0
0.0,-2.0,2.0,1.0,1.0,8.0,-2.0,1.0,1650849392715282.0
0.0,-8.0,-3.0,-8.0,-6.0,-8.0,0.0,-1.0,1650849392715282.0
-1.0,6.0,-6.0,-4.0,-14.0,-28.0,-8.0,-4.0,1650849392717271.0
0.0,-5.0,-2.0,6.0,13.0,22.0,3.0,1.0,1650849392717271.0
0.0,-5.0,2.0,4.0,1.0,2.0,1.0,0.0,1650849392738330.0
-1.0,6.0,-3.0,-7.0,-3.0,5.0,1.0,-1.0,1650849392738330.0
-1.0,-12.0,1.0,-3.0,-3.0,-6.0,-1.0,-1.0,1650849392740306.0
-2.0,2.0,1.0,3.0,-3.0,1.0,2.0,-2.0,1650849392740306.0
2.0,6.0,9.0,2.0,7.0,0.0,-3.0,0.0,1650849392753768.0
1.0,-5.0,2.0,6.0,0.0,6.0,0.0,3.0,1650849392753768.0
0.0,4.0,-1.0,0.0,1.0,5.0,-1.0,0.0,1650849392754769.0
-3.0,-6.0,-6.0,-8.0,-12.0,-29.0,-7.0,-2.0,1650849392754769.0
2.0,3.0,-4.0,1.0,9.0,39.0,9.0,4.0,1650849392775711.0
1.0,3.0,9.0,6.0,13.0,2.0,0.0,-1.0,1650849392775711.0
0.0,2.0,-1.0,-5.0,-4.0,5.0,2.0,0.0,1650849392777706.0
0.0,1.0,-4.0,-5.0,-7.0,-17.0,-4.0,-1.0,1650849392777706.0
-2.0,-3.0,-2.0,-2.0,-2.0,-1.0,0.0,0.0,1650849392789702.0
0.0,-6.0,-4.0,-3.0,-9.0,-12.0,1.0,0.0,1650849392789702.0
0.0,18.0,9.0,6.0,2.0,13.0,0.0,-1.0,1650849392798680.0
1.0,2.0,-1.0,-9.0,-3.0,2.0,0.0,0.0,1650849392798680.0
-1.0,-9.0,-4.0,2.0,-1.0,-9.0,-1.0,-1.0,1650849392813733.0
1.0,5.0,-2.0,2.0,3.0,3.0,0.0,0.0,1650849392813733.0
1.0,6.0,3.0,-3.0,-11.0,-16.0,-5.0,0.0,1650849392814725.0
0.0,-4.0,-2.0,8.0,11.0,19.0,4.0,1.0,1650849392814725.0
0.0,1.0,-3.0,-10.0,-3.0,-4.0,-2.0,1.0,1650849392835736.0
0.0,-11.0,-4.0,3.0,6.0,1.0,2.0,0.0,1650849392835736.0
-2.0,-8.0,0.0,1.0,4.0,-6.0,-3.0,-2.0,1650849392837690.0
0.0,0.0,3.0,-1.0,-4.0,0.0,-1.0,0.0,1650849392837690.0
0.0,-5.0,-7.0,-5.0,0.0,8.0,4.0,-1.0,1650849392849652.0
-1.0,3.0,-1.0,-6.0,-6.0,2.0,-2.0,-2.0,1650849392849652.0
1.0,-1.0,0.0,5.0,12.0,-3.0,2.0,1.0,1650849392856612.0
-2.0,-2.0,-3.0,5.0,-3.0,-17.0,-4.0,-1.0,1650849392856612.0
-1.0,3.0,7.0,-4.0,-2.0,10.0,-4.0,-2.0,1650849392873566.0
-1.0,2.0,-3.0,0.0,3.0,4.0,4.0,0.0,1650849392873566.0
-1.0,-8.0,-2.0,-1.0,-3.0,1.0,0.0,-2.0,1650849392874565.0
0.0,11.0,2.0,-5.0,-5.0,-4.0,0.0,0.0,1650849392874565.0
0.0,0.0,-1.0,1.0,-3.0,-24.0,-5.0,0.0,1650849392895898.0
0.0,-6.0,-4.0,2.0,12.0,27.0,6.0,3.0,1650849392895898.0
0.0,-2.0,5.0,2.0,-7.0,-3.0,-1.0,-4.0,1650849392897866.0
-2.0,-13.0,-1.0,0.0,3.0,4.0,-1.0,-2.0,1650849392897866.0
0.0,3.0,-2.0,5.0,0.0,-12.0,-3.0,-4.0,1650849392909861.0
-1.0,5.0,2.0,10.0,4.0,6.0,-2.0,-2.0,1650849392909861.0
-2.0,-18.0,-8.0,-8.0,4.0,2.0,0.0,0.0,1650849392916815.0
2.0,-1.0,1.0,6.0,6.0,0.0,0.0,0.0,1650849392916815.0
-4.0,2.0,3.0,-3.0,-3.0,8.0,0.0,-1.0,1650849392932772.0
0.0,-4.0,-4.0,-6.0,-10.0,-12.0,-5.0,-2.0,1650849392932772.0
-2.0,-1.0,1.0,0.0,-4.0,8.0,3.0,0.0,1650849392934767.0
0.0,2.0,2.0,-4.0,-5.0,-5.0,0.0,-3.0,1650849392934767.0
0.0,7.0,-1.0,0.0,2.0,1.0,-2.0,-1.0,1650849392955824.0
-3.0,-14.0,-7.0,-6.0,-6.0,-12.0,-2.0,0.0,1650849392955824.0
-1.0,7.0,-1.0,-1.0,-1.0,-3.0,-2.0,-1.0,1650849392957840.0
0.0,-6.0,1.0,-4.0,-3.0,7.0,2.0,0.0,1650849392957840.0
1.0,-7.0,3.0,5.0,-1.0,-17.0,-1.0,-1.0,1650849392977963.0
0.0,6.0,2.0,-1.0,3.0,15.0,1.0,1.0,1650849392977963.0
1.0,-2.0,-4.0,0.0,-7.0,-15.0,-2.0,-2.0,1650849392979931.0
1.0,-7.0,-6.0,6.0,11.0,12.0,4.0,2.0,1650849392979931.0
0.0,3.0,3.0,-1.0,-5.0,0.0,0.0,1.0,1650849392993487.0
-2.0,-14.0,-4.0,-4.0,-10.0,-14.0,-3.0,-1.0,1650849392993487.0
-4.0,6.0,-3.0,-3.0,0.0,-4.0,-4.0,-3.0,1650849392994450.0
3.0,20.0,9.0,9.0,2.0,17.0,4.0,2.0,1650849392994450.0
0.0,-4.0,-4.0,-6.0,1.0,-5.0,-1.0,0.0,1650849393015873.0
0.0,0.0,-3.0,-6.0,6.0,4.0,2.0,-1.0,1650849393015873.0
-2.0,-16.0,-7.0,-4.0,-10.0,-6.0,-1.0,-1.0,1650849393017870.0
-3.0,18.0,0.0,-13.0,-17.0,-11.0,-5.0,-2.0,1650849393017870.0
-2.0,1.0,6.0,12.0,9.0,2.0,-1.0,-2.0,1650849393029846.0
3.0,11.0,11.0,4.0,4.0,6.0,4.0,1.0,1650849393029846.0
0.0,8.0,-21.0,-11.0,-1.0,-2.0,-1.0,1.0,1650849393038812.0
-4.0,-48.0,-12.0,-1.0,5.0,1.0,1.0,0.0,1650849393038812.0
0.0,3.0,10.0,-3.0,-9.0,-5.0,-2.0,-1.0,1650849393053794.0
-1.0,2.0,-7.0,-4.0,-10.0,-18.0,-6.0,-1.0,1650849393053794.0
1.0,6.0,14.0,3.0,2.0,19.0,3.0,2.0,1650849393054785.0
1.0,3.0,-4.0,-3.0,3.0,1.0,0.0,0.0,1650849393054785.0
-3.0,-1.0,-8.0,-1.0,-4.0,-4.0,1.0,0.0,1650849393075713.0
-1.0,-4.0,6.0,6.0,3.0,-9.0,-3.0,-1.0,1650849393075713.0
1.0,2.0,3.0,2.0,3.0,14.0,-3.0,0.0,1650849393077811.0
-1.0,0.0,-2.0,1.0,-1.0,-6.0,0.0,0.0,1650849393077811.0
0.0,-8.0,-5.0,-3.0,-4.0,-1.0,2.0,1.0,1650849393089676.0
-1.0,8.0,-1.0,-4.0,1.0,2.0,0.0,-3.0,1650849393089676.0
-1.0,-7.0,0.0,-1.0,-1.0,-14.0,-2.0,0.0,1650849393098653.0
-5.0,-5.0,1.0,11.0,3.0,3.0,-12.0,-5.0,1650849393098653.0
0.0,-1.0,-4.0,-13.0,-9.0,0.0,-1.0,-2.0,1650849393112780.0
-1.0,-9.0,-7.0,-4.0,-1.0,-16.0,4.0,7.0,1650849393112780.0
2.0,4.0,3.0,6.0,9.0,30.0,9.0,2.0,1650849393114749.0
-2.0,-8.0,-1.0,2.0,0.0,-1.0,0.0,-1.0,1650849393114749.0
-1.0,4.0,0.0,1.0,0.0,-1.0,-4.0,-3.0,1650849393135691.0
0.0,4.0,1.0,-9.0,-6.0,0.0,-3.0,-4.0,1650849393135691.0
-2.0,-5.0,10.0,10.0,-1.0,-11.0,-1.0,0.0,1650849393137714.0
2.0,19.0,-2.0,-1.0,-4.0,-8.0,1.0,2.0,1650849393137714.0
-5.0,-45.0,-12.0,-2.0,4.0,15.0,-6.0,-4.0,1650849393149682.0
2.0,26.0,4.0,-1.0,-1.0,0.0,-6.0,-4.0,1650849393149682.0
1.0,-3.0,-2.0,-6.0,0.0,-3.0,4.0,6.0,1650849393158630.0
2.0,1.0,-2.0,-6.0,-7.0,-7.0,7.0,6.0,1650849393158630.0
2.0,7.0,1.0,6.0,4.0,0.0,8.0,4.0,1650849393173590.0
1.0,-11.0,-3.0,1.0,6.0,13.0,2.0,0.0,1650849393173590.0
-2.0,6.0,1.0,-2.0,-7.0,-6.0,-15.0,-10.0,1650849393174592.0
-3.0,-6.0,-6.0,-8.0,-2.0,-9.0,-6.0,-5.0,1650849393174592.0
1.0,11.0,1.0,2.0,-11.0,-33.0,-6.0,-1.0,1650849393195674.0
-1.0,-7.0,1.0,6.0,8.0,51.0,0.0,-4.0,1650849393195674.0
-2.0,-1.0,-2.0,-8.0,4.0,-11.0,-3.0,-4.0,1650849393197662.0
2.0,0.0,3.0,0.0,-8.0,1.0,5.0,5.0,1650849393197662.0
0.0,1.0,-3.0,2.0,10.0,6.0,2.0,1.0,1650849393209637.0
-2.0,-3.0,1.0,0.0,-13.0,-22.0,1.0,0.0,1650849393209637.0
0.0,-1.0,0.0,4.0,0.0,-3.0,-5.0,-1.0,1650849393225579.0
-2.0,-3.0,-4.0,-3.0,2.0,8.0,1.0,-7.0,1650849393225579.0
-1.0,-8.0,-4.0,-8.0,-7.0,-4.0,1.0,3.0,1650849393233574.0
6.0,33.0,9.0,-5.0,2.0,-3.0,5.0,8.0,1650849393233574.0
-3.0,-9.0,-4.0,4.0,6.0,-1.0,-4.0,-1.0,1650849393234557.0
-1.0,-3.0,2.0,2.0,-1.0,11.0,-1.0,-4.0,1650849393234557.0
-2.0,8.0,-1.0,1.0,1.0,5.0,-3.0,-6.0,1650849393255554.0
-9.0,-21.0,-8.0,-3.0,3.0,-6.0,-22.0,-19.0,1650849393255554.0
15.0,12.0,5.0,-2.0,-9.0,-7.0,23.0,27.0,1650849393257509.0
11.0,1.0,1.0,-4.0,-2.0,-5.0,26.0,26.0,1650849393257509.0
-10.0,-1.0,-2.0,-2.0,-1.0,2.0,-38.0,-25.0,1650849393269459.0
-5.0,-3.0,-1.0,4.0,-2.0,4.0,13.0,-4.0,1650849393269459.0
-1.0,-1.0,2.0,1.0,-2.0,-9.0,-4.0,-2.0,1650849393278440.0
-2.0,4.0,-3.0,-3.0,0.0,-3.0,-14.0,-11.0,1650849393278440.0
-2.0,2.0,3.0,2.0,3.0,12.0,2.0,-6.0,1650849393293414.0
-3.0,-9.0,-2.0,-1.0,-6.0,-24.0,-13.0,0.0,1650849393293414.0
-1.0,-7.0,-10.0,-7.0,5.0,24.0,9.0,-1.0,1650849393294410.0
-1.0,-11.0,2.0,-2.0,-6.0,-1.0,11.0,10.0,1650849393294410.0
6.0,20.0,7.0,6.0,3.0,4.0,2.0,1.0,1650849393315419.0
-10.0,-18.0,-2.0,-1.0,1.0,-6.0,-23.0,-21.0,1650849393315419.0
-1.0,3.0,-5.0,-1.0,-6.0,-2.0,7.0,-10.0,1650849393317414.0
1.0,-21.0,-4.0,2.0,5.0,2.0,0.0,11.0,1650849393317414.0
-3.0,1.0,-5.0,-5.0,-7.0,-13.0,20.0,10.0,1650849393329381.0
17.0,3.0,2.0,-2.0,-4.0,-1.0,-7.0,18.0,1650849393329381.0
-10.0,-7.0,-6.0,2.0,6.0,9.0,-11.0,-23.0,1650849393338358.0
9.0,13.0,0.0,-8.0,-6.0,-15.0,-21.0,-24.0,1650849393338358.0
-8.0,-14.0,1.0,3.0,3.0,5.0,26.0,20.0,1650849393353351.0
3.0,-3.0,-3.0,0.0,0.0,7.0,16.0,19.0,1650849393353351.0
2.0,0.0,3.0,0.0,-5.0,-10.0,-28.0,-15.0,1650849393355331.0
-5.0,11.0,-1.0,1.0,2.0,4.0,-20.0,-11.0,1650849393355331.0
6.0,-7.0,-3.0,-2.0,-4.0,-4.0,8.0,-7.0,1650849393375410.0
-8.0,5.0,6.0,2.0,8.0,6.0,9.0,9.0,1650849393375410.0
-9.0,-3.0,-1.0,-2.0,-4.0,-1.0,3.0,5.0,1650849393377379.0
8.0,14.0,3.0,-1.0,-1.0,-3.0,0.0,-8.0,1650849393377379.0
69.0,6.0,-1.0,1.0,-1.0,-6.0,-4.0,0.0,1650849393389374.0
-60.0,-9.0,-9.0,-1.0,2.0,19.0,3.0,-9.0,1650849393389374.0
-4.0,-4.0,0.0,-2.0,0.0,-8.0,0.0,3.0,1650849393398302.0
-11.0,-14.0,6.0,4.0,-1.0,2.0,9.0,10.0,1650849393398302.0
10.0,5.0,3.0,2.0,3.0,-3.0,-36.0,-27.0,1650849393413367.0
25.0,3.0,-7.0,-4.0,-3.0,-6.0,27.0,27.0,1650849393413367.0
-19.0,7.0,3.0,-2.0,-2.0,7.0,-10.0,-8.0,1650849393415363.0
-11.0,-22.0,-11.0,-6.0,-8.0,-19.0,0.0,-3.0,1650849393415363.0
3.0,29.0,5.0,1.0,3.0,6.0,-22.0,-19.0,1650849393436315.0
19.0,1.0,5.0,1.0,-4.0,-10.0,8.0,12.0,1650849393436315.0
-21.0,0.0,-10.0,-5.0,-3.0,1.0,24.0,15.0,1650849393437303.0
15.0,20.0,20.0,8.0,7.0,12.0,4.0,6.0,1650849393437303.0
-7.0,-46.0,-26.0,-9.0,-1.0,1.0,-4.0,5.0,1650849393458368.0
12.0,15.0,2.0,1.0,-3.0,-10.0,-23.0,-25.0,1650849393458368.0
32.0,-28.0,-3.0,6.0,5.0,6.0,20.0,24.0,1650849393460337.0
-12.0,-21.0,-5.0,0.0,2.0,2.0,-4.0,-19.0,1650849393460337.0
-30.0,60.0,28.0,-1.0,0.0,4.0,14.0,10.0,1650849393473368.0
58.0,-1.0,7.0,5.0,1.0,0.0,12.0,20.0,1650849393473368.0
-20.0,-9.0,-35.0,-11.0,-9.0,-9.0,-13.0,-32.0,1650849393475294.0
-28.0,-9.0,-2.0,4.0,0.0,4.0,-3.0,-5.0,1650849393475294.0
10.0,-10.0,-5.0,2.0,1.0,5.0,23.0,28.0,1650849393496185.0
-18.0,5.0,1.0,-2.0,0.0,-1.0,-7.0,-14.0,1650849393496185.0
27.0,25.0,17.0,4.0,0.0,-3.0,-2.0,-2.0,1650849393497155.0
25.0,23.0,0.0,0.0,1.0,-4.0,-4.0,-2.0,1650849393497155.0
9.0,-38.0,-19.0,-1.0,-1.0,0.0,7.0,-6.0,1650849393518099.0
-26.0,-8.0,5.0,1.0,2.0,1.0,-7.0,-14.0,1650849393518099.0
20.0,-5.0,10.0,0.0,-1.0,-6.0,-16.0,8.0,1650849393520121.0
-3.0,1.0,-13.0,2.0,2.0,0.0,28.0,34.0,1650849393520121.0
-39.0,-4.0,1.0,0.0,0.0,15.0,20.0,23.0,1650849393533085.0
11.0,3.0,3.0,-1.0,4.0,1.0,-6.0,-16.0,1650849393533085.0
-64.0,-6.0,-1.0,-1.0,-6.0,-4.0,4.0,0.0,1650849393535054.0
-2.0,1.0,9.0,4.0,3.0,0.0,-15.0,-4.0,1650849393535054.0
0.0,15.0,3.0,1.0,4.0,-6.0,-6.0,-10.0,1650849393556118.0
-15.0,-10.0,-7.0,1.0,0.0,4.0,3.0,8.0,1650849393556118.0
29.0,15.0,7.0,-1.0,-2.0,3.0,13.0,8.0,1650849393557047.0
10.0,-2.0,-2.0,-7.0,-5.0,-4.0,-5.0,14.0,1650849393557047.0
-76.0,-24.0,-2.0,2.0,0.0,0.0,-4.0,-13.0,1650849393578010.0
10.0,-6.0,-1.0,-2.0,-4.0,-6.0,-12.0,-9.0,1650849393578010.0
-19.0,22.0,9.0,-2.0,0.0,2.0,7.0,1.0,1650849393579986.0
19.0,-6.0,-14.0,-1.0,-3.0,4.0,7.0,14.0,1650849393579986.0
16.0,-21.0,-8.0,-1.0,4.0,2.0,-15.0,-21.0,1650849393592480.0
10.0,17.0,5.0,3.0,-1.0,-2.0,-1.0,2.0,1650849393592480.0
-4.0,-1.0,1.0,-2.0,1.0,-3.0,-8.0,2.0,1650849393599461.0
38.0,-10.0,2.0,0.0,0.0,3.0,0.0,-2.0,1650849393599461.0
-25.0,26.0,5.0,-2.0,-5.0,-6.0,-6.0,1.0,1650849393615494.0
-15.0,-4.0,-3.0,-2.0,-3.0,-5.0,1.0,7.0,1650849393615494.0
29.0,4.0,2.0,4.0,2.0,15.0,10.0,4.0,1650849393617489.0
4.0,-2.0,-9.0,-1.0,5.0,1.0,0.0,-9.0,1650849393617489.0
4.0,-1.0,0.0,-1.0,-2.0,-7.0,-8.0,0.0,1650849393638451.0
-22.0,-3.0,-12.0,-11.0,-7.0,-6.0,1.0,-1.0,1650849393638451.0
5.0,-1.0,11.0,7.0,2.0,-6.0,7.0,15.0,1650849393639444.0
-24.0,8.0,1.0,-3.0,-4.0,-1.0,-4.0,-21.0,1650849393639444.0
-13.0,-3.0,6.0,-1.0,-2.0,1.0,14.0,25.0,1650849393654577.0
5.0,-9.0,-8.0,1.0,6.0,7.0,-5.0,-17.0,1650849393654577.0
15.0,-6.0,-4.0,2.0,-2.0,-1.0,-12.0,30.0,1650849393659562.0
1.0,-5.0,1.0,-3.0,0.0,-1.0,4.0,-17.0,1650849393659562.0
17.0,2.0,-1.0,-3.0,-6.0,-5.0,-1.0,9.0,1650849393675540.0
8.0,7.0,0.0,2.0,-7.0,-3.0,0.0,-8.0,1650849393675540.0
4.0,0.0,4.0,3.0,8.0,-12.0,-8.0,-10.0,1650849393677515.0
0.0,0.0,-6.0,-4.0,-2.0,23.0,3.0,8.0,1650849393677515.0
10.0,13.0,9.0,5.0,5.0,1.0,-10.0,-8.0,1650849393698458.0
-2.0,-16.0,-2.0,0.0,3.0,3.0,13.0,3.0,1650849393698458.0
-45.0,-14.0,-7.0,-6.0,-7.0,-7.0,-3.0,3.0,1650849393699456.0
-10.0,35.0,12.0,1.0,-4.0,-13.0,-4.0,8.0,1650849393699456.0
19.0,7.0,1.0,-5.0,-6.0,-10.0,-2.0,-4.0,1650849393712442.0
31.0,-36.0,-13.0,-1.0,-1.0,17.0,-1.0,4.0,1650849393712442.0
15.0,14.0,7.0,3.0,5.0,1.0,4.0,-7.0,1650849393719423.0
-8.0,-8.0,1.0,6.0,11.0,1.0,-9.0,-11.0,1650849393719423.0
11.0,16.0,6.0,5.0,-2.0,2.0,6.0,-1.0,1650849393735379.0
6.0,-7.0,-4.0,-6.0,-7.0,-19.0,-6.0,2.0,1650849393735379.0
19.0,3.0,-16.0,-10.0,-16.0,-8.0,-11.0,-15.0,1650849393737355.0
-9.0,-9.0,-1.0,-3.0,2.0,4.0,16.0,22.0,1650849393737355.0
14.0,-4.0,-3.0,1.0,1.0,-1.0,-11.0,-11.0,1650849393758322.0
-7.0,12.0,11.0,3.0,4.0,2.0,5.0,7.0,1650849393758322.0
-11.0,-10.0,0.0,4.0,5.0,5.0,-1.0,-15.0,1650849393760322.0
-13.0,8.0,3.0,-6.0,-7.0,-7.0,-10.0,-8.0,1650849393760322.0
-24.0,8.0,0.0,-1.0,0.0,4.0,10.0,8.0,1650849393772286.0
-7.0,-5.0,-9.0,0.0,-2.0,0.0,-6.0,-5.0,1650849393772286.0
13.0,-2.0,0.0,-3.0,-6.0,-5.0,0.0,-5.0,1650849393779247.0
-7.0,-4.0,6.0,2.0,-1.0,-2.0,4.0,-11.0,1650849393779247.0
7.0,-2.0,-7.0,1.0,1.0,5.0,3.0,-1.0,1650849393796198.0
-10.0,8.0,0.0,-1.0,-2.0,0.0,-10.0,0.0,1650849393796198.0
-39.0,0.0,11.0,6.0,3.0,1.0,5.0,-11.0,1650849393797209.0
11.0,0.0,-10.0,-4.0,1.0,-3.0,12.0,22.0,1650849393797209.0
-9.0,-6.0,-2.0,-6.0,-4.0,-1.0,6.0,-6.0,1650849393817893.0
-21.0,-1.0,1.0,0.0,3.0,0.0,8.0,-4.0,1650849393817893.0
19.0,13.0,-8.0,-3.0,2.0,6.0,-3.0,7.0,1650849393819850.0
7.0,-3.0,10.0,6.0,-6.0,-6.0,0.0,0.0,1650849393819850.0
3.0,6.0,-6.0,-1.0,12.0,8.0,1.0,9.0,1650849393832853.0
-8.0,-5.0,3.0,1.0,0.0,-5.0,-8.0,-1.0,1650849393832853.0
6.0,4.0,-1.0,-4.0,-4.0,-2.0,-2.0,-5.0,1650849393839834.0
-7.0,10.0,6.0,-1.0,0.0,3.0,-6.0,-3.0,1650849393839834.0
23.0,-11.0,-7.0,-4.0,-14.0,-15.0,-3.0,0.0,1650849393855792.0
26.0,-2.0,1.0,5.0,10.0,10.0,3.0,0.0,1650849393855792.0
-8.0,-15.0,-10.0,-2.0,-5.0,-11.0,-2.0,-1.0,1650849393857783.0
-2.0,-10.0,8.0,4.0,4.0,30.0,-3.0,-8.0,1650849393857783.0
17.0,30.0,26.0,1.0,-3.0,-9.0,-2.0,-11.0,1650849393878792.0
59.0,30.0,-25.0,-5.0,-1.0,-3.0,-8.0,4.0,1650849393878792.0
-5.0,-23.0,-6.0,1.0,4.0,6.0,23.0,10.0,1650849393879788.0
-9.0,-38.0,-12.0,-3.0,-2.0,-16.0,-20.0,-8.0,1650849393879788.0
10.0,0.0,-3.0,0.0,-2.0,3.0,3.0,-1.0,1650849393892367.0
-17.0,14.0,16.0,1.0,-3.0,2.0,-3.0,-4.0,1650849393892367.0
4.0,4.0,0.0,-7.0,-2.0,-9.0,-20.0,-22.0,1650849393901305.0
-4.0,-17.0,-10.0,-1.0,-1.0,-12.0,6.0,7.0,1650849393901305.0
-7.0,-2.0,1.0,5.0,9.0,18.0,-1.0,6.0,1650849393915465.0
-23.0,1.0,6.0,1.0,-5.0,-2.0,3.0,-1.0,1650849393915465.0
7.0,-7.0,-7.0,-3.0,5.0,7.0,-6.0,-3.0,1650849393917421.0
-39.0,-5.0,-3.0,-2.0,-5.0,-6.0,-1.0,-9.0,1650849393917421.0
7.0,-7.0,-2.0,-3.0,-6.0,-8.0,-2.0,2.0,1650849393938439.0
-7.0,-3.0,-1.0,3.0,-5.0,-4.0,-9.0,-4.0,1650849393938439.0
2.0,-3.0,4.0,3.0,9.0,9.0,-1.0,-13.0,1650849393939469.0
50.0,15.0,2.0,1.0,0.0,1.0,34.0,32.0,1650849393939469.0
2.0,-22.0,-15.0,-8.0,-2.0,-9.0,-12.0,-9.0,1650849393951441.0
-7.0,11.0,1.0,-8.0,-4.0,-2.0,1.0,0.0,1650849393951441.0
-6.0,6.0,1.0,3.0,-4.0,7.0,-3.0,5.0,1650849393961388.0
-15.0,9.0,8.0,1.0,-1.0,-5.0,-8.0,-11.0,1650849393961388.0
13.0,5.0,-4.0,3.0,-6.0,-5.0,2.0,7.0,1650849393975447.0
7.0,-28.0,19.0,5.0,10.0,-2.0,6.0,0.0,1650849393975447.0
-1.0,-7.0,-27.0,-5.0,-6.0,13.0,3.0,7.0,1650849393977409.0
-2.0,19.0,-1.0,-1.0,-1.0,0.0,-14.0,-13.0,1650849393977409.0
19.0,-10.0,1.0,1.0,7.0,7.0,14.0,12.0,1650849393998419.0
-8.0,9.0,1.0,-3.0,0.0,1.0,1.0,0.0,1650849393998419.0
0.0,4.0,5.0,-1.0,-3.0,-6.0,5.0,6.0,1650849394000346.0
-19.0,-4.0,-4.0,-1.0,0.0,-5.0,-11.0,-8.0,1650849394000346.0
-20.0,-1.0,5.0,8.0,7.0,2.0,-6.0,-9.0,1650849394012364.0
-9.0,0.0,-12.0,-8.0,-9.0,-13.0,-2.0,-4.0,1650849394012364.0
8.0,-2.0,8.0,8.0,2.0,2.0,20.0,11.0,1650849394021291.0
22.0,-5.0,-8.0,-5.0,-6.0,5.0,0.0,-2.0,1650849394021291.0
-45.0,-3.0,3.0,-5.0,-1.0,-6.0,-4.0,-9.0,1650849394035425.0
18.0,43.0,-1.0,-2.0,2.0,5.0,5.0,12.0,1650849394035425.0
-28.0,-21.0,7.0,-3.0,-8.0,-13.0,-13.0,-11.0,1650849394037420.0
27.0,17.0,15.0,9.0,10.0,5.0,-2.0,-12.0,1650849394037420.0
1.0,-35.0,-35.0,-10.0,-9.0,-1.0,1.0,11.0,1650849394057968.0
-10.0,-8.0,-3.0,2.0,6.0,6.0,12.0,7.0,1650849394057968.0
10.0,6.0,-2.0,-7.0,-7.0,-10.0,-20.0,-7.0,1650849394059893.0
-15.0,-4.0,1.0,-3.0,2.0,-3.0,-3.0,-5.0,1650849394059893.0
-23.0,0.0,4.0,0.0,0.0,0.0,-1.0,-7.0,1650849394071872.0
0.0,-8.0,0.0,3.0,-3.0,1.0,-3.0,-12.0,1650849394071872.0
20.0,22.0,3.0,1.0,-1.0,-9.0,-3.0,7.0,1650849394080836.0
-14.0,-39.0,-4.0,-3.0,-5.0,2.0,-1.0,-5.0,1650849394080836.0
9.0,4.0,1.0,4.0,4.0,11.0,-2.0,-2.0,1650849394096000.0
-8.0,-4.0,-5.0,-2.0,-3.0,-5.0,8.0,6.0,1650849394096000.0
5.0,2.0,11.0,5.0,6.0,2.0,5.0,3.0,1650849394097044.0
5.0,11.0,-10.0,-6.0,-4.0,-11.0,0.0,3.0,1650849394097044.0
47.0,4.0,4.0,-2.0,-9.0,-7.0,0.0,3.0,1650849394117940.0
3.0,-13.0,-5.0,-5.0,-1.0,2.0,-3.0,5.0,1650849394117940.0
-1.0,-11.0,3.0,2.0,-3.0,-2.0,0.0,-8.0,1650849394124987.0
-10.0,-2.0,-7.0,-2.0,9.0,10.0,7.0,8.0,1650849394124987.0
-3.0,-6.0,-2.0,-2.0,2.0,-2.0,-10.0,-9.0,1650849394131930.0
-11.0,7.0,5.0,0.0,-5.0,-8.0,-13.0,-11.0,1650849394131930.0
14.0,13.0,4.0,0.0,-2.0,-5.0,-2.0,4.0,1650849394140891.0
1.0,-8.0,-7.0,-4.0,-6.0,0.0,-2.0,-2.0,1650849394140891.0
-11.0,10.0,4.0,-3.0,0.0,1.0,9.0,6.0,1650849394156183.0
-3.0,-23.0,-3.0,1.0,0.0,3.0,0.0,-3.0,1650849394156183.0
-4.0,1.0,-4.0,-1.0,-2.0,3.0,3.0,2.0,1650849394157827.0
-2.0,4.0,3.0,4.0,9.0,2.0,-11.0,-6.0,1650849394157827.0
-23.0,-7.0,-2.0,2.0,-1.0,-12.0,9.0,6.0,1650849394177774.0
-7.0,0.0,-4.0,-4.0,-3.0,10.0,6.0,3.0,1650849394177774.0
-5.0,-1.0,0.0,-2.0,-7.0,-8.0,-3.0,-2.0,1650849394179777.0
1.0,2.0,-3.0,3.0,15.0,17.0,-2.0,-6.0,1650849394179777.0
1.0,4.0,-1.0,-1.0,-2.0,-3.0,0.0,-4.0,1650849394191801.0
13.0,0.0,1.0,0.0,-6.0,-9.0,2.0,8.0,1650849394191801.0
-32.0,-7.0,-1.0,-3.0,6.0,6.0,-7.0,-4.0,1650849394200713.0
10.0,13.0,0.0,-1.0,-6.0,-5.0,2.0,1.0,1650849394200713.0
-8.0,-7.0,3.0,3.0,1.0,6.0,-2.0,-5.0,1650849394215672.0
-8.0,17.0,9.0,3.0,6.0,3.0,7.0,9.0,1650849394215672.0
15.0,-2.0,-4.0,-3.0,0.0,0.0,-5.0,-5.0,1650849394217667.0
-14.0,10.0,3.0,0.0,-9.0,-9.0,3.0,1.0,1650849394217667.0
16.0,-12.0,-5.0,-5.0,-2.0,0.0,1.0,5.0,1650849394238679.0
5.0,-7.0,3.0,2.0,6.0,0.0,0.0,3.0,1650849394238679.0
-12.0,1.0,-1.0,-3.0,-7.0,-4.0,-8.0,-4.0,1650849394239615.0
4.0,1.0,-1.0,1.0,-2.0,3.0,10.0,4.0,1650849394239615.0
8.0,8.0,2.0,5.0,8.0,4.0,2.0,4.0,1650849394251577.0
-22.0,-12.0,-6.0,2.0,3.0,2.0,-6.0,-10.0,1650849394251577.0
5.0,7.0,0.0,-3.0,-1.0,-2.0,1.0,13.0,1650849394260573.0
21.0,1.0,-4.0,-7.0,-9.0,-9.0,-9.0,-12.0,1650849394260573.0
9.0,6.0,3.0,-3.0,-10.0,-1.0,-1.0,9.0,1650849394275627.0
15.0,-4.0,-3.0,0.0,6.0,1.0,-7.0,-7.0,1650849394275627.0
1.0,-13.0,-4.0,-1.0,-4.0,-5.0,4.0,-1.0,1650849394277624.0
6.0,38.0,6.0,3.0,0.0,8.0,1.0,6.0,1650849394277624.0
36.0,2.0,3.0,7.0,5.0,10.0,1.0,3.0,1650849394298568.0
-5.0,-20.0,-6.0,-2.0,-4.0,-20.0,-9.0,-8.0,1650849394298568.0
1.0,3.0,2.0,1.0,9.0,36.0,10.0,-1.0,1650849394299565.0
0.0,4.0,-2.0,-2.0,-6.0,-11.0,6.0,11.0,1650849394299565.0
-13.0,-1.0,-1.0,-4.0,-3.0,-6.0,-9.0,-11.0,1650849394311533.0
-5.0,8.0,4.0,-2.0,-6.0,-2.0,-1.0,1.0,1650849394311533.0
-2.0,-2.0,-3.0,2.0,1.0,-11.0,-9.0,-7.0,1650849394320510.0
-5.0,-15.0,-7.0,0.0,5.0,4.0,-10.0,-3.0,1650849394320510.0
-2.0,9.0,0.0,2.0,5.0,5.0,17.0,3.0,1650849394335496.0
-17.0,-9.0,-3.0,-4.0,-9.0,-2.0,-3.0,1.0,1650849394335496.0
-9.0,10.0,0.0,0.0,2.0,0.0,3.0,0.0,1650849394337464.0
-4.0,-11.0,2.0,0.0,6.0,1.0,-16.0,-10.0,1650849394337464.0
-50.0,0.0,-4.0,-4.0,-1.0,-9.0,0.0,-3.0,1650849394357896.0
-4.0,-6.0,-5.0,-6.0,-13.0,3.0,3.0,-8.0,1650849394357896.0
20.0,-5.0,1.0,4.0,11.0,-1.0,-4.0,3.0,1650849394365876.0
-8.0,1.0,1.0,-1.0,-5.0,-4.0,0.0,-2.0,1650849394365876.0
-5.0,-18.0,-3.0,-4.0,-3.0,-8.0,-13.0,-5.0,1650849394371860.0
-2.0,2.0,1.0,6.0,8.0,16.0,7.0,3.0,1650849394371860.0
1.0,0.0,-4.0,-3.0,-3.0,-2.0,4.0,1.0,1650849394380842.0
6.0,-6.0,-1.0,-3.0,-2.0,-7.0,-1.0,1.0,1650849394380842.0
2.0,1.0,-2.0,-1.0,-5.0,-4.0,-3.0,-1.0,1650849394395821.0
3.0,12.0,6.0,3.0,3.0,12.0,-1.0,0.0,1650849394395821.0
-6.0,-15.0,-4.0,-5.0,-1.0,-5.0,-4.0,-5.0,1650849394397789.0
0.0,1.0,-3.0,3.0,1.0,3.0,0.0,4.0,1650849394397789.0
8.0,4.0,1.0,-1.0,-9.0,-5.0,5.0,2.0,1650849394417896.0
-17.0,-8.0,-6.0,-2.0,5.0,-2.0,3.0,-8.0,1650849394417896.0
13.0,-11.0,1.0,1.0,7.0,3.0,4.0,11.0,1650849394419892.0
-5.0,23.0,2.0,-2.0,-4.0,1.0,2.0,-3.0,1650849394419892.0
-17.0,2.0,-3.0,-2.0,-2.0,0.0,-16.0,-4.0,1650849394440835.0
19.0,-5.0,2.0,2.0,-1.0,3.0,6.0,10.0,1650849394440835.0
-2.0,-9.0,-5.0,-4.0,-8.0,-11.0,21.0,12.0,1650849394442841.0
21.0,-10.0,-2.0,0.0,-3.0,-11.0,-8.0,-5.0,1650849394442841.0
8.0,6.0,2.0,4.0,18.0,24.0,5.0,3.0,1650849394455864.0
9.0,16.0,2.0,0.0,-4.0,-9.0,-12.0,-6.0,1650849394455864.0
-9.0,-2.0,3.0,1.0,-1.0,-1.0,-5.0,-6.0,1650849394457791.0
2.0,1.0,-1.0,-2.0,-2.0,1.0,7.0,5.0,1650849394457791.0
-7.0,-1.0,1.0,0.0,-5.0,-3.0,-6.0,-5.0,1650849394477854.0
-1.0,-4.0,-3.0,-3.0,7.0,1.0,2.0,1.0,1650849394477854.0
-5.0,2.0,-1.0,-1.0,-8.0,-13.0,-4.0,-5.0,1650849394479821.0
-5.0,-4.0,-1.0,0.0,6.0,11.0,1.0,-2.0,1650849394479821.0
0.0,1.0,-2.0,-1.0,-4.0,-3.0,-1.0,-3.0,1650849394500777.0
-5.0,1.0,-4.0,-2.0,-4.0,0.0,2.0,2.0,1650849394500777.0
6.0,0.0,-4.0,1.0,0.0,-5.0,-3.0,0.0,1650849394502759.0
-10.0,-1.0,5.0,0.0,4.0,8.0,1.0,1.0,1650849394502759.0
-1.0,-5.0,3.0,-2.0,0.0,1.0,0.0,1.0,1650849394515752.0
9.0,4.0,0.0,1.0,-3.0,-7.0,-1.0,0.0,1650849394515752.0
-7.0,2.0,0.0,-2.0,-8.0,2.0,-5.0,-5.0,1650849394517719.0
-7.0,-6.0,-5.0,1.0,-7.0,-9.0,2.0,1.0,1650849394517719.0
2.0,4.0,-1.0,-4.0,8.0,-5.0,-1.0,-1.0,1650849394538737.0
1.0,0.0,2.0,-4.0,0.0,-4.0,-5.0,-2.0,1650849394538737.0
0.0,2.0,0.0,1.0,1.0,17.0,2.0,0.0,1650849394539663.0
-6.0,-11.0,-5.0,-4.0,-2.0,-6.0,1.0,3.0,1650849394539663.0
7.0,0.0,3.0,-2.0,-12.0,-10.0,-1.0,-1.0,1650849394562081.0
-4.0,-1.0,-1.0,-1.0,1.0,-4.0,-2.0,-1.0,1650849394562081.0
0.0,-3.0,-6.0,3.0,2.0,0.0,-1.0,-2.0,1650849394564069.0
-1.0,4.0,4.0,0.0,0.0,-1.0,0.0,-1.0,1650849394564069.0
-2.0,-3.0,-6.0,5.0,6.0,0.0,-1.0,-1.0,1650849394575416.0
-1.0,12.0,3.0,-2.0,-3.0,-7.0,-2.0,1.0,1650849394575416.0
-2.0,-7.0,-1.0,-5.0,-5.0,13.0,1.0,-1.0,1650849394582409.0
-2.0,-4.0,-3.0,0.0,0.0,-6.0,-1.0,0.0,1650849394582409.0
0.0,12.0,5.0,1.0,3.0,6.0,1.0,0.0,1650849394598507.0
-1.0,4.0,3.0,0.0,1.0,2.0,1.0,-1.0,1650849394598507.0
2.0,-4.0,-9.0,-2.0,-1.0,-10.0,-3.0,-3.0,1650849394599497.0
-3.0,-4.0,-2.0,-2.0,-13.0,0.0,-2.0,1.0,1650849394599497.0
1.0,-9.0,-3.0,-1.0,0.0,2.0,1.0,1.0,1650849394620420.0
2.0,-2.0,0.0,-3.0,12.0,7.0,1.0,-1.0,1650849394620420.0
-3.0,4.0,4.0,-4.0,-7.0,-13.0,-4.0,-3.0,1650849394622415.0
-1.0,0.0,1.0,11.0,10.0,13.0,2.0,0.0,1650849394622415.0
1.0,-7.0,-2.0,-4.0,-8.0,-7.0,-1.0,0.0,1650849394635400.0
-2.0,-4.0,-2.0,-3.0,-2.0,5.0,1.0,0.0,1650849394635400.0
-1.0,7.0,3.0,-5.0,2.0,-2.0,-1.0,0.0,1650849394642362.0
-2.0,-4.0,-4.0,-5.0,-3.0,-5.0,-2.0,-2.0,1650849394642362.0
0.0,-2.0,-1.0,1.0,5.0,8.0,0.0,-1.0,1650849394658318.0
0.0,-3.0,-3.0,2.0,-7.0,-7.0,-2.0,-3.0,1650849394658318.0
-2.0,-3.0,-1.0,-1.0,-1.0,4.0,4.0,7.0,1650849394659316.0
0.0,-17.0,-3.0,-2.0,-1.0,-1.0,1.0,-1.0,1650849394659316.0
-1.0,21.0,7.0,0.0,0.0,-7.0,-2.0,-1.0,1650849394680280.0
-2.0,-12.0,-4.0,3.0,2.0,5.0,0.0,-3.0,1650849394680280.0
-1.0,2.0,1.0,1.0,-8.0,-9.0,-5.0,-4.0,1650849394682255.0
0.0,-4.0,-1.0,10.0,15.0,-4.0,1.0,1.0,1650849394682255.0
0.0,-15.0,-8.0,-5.0,1.0,8.0,-2.0,-1.0,1650849394695645.0
-2.0,5.0,2.0,-2.0,-12.0,-9.0,0.0,0.0,1650849394695645.0
-1.0,-3.0,-3.0,1.0,8.0,-1.0,0.0,-1.0,1650849394701698.0
0.0,7.0,1.0,-5.0,-4.0,15.0,1.0,0.0,1650849394701698.0
-2.0,0.0,-1.0,-1.0,-4.0,-10.0,-1.0,-3.0,1650849394718592.0
-2.0,-4.0,2.0,0.0,-6.0,-5.0,-1.0,0.0,1650849394718592.0
0.0,1.0,-2.0,3.0,4.0,6.0,-1.0,0.0,1650849394719575.0
-1.0,-1.0,-2.0,-1.0,-1.0,-7.0,-3.0,-2.0,1650849394719575.0
-1.0,5.0,0.0,1.0,2.0,0.0,-1.0,0.0,1650849394740533.0
-1.0,-4.0,-1.0,0.0,-13.0,-1.0,2.0,1.0,1650849394740533.0
0.0,10.0,4.0,4.0,21.0,10.0,1.0,0.0,1650849394742490.0
3.0,1.0,1.0,-8.0,-7.0,-7.0,-2.0,0.0,1650849394742490.0
-2.0,-13.0,-9.0,-6.0,-11.0,-6.0,-5.0,-4.0,1650849394755641.0
1.0,-6.0,-4.0,8.0,16.0,8.0,2.0,1.0,1650849394755641.0
1.0,7.0,4.0,-1.0,-10.0,-8.0,-3.0,-3.0,1650849394761666.0
-2.0,0.0,-1.0,-5.0,-2.0,-1.0,-3.0,-1.0,1650849394761666.0
-2.0,0.0,5.0,1.0,7.0,5.0,2.0,2.0,1650849394778770.0
0.0,-10.0,-3.0,-3.0,-8.0,-8.0,-2.0,1.0,1650849394778770.0
1.0,13.0,-1.0,0.0,0.0,0.0,-2.0,-1.0,1650849394779674.0
-2.0,-5.0,0.0,0.0,1.0,1.0,0.0,-2.0,1650849394779674.0
-2.0,-10.0,-4.0,-3.0,-7.0,-11.0,1.0,-1.0,1650849394800759.0
-1.0,8.0,1.0,-3.0,12.0,13.0,1.0,1.0,1650849394800759.0
1.0,-4.0,0.0,1.0,1.0,-1.0,0.0,-1.0,1650849394802714.0
-1.0,5.0,-2.0,-8.0,-12.0,-12.0,-3.0,-2.0,1650849394802714.0
0.0,-3.0,-1.0,5.0,6.0,3.0,0.0,0.0,1650849394815640.0
-1.0,2.0,-2.0,-10.0,-4.0,-2.0,-1.0,-1.0,1650849394815640.0
-1.0,-2.0,1.0,6.0,-3.0,-3.0,0.0,0.0,1650849394821627.0
0.0,-7.0,1.0,10.0,18.0,9.0,2.0,1.0,1650849394821627.0
-1.0,9.0,1.0,-4.0,-8.0,-14.0,-3.0,-1.0,1650849394838581.0
0.0,0.0,0.0,-2.0,5.0,14.0,1.0,0.0,1650849394838581.0
0.0,-3.0,-4.0,-9.0,-9.0,-3.0,-1.0,0.0,1650849394839588.0
-3.0,-3.0,-2.0,3.0,3.0,2.0,0.0,1.0,1650849394839588.0
1.0,2.0,-2.0,3.0,10.0,8.0,1.0,2.0,1650849394860900.0
-3.0,3.0,-3.0,-2.0,-11.0,-9.0,-4.0,-2.0,1650849394860900.0
-1.0,-3.0,0.0,-2.0,-1.0,0.0,-2.0,-1.0,1650849394861885.0
0.0,2.0,0.0,2.0,-6.0,-4.0,-2.0,-2.0,1650849394861885.0
1.0,0.0,0.0,-1.0,-4.0,-4.0,0.0,1.0,1650849394875586.0
1.0,2.0,1.0,4.0,15.0,20.0,7.0,3.0,1650849394875586.0
-3.0,-5.0,-4.0,-7.0,-11.0,-4.0,0.0,-1.0,1650849394881640.0
0.0,5.0,1.0,3.0,6.0,1.0,0.0,0.0,1650849394881640.0
-1.0,1.0,1.0,-2.0,1.0,-4.0,-2.0,-1.0,1650849394898720.0
-1.0,-4.0,-1.0,1.0,-7.0,-10.0,-5.0,-1.0,1650849394898720.0
0.0,-1.0,-1.0,4.0,6.0,6.0,-1.0,0.0,1650849394899703.0
0.0,2.0,2.0,-5.0,-3.0,-2.0,0.0,1.0,1650849394899703.0
-2.0,-4.0,-4.0,-2.0,-9.0,-4.0,-1.0,-2.0,1650849394920753.0
2.0,2.0,1.0,6.0,10.0,9.0,3.0,2.0,1650849394920753.0
2.0,-7.0,1.0,7.0,4.0,-13.0,0.0,1.0,1650849394922776.0
-4.0,5.0,-2.0,-8.0,-12.0,12.0,-4.0,-5.0,1650849394922776.0
-1.0,-4.0,1.0,2.0,5.0,12.0,2.0,1.0,1650849394934714.0
-4.0,-2.0,-2.0,-9.0,-12.0,-17.0,-5.0,-3.0,1650849394934714.0
0.0,-1.0,-2.0,4.0,7.0,2.0,0.0,-1.0,1650849394943873.0
1.0,-2.0,-2.0,1.0,-6.0,-4.0,-1.0,1.0,1650849394943873.0
-1.0,0.0,0.0,-1.0,3.0,-3.0,0.0,-1.0,1650849394965831.0
0.0,1.0,-1.0,-1.0,-3.0,5.0,-1.0,-2.0,1650849394965831.0
-1.0,-1.0,-1.0,-5.0,1.0,-1.0,0.0,-1.0,1650849394967810.0
-2.0,0.0,-2.0,-2.0,-6.0,-9.0,-1.0,-2.0,1650849394967810.0
-1.0,-1.0,0.0,0.0,-5.0,3.0,0.0,1.0,1650849394980763.0
-2.0,-2.0,0.0,0.0,-2.0,-10.0,-2.0,0.0,1650849394980763.0
0.0,0.0,-3.0,-7.0,0.0,0.0,-1.0,-2.0,1650849394982758.0
-3.0,-1.0,0.0,3.0,1.0,2.0,2.0,0.0,1650849394982758.0
2.0,-1.0,0.0,-2.0,-3.0,-2.0,-2.0,-1.0,1650849394994726.0
0.0,-1.0,0.0,2.0,-3.0,-4.0,0.0,-1.0,1650849394994726.0
0.0,-3.0,0.0,0.0,-1.0,2.0,1.0,0.0,1650849395003739.0
1.0,0.0,-1.0,-3.0,3.0,1.0,1.0,0.0,1650849395003739.0
-2.0,-1.0,-3.0,-2.0,-1.0,-1.0,-1.0,-1.0,1650849395018691.0
1.0,-1.0,-1.0,-1.0,0.0,-2.0,0.0,-1.0,1650849395018691.0
0.0,1.0,-1.0,-4.0,-5.0,4.0,-2.0,0.0,1650849395019671.0
-1.0,-4.0,-4.0,-3.0,-2.0,-5.0,-1.0,-2.0,1650849395019671.0
0.0,4.0,2.0,1.0,3.0,0.0,1.0,0.0,1650849395040666.0
2.0,-1.0,-2.0,-2.0,-9.0,-28.0,-3.0,0.0,1650849395040666.0
-1.0,3.0,2.0,6.0,10.0,45.0,10.0,4.0,1650849395042624.0
1.0,-1.0,0.0,1.0,13.0,3.0,1.0,1.0,1650849395042624.0
-1.0,-2.0,0.0,-3.0,5.0,7.0,0.0,0.0,1650849395054567.0
-3.0,0.0,-5.0,-6.0,-6.0,-11.0,-3.0,-2.0,1650849395054567.0
-1.0,-3.0,-1.0,-3.0,-8.0,-17.0,-4.0,-3.0,1650849395063569.0
0.0,-3.0,-1.0,0.0,-3.0,1.0,-2.0,-1.0,1650849395063569.0
-1.0,1.0,2.0,-1.0,-2.0,-2.0,1.0,-2.0,1650849395078594.0
-1.0,0.0,-1.0,1.0,2.0,3.0,-1.0,0.0,1650849395078594.0
-2.0,-2.0,-2.0,-2.0,-7.0,-17.0,-3.0,-2.0,1650849395079592.0
0.0,2.0,1.0,2.0,2.0,27.0,6.0,0.0,1650849395079592.0
-1.0,-2.0,-2.0,-1.0,-3.0,-10.0,-3.0,1.0,1650849395100564.0
1.0,-2.0,1.0,-2.0,1.0,10.0,2.0,-1.0,1650849395100564.0
0.0,0.0,1.0,1.0,4.0,2.0,2.0,0.0,1650849395102531.0
-2.0,4.0,2.0,1.0,-4.0,-14.0,-3.0,-1.0,1650849395102531.0
0.0,-1.0,-1.0,2.0,-2.0,0.0,-1.0,-2.0,1650849395114526.0
-1.0,-1.0,-1.0,-1.0,1.0,7.0,0.0,-1.0,1650849395114526.0
-1.0,-2.0,-1.0,-5.0,-9.0,-21.0,-4.0,-2.0,1650849395123935.0
1.0,0.0,1.0,1.0,5.0,12.0,2.0,2.0,1650849395123935.0
-1.0,-7.0,-4.0,-1.0,-1.0,8.0,2.0,0.0,1650849395137903.0
1.0,12.0,4.0,4.0,6.0,3.0,-1.0,0.0,1650849395137903.0
-1.0,-4.0,-3.0,-3.0,-9.0,-6.0,-1.0,-2.0,1650849395139896.0
1.0,1.0,1.0,1.0,3.0,-11.0,-2.0,0.0,1650849395139896.0
0.0,-2.0,1.0,0.0,2.0,-3.0,0.0,-2.0,1650849395160850.0
-2.0,-6.0,-2.0,0.0,-1.0,7.0,2.0,0.0,1650849395160850.0
0.0,-1.0,0.0,0.0,8.0,9.0,2.0,1.0,1650849395166850.0
0.0,3.0,-1.0,-5.0,-12.0,-11.0,-2.0,-2.0,1650849395166850.0
1.0,0.0,-2.0,5.0,7.0,6.0,2.0,0.0,1650849395174861.0
-2.0,-1.0,-1.0,4.0,5.0,-3.0,-1.0,-2.0,1650849395174861.0
0.0,-3.0,-3.0,-2.0,-2.0,0.0,-2.0,-1.0,1650849395183805.0
-1.0,5.0,-3.0,-6.0,-6.0,-7.0,-1.0,-2.0,1650849395183805.0
-2.0,-3.0,-1.0,0.0,-6.0,-5.0,-2.0,-1.0,1650849395198737.0
0.0,-4.0,-2.0,-2.0,0.0,0.0,1.0,0.0,1650849395198737.0
0.0,6.0,0.0,1.0,3.0,4.0,1.0,1.0,1650849395200732.0
-2.0,-5.0,-2.0,-1.0,-1.0,-5.0,0.0,1.0,1650849395200732.0
1.0,-1.0,2.0,-2.0,-2.0,-3.0,-4.0,-1.0,1650849395220695.0
-1.0,-4.0,-2.0,-1.0,0.0,-3.0,-2.0,-1.0,1650849395220695.0
-2.0,1.0,-2.0,-7.0,-3.0,4.0,1.0,2.0,1650849395222675.0
-1.0,-2.0,-1.0,0.0,-12.0,-2.0,0.0,-1.0,1650849395222675.0
1.0,3.0,2.0,8.0,16.0,-2.0,1.0,0.0,1650849395234669.0
-1.0,-1.0,0.0,1.0,-1.0,2.0,-2.0,0.0,1650849395234669.0
1.0,-2.0,1.0,4.0,8.0,1.0,2.0,-2.0,1650849395243617.0
-1.0,-5.0,-2.0,-6.0,-7.0,-9.0,-2.0,-1.0,1650849395243617.0
-1.0,-2.0,-3.0,-4.0,-8.0,0.0,-2.0,-1.0,1650849395258644.0
1.0,1.0,-1.0,-4.0,4.0,7.0,-1.0,1.0,1650849395258644.0
-4.0,-1.0,-1.0,-1.0,-6.0,-6.0,-7.0,-4.0,1650849395259602.0
-1.0,1.0,1.0,4.0,9.0,6.0,5.0,2.0,1650849395259602.0
-1.0,1.0,-3.0,-2.0,-5.0,-6.0,1.0,4.0,1650849395280633.0
1.0,2.0,-1.0,0.0,-2.0,-4.0,0.0,-1.0,1650849395280633.0
0.0,0.0,-1.0,0.0,-2.0,1.0,-2.0,-3.0,1650849395282628.0
1.0,-3.0,-3.0,2.0,11.0,7.0,-2.0,-1.0,1650849395282628.0
0.0,-3.0,-1.0,-3.0,-5.0,-1.0,0.0,-2.0,1650849395294885.0
-1.0,-1.0,-1.0,-1.0,-6.0,-3.0,1.0,-1.0,1650849395294885.0
0.0,4.0,1.0,0.0,-3.0,7.0,2.0,1.0,1650849395303863.0
-1.0,-3.0,-1.0,2.0,1.0,-12.0,-3.0,-2.0,1650849395303863.0
-2.0,1.0,-3.0,0.0,0.0,7.0,-3.0,-1.0,1650849395317853.0
0.0,-5.0,1.0,-3.0,-2.0,0.0,-1.0,-1.0,1650849395317853.0
0.0,0.0,-1.0,2.0,-1.0,-7.0,-2.0,-2.0,1650849395319823.0
0.0,-2.0,2.0,-1.0,1.0,0.0,0.0,-3.0,1650849395319823.0
-2.0,-1.0,-1.0,-4.0,-7.0,-5.0,-2.0,0.0,1650849395340764.0
0.0,-1.0,0.0,0.0,-3.0,0.0,1.0,0.0,1650849395340764.0
0.0,1.0,2.0,-1.0,4.0,3.0,0.0,1.0,1650849395342787.0
-2.0,-3.0,-3.0,-1.0,-1.0,-2.0,-1.0,1.0,1650849395342787.0
-1.0,2.0,-1.0,-1.0,-1.0,1.0,0.0,-1.0,1650849395363725.0
-1.0,-1.0,-2.0,1.0,1.0,-2.0,-1.0,-1.0,1650849395363725.0
1.0,1.0,-3.0,1.0,2.0,-1.0,2.0,-1.0,1650849395364701.0
-1.0,0.0,0.0,0.0,-1.0,2.0,-1.0,1.0,1650849395364701.0
1.0,-4.0,1.0,2.0,-1.0,-1.0,-2.0,-1.0,1650849395377769.0
-1.0,0.0,-3.0,-4.0,-5.0,-8.0,-1.0,1.0,1650849395377769.0
-2.0,-5.0,0.0,0.0,-3.0,-2.0,-4.0,0.0,1650849395379764.0
3.0,2.0,2.0,4.0,6.0,18.0,2.0,0.0,1650849395379764.0
0.0,2.0,-1.0,-1.0,-3.0,-12.0,0.0,-1.0,1650849395400715.0
1.0,2.0,2.0,2.0,11.0,14.0,3.0,0.0,1650849395400715.0
-2.0,-3.0,-5.0,-6.0,-11.0,-13.0,-4.0,-2.0,1650849395402702.0
0.0,-1.0,3.0,4.0,2.0,-4.0,-2.0,-1.0,1650849395402702.0
0.0,-2.0,-1.0,-7.0,-6.0,1.0,2.0,-1.0,1650849395423707.0
-1.0,1.0,-7.0,5.0,0.0,-3.0,-2.0,-1.0,1650849395423707.0
0.0,-5.0,9.0,4.0,8.0,1.0,1.0,1.0,1650849395424708.0
-1.0,10.0,-6.0,-4.0,-6.0,0.0,-1.0,-2.0,1650849395424708.0
-3.0,-8.0,3.0,-2.0,-2.0,0.0,-1.0,0.0,1650849395438670.0
0.0,1.0,-1.0,-3.0,-4.0,-2.0,1.0,1.0,1650849395438670.0
-3.0,-3.0,-7.0,-3.0,-1.0,0.0,-1.0,-2.0,1650849395439667.0
1.0,-4.0,4.0,-4.0,-3.0,-1.0,-1.0,-1.0,1650849395439667.0
3.0,2.0,1.0,3.0,4.0,9.0,0.0,0.0,1650849395460638.0
0.0,-2.0,-1.0,-2.0,-4.0,-6.0,-2.0,0.0,1650849395460638.0
1.0,1.0,0.0,3.0,6.0,9.0,1.0,0.0,1650849395462626.0
-5.0,4.0,-4.0,-5.0,-15.0,-21.0,-4.0,0.0,1650849395462626.0
-1.0,1.0,-3.0,3.0,17.0,20.0,1.0,-2.0,1650849395483643.0
-1.0,-3.0,3.0,2.0,-11.0,-7.0,-1.0,-2.0,1650849395483643.0
0.0,1.0,-2.0,1.0,6.0,12.0,3.0,0.0,1650849395484643.0
1.0,-3.0,-2.0,-3.0,-1.0,-4.0,-1.0,0.0,1650849395484643.0
-2.0,1.0,-3.0,-5.0,-7.0,-12.0,-5.0,-1.0,1650849395497633.0
-1.0,0.0,1.0,-1.0,4.0,13.0,1.0,1.0,1650849395497633.0
1.0,-1.0,1.0,-1.0,-6.0,-5.0,-1.0,0.0,1650849395511635.0
-1.0,-4.0,-4.0,1.0,-1.0,1.0,0.0,0.0,1650849395511635.0
-1.0,1.0,2.0,-1.0,7.0,4.0,2.0,1.0,1650849395520571.0
1.0,-1.0,-1.0,7.0,6.0,-3.0,-3.0,-3.0,1650849395520571.0
0.0,1.0,-2.0,-3.0,-8.0,-6.0,-2.0,0.0,1650849395522543.0
-1.0,-3.0,-2.0,-1.0,1.0,8.0,2.0,-2.0,1650849395522543.0
-1.0,1.0,0.0,-2.0,-7.0,-8.0,-2.0,-1.0,1650849395543594.0
-1.0,0.0,-2.0,-3.0,0.0,-4.0,-2.0,-2.0,1650849395543594.0
-1.0,-1.0,-2.0,-4.0,-9.0,0.0,1.0,0.0,1650849395544565.0
-1.0,-2.0,0.0,1.0,8.0,-2.0,0.0,1.0,1650849395544565.0
1.0,-3.0,-1.0,3.0,11.0,8.0,2.0,2.0,1650849395557600.0
-2.0,0.0,-2.0,1.0,0.0,10.0,2.0,-1.0,1650849395557600.0
0.0,1.0,11.0,4.0,1.0,-5.0,1.0,0.0,1650849395564542.0
1.0,-2.0,-3.0,1.0,0.0,1.0,1.0,0.0,1650849395564542.0
-2.0,-2.0,-6.0,-4.0,-11.0,-16.0,-2.0,-4.0,1650849395580585.0
1.0,2.0,-1.0,-1.0,5.0,6.0,1.0,2.0,1650849395580585.0
0.0,0.0,-3.0,-3.0,-5.0,-3.0,-1.0,-1.0,1650849395582553.0
-1.0,-4.0,2.0,-4.0,-4.0,-11.0,-3.0,-2.0,1650849395582553.0
-1.0,0.0,0.0,1.0,-1.0,6.0,-4.0,-1.0,1650849395603675.0
0.0,0.0,0.0,2.0,-3.0,-2.0,4.0,0.0,1650849395603675.0
0.0,0.0,2.0,0.0,6.0,5.0,1.0,-1.0,1650849395604671.0
-1.0,-1.0,1.0,5.0,7.0,4.0,-1.0,-2.0,1650849395604671.0
-2.0,1.0,1.0,-6.0,-4.0,-9.0,-2.0,-2.0,1650849395617659.0
0.0,-6.0,-3.0,-1.0,-5.0,-2.0,-3.0,-1.0,1650849395617659.0
-2.0,6.0,0.0,-2.0,-5.0,-5.0,-3.0,1.0,1650849395624686.0
-1.0,-4.0,-1.0,1.0,6.0,-4.0,-2.0,-1.0,1650849395624686.0
4.0,-2.0,0.0,2.0,0.0,18.0,6.0,2.0,1650849395640643.0
0.0,-2.0,1.0,-3.0,1.0,-3.0,-1.0,-1.0,1650849395640643.0
0.0,-1.0,-4.0,-4.0,3.0,10.0,2.0,0.0,1650849395642571.0
2.0,2.0,2.0,1.0,-3.0,-5.0,1.0,-2.0,1650849395642571.0
-2.0,-4.0,-4.0,2.0,-4.0,-4.0,1.0,0.0,1650849395663582.0
1.0,0.0,5.0,3.0,3.0,1.0,-1.0,0.0,1650849395663582.0
-2.0,-3.0,-6.0,-2.0,-4.0,-6.0,-3.0,-2.0,1650849395664539.0
-3.0,-2.0,-7.0,-5.0,-1.0,3.0,-2.0,-1.0,1650849395664539.0
-2.0,1.0,2.0,0.0,-3.0,-7.0,-1.0,-1.0,1650849395677547.0
-1.0,1.0,9.0,4.0,6.0,5.0,2.0,0.0,1650849395677547.0
-2.0,-4.0,-5.0,-1.0,1.0,-8.0,-3.0,-4.0,1650849395684479.0
0.0,2.0,-3.0,-8.0,-6.0,19.0,10.0,3.0,1650849395684479.0
1.0,-2.0,-1.0,3.0,-9.0,-8.0,0.0,0.0,1650849395700511.0
1.0,4.0,-4.0,-3.0,13.0,0.0,0.0,1.0,1650849395700511.0
1.0,-2.0,3.0,3.0,1.0,-4.0,-2.0,0.0,1650849395702507.0
-3.0,-1.0,-1.0,-5.0,-16.0,-23.0,-6.0,-2.0,1650849395702507.0
1.0,0.0,-3.0,0.0,10.0,24.0,3.0,1.0,1650849395723451.0
-1.0,-1.0,-1.0,-5.0,-9.0,-6.0,-1.0,-1.0,1650849395723451.0
0.0,-3.0,0.0,3.0,2.0,1.0,2.0,1.0,1650849395724457.0
0.0,-1.0,-2.0,-2.0,-3.0,9.0,0.0,-2.0,1650849395724457.0
-3.0,-2.0,-1.0,-1.0,2.0,-8.0,-4.0,-1.0,1650849395737433.0
-2.0,-3.0,-2.0,-2.0,-6.0,-9.0,-5.0,-2.0,1650849395737433.0
-1.0,1.0,-2.0,-4.0,-1.0,2.0,-1.0,-1.0,1650849395744461.0
0.0,-1.0,3.0,3.0,5.0,4.0,1.0,2.0,1650849395744461.0
-1.0,0.0,5.0,2.0,5.0,1.0,0.0,-1.0,1650849395760419.0
-1.0,-1.0,-8.0,-4.0,-9.0,-15.0,-2.0,-1.0,1650849395760419.0
-1.0,-3.0,-5.0,-7.0,-11.0,6.0,-2.0,-1.0,1650849395762347.0
0.0,0.0,5.0,9.0,10.0,5.0,1.0,1.0,1650849395762347.0
-1.0,3.0,0.0,-4.0,-2.0,0.0,0.0,0.0,1650849395782402.0
-1.0,-5.0,-7.0,1.0,-4.0,-6.0,0.0,-1.0,1650849395782402.0
0.0,0.0,-2.0,1.0,4.0,-3.0,-2.0,-1.0,1650849395791359.0
0.0,-2.0,2.0,-4.0,-10.0,-15.0,-4.0,-1.0,1650849395791359.0
2.0,1.0,6.0,5.0,5.0,9.0,1.0,1.0,1650849395797335.0
-1.0,3.0,2.0,-7.0,-5.0,5.0,-3.0,-3.0,1650849395797335.0
0.0,-1.0,-4.0,-1.0,-5.0,-2.0,3.0,1.0,1650849395804346.0
0.0,-3.0,-17.0,-1.0,8.0,2.0,-2.0,0.0,1650849395804346.0
-1.0,-2.0,2.0,-2.0,-9.0,-10.0,-3.0,-2.0,1650849395820302.0
0.0,0.0,3.0,4.0,1.0,-2.0,-1.0,0.0,1650849395820302.0
3.0,3.0,6.0,1.0,1.0,6.0,2.0,1.0,1650849395822269.0
-1.0,-1.0,3.0,-4.0,-1.0,-5.0,-1.0,-2.0,1650849395822269.0
-2.0,-1.0,-5.0,1.0,-10.0,-18.0,-3.0,-3.0,1650849395843279.0
0.0,2.0,5.0,8.0,10.0,23.0,5.0,1.0,1650849395843279.0
-3.0,-3.0,-5.0,-4.0,11.0,1.0,0.0,-1.0,1650849395845250.0
-3.0,0.0,-2.0,-5.0,-8.0,-6.0,-2.0,0.0,1650849395845250.0
-1.0,0.0,-2.0,1.0,-7.0,-14.0,-4.0,-1.0,1650849395857208.0
0.0,1.0,0.0,6.0,11.0,23.0,6.0,1.0,1650849395857208.0
0.0,-2.0,-2.0,-3.0,-3.0,-13.0,-3.0,-1.0,1650849395866178.0
2.0,2.0,3.0,-3.0,0.0,13.0,3.0,1.0,1650849395866178.0
1.0,-3.0,-3.0,-2.0,-1.0,2.0,0.0,-1.0,1650849395880886.0
-1.0,0.0,-4.0,-2.0,-4.0,-17.0,-4.0,-1.0,1650849395880886.0
-2.0,0.0,0.0,1.0,0.0,5.0,-3.0,-2.0,1650849395882894.0
1.0,0.0,1.0,2.0,1.0,6.0,1.0,1.0,1650849395882894.0
-2.0,-2.0,-2.0,-6.0,-7.0,-4.0,-1.0,-2.0,1650849395902052.0
-1.0,-2.0,-2.0,-2.0,-5.0,-8.0,0.0,0.0,1650849395902052.0
0.0,-1.0,-5.0,5.0,6.0,1.0,1.0,2.0,1650849395911001.0
0.0,0.0,7.0,2.0,2.0,-4.0,1.0,-2.0,1650849395911001.0
0.0,0.0,-2.0,-3.0,-1.0,5.0,0.0,2.0,1650849395917012.0
-1.0,-2.0,-2.0,3.0,1.0,-7.0,-3.0,-2.0,1650849395917012.0
1.0,1.0,4.0,3.0,3.0,6.0,2.0,0.0,1650849395925973.0
-1.0,-8.0,-8.0,-6.0,-8.0,2.0,-2.0,0.0,1650849395925973.0
1.0,10.0,8.0,4.0,19.0,8.0,2.0,0.0,1650849395940932.0
-2.0,-1.0,3.0,7.0,-6.0,-18.0,-3.0,-4.0,1650849395940932.0
-1.0,1.0,3.0,0.0,-5.0,3.0,-2.0,-1.0,1650849395941921.0
-1.0,0.0,-1.0,3.0,1.0,11.0,6.0,-1.0,1650849395941921.0
-2.0,-4.0,-7.0,-4.0,-2.0,-4.0,0.0,0.0,1650849395962861.0
-2.0,0.0,-5.0,-8.0,-6.0,11.0,1.0,1.0,1650849395962861.0
0.0,-3.0,-4.0,2.0,2.0,-11.0,-1.0,-1.0,1650849395964858.0
0.0,0.0,3.0,4.0,3.0,-4.0,-3.0,-2.0,1650849395964858.0
0.0,-4.0,-3.0,-4.0,-1.0,0.0,-1.0,0.0,1650849395976896.0
-1.0,-1.0,-4.0,-2.0,1.0,-1.0,-3.0,-1.0,1650849395976896.0
-1.0,-1.0,-2.0,-2.0,-3.0,0.0,1.0,-1.0,1650849395985874.0
1.0,2.0,2.0,-3.0,-7.0,-4.0,-1.0,0.0,1650849395985874.0
3.0,-1.0,11.0,9.0,-3.0,0.0,1.0,-1.0,1650849396000842.0
1.0,-4.0,-12.0,-6.0,15.0,8.0,0.0,0.0,1650849396000842.0
-2.0,-1.0,2.0,-4.0,-2.0,-1.0,-1.0,1.0,1650849396002837.0
-2.0,-1.0,5.0,5.0,-1.0,-4.0,-3.0,-2.0,1650849396002837.0
-1.0,-2.0,-6.0,-6.0,-9.0,-13.0,-3.0,0.0,1650849396022776.0
1.0,0.0,4.0,-2.0,-1.0,13.0,5.0,2.0,1650849396022776.0
1.0,0.0,-1.0,1.0,1.0,9.0,1.0,0.0,1650849396024770.0
-2.0,1.0,-6.0,-6.0,-8.0,-16.0,-4.0,-2.0,1650849396024770.0
-1.0,0.0,-2.0,3.0,7.0,0.0,-4.0,-1.0,1650849396036766.0
1.0,2.0,8.0,0.0,0.0,15.0,6.0,1.0,1650849396036766.0
0.0,0.0,2.0,1.0,-11.0,-8.0,-2.0,0.0,1650849396045714.0
0.0,-1.0,-2.0,-4.0,6.0,1.0,-1.0,1.0,1650849396045714.0
-2.0,-2.0,-7.0,1.0,-10.0,-12.0,-1.0,-2.0,1650849396059679.0
0.0,1.0,1.0,6.0,11.0,-4.0,-2.0,-1.0,1650849396059679.0
-1.0,-3.0,-2.0,-1.0,-7.0,1.0,1.0,0.0,1650849396068652.0
-1.0,0.0,2.0,6.0,3.0,3.0,-1.0,-1.0,1650849396068652.0
-1.0,1.0,0.0,-5.0,0.0,6.0,2.0,1.0,1650849396083612.0
-1.0,-2.0,-5.0,-9.0,-5.0,-6.0,-3.0,-1.0,1650849396083612.0
0.0,-2.0,2.0,2.0,-2.0,0.0,-2.0,-1.0,1650849396084611.0
-1.0,-2.0,0.0,3.0,3.0,-3.0,-2.0,0.0,1650849396084611.0
-1.0,0.0,-1.0,-1.0,0.0,-7.0,-2.0,-2.0,1650849396096708.0
-2.0,-3.0,-6.0,-4.0,-7.0,3.0,-1.0,-2.0,1650849396096708.0
1.0,1.0,5.0,1.0,2.0,3.0,0.0,-1.0,1650849396105686.0
1.0,-1.0,-4.0,-15.0,0.0,2.0,2.0,0.0,1650849396105686.0
-2.0,-5.0,-24.0,0.0,-1.0,14.0,2.0,-2.0,1650849396120692.0
-1.0,1.0,14.0,7.0,-10.0,-13.0,-4.0,1.0,1650849396120692.0
0.0,-1.0,-2.0,2.0,11.0,0.0,-1.0,-1.0,1650849396122642.0
0.0,3.0,4.0,4.0,1.0,1.0,0.0,1.0,1650849396122642.0
1.0,3.0,7.0,-7.0,0.0,2.0,0.0,1.0,1650849396143652.0
-1.0,-5.0,-19.0,-4.0,-5.0,-7.0,-1.0,1.0,1650849396143652.0
0.0,-2.0,8.0,-4.0,-5.0,-13.0,-2.0,-1.0,1650849396145580.0
-1.0,-1.0,0.0,1.0,-7.0,22.0,5.0,1.0,1650849396145580.0
0.0,-2.0,-9.0,4.0,1.0,4.0,1.0,0.0,1650849396156564.0
-2.0,-2.0,9.0,-3.0,2.0,-1.0,-1.0,-1.0,1650849396156564.0
-3.0,0.0,-14.0,1.0,7.0,1.0,1.0,-1.0,1650849396165525.0
1.0,-2.0,4.0,3.0,-1.0,-9.0,-3.0,0.0,1650849396165525.0
2.0,6.0,1.0,-1.0,-1.0,1.0,0.0,0.0,1650849396180485.0
-1.0,-1.0,5.0,2.0,-5.0,-9.0,-1.0,-1.0,1650849396180485.0
-1.0,-4.0,-6.0,1.0,1.0,14.0,1.0,-1.0,1650849396182481.0
0.0,-1.0,8.0,-2.0,-1.0,-7.0,-1.0,1.0,1650849396182481.0
1.0,-2.0,-10.0,-2.0,3.0,11.0,2.0,1.0,1650849396203663.0
-2.0,-5.0,-6.0,-6.0,-7.0,-10.0,-3.0,-1.0,1650849396203663.0
-1.0,0.0,8.0,1.0,-2.0,-17.0,-4.0,-1.0,1650849396204614.0
-1.0,-2.0,-9.0,-1.0,3.0,21.0,2.0,1.0,1650849396204614.0
1.0,3.0,12.0,3.0,6.0,-1.0,1.0,-1.0,1650849396226204.0
1.0,1.0,-3.0,4.0,6.0,4.0,0.0,-1.0,1650849396226204.0
-2.0,-6.0,1.0,-1.0,-4.0,-3.0,0.0,-1.0,1650849396227827.0
0.0,8.0,-4.0,-4.0,-3.0,-9.0,-3.0,-2.0,1650849396227827.0
-3.0,-12.0,-4.0,-2.0,-1.0,-5.0,-2.0,0.0,1650849396240793.0
1.0,4.0,8.0,2.0,1.0,4.0,0.0,0.0,1650849396240793.0
1.0,15.0,6.0,-1.0,-10.0,-2.0,-1.0,-3.0,1650849396242787.0
-1.0,-7.0,-21.0,-5.0,8.0,-16.0,-4.0,-3.0,1650849396242787.0
0.0,-5.0,-2.0,7.0,9.0,29.0,8.0,1.0,1650849396262754.0
0.0,-4.0,11.0,-5.0,-2.0,-6.0,0.0,-1.0,1650849396262754.0
1.0,-8.0,-9.0,1.0,5.0,5.0,2.0,2.0,1650849396264728.0
0.0,12.0,5.0,1.0,-10.0,-6.0,0.0,-1.0,1650849396264728.0
0.0,9.0,7.0,-7.0,-5.0,-19.0,-3.0,1.0,1650849396285693.0
-5.0,-38.0,-12.0,-4.0,5.0,19.0,3.0,-1.0,1650849396285693.0
1.0,15.0,2.0,-2.0,-6.0,-2.0,-2.0,-1.0,1650849396287687.0
-3.0,-6.0,-10.0,7.0,-3.0,-3.0,-4.0,-4.0,1650849396287687.0
-2.0,7.0,1.0,-1.0,0.0,-8.0,-1.0,0.0,1650849396300666.0
2.0,17.0,21.0,7.0,4.0,6.0,0.0,0.0,1650849396300666.0
-2.0,-10.0,-5.0,-3.0,0.0,-3.0,-2.0,0.0,1650849396306616.0
3.0,2.0,-4.0,1.0,-1.0,0.0,-1.0,0.0,1650849396306616.0
-2.0,-4.0,-3.0,-7.0,-8.0,-7.0,-3.0,-3.0,1650849396323571.0
0.0,9.0,-13.0,-15.0,-2.0,-3.0,-1.0,1.0,1650849396323571.0
-2.0,-5.0,0.0,8.0,8.0,5.0,3.0,0.0,1650849396324568.0
1.0,6.0,26.0,4.0,-6.0,-11.0,-2.0,-1.0,1650849396324568.0
1.0,4.0,3.0,9.0,-3.0,6.0,-1.0,0.0,1650849396345578.0
-2.0,-20.0,-22.0,-15.0,11.0,4.0,4.0,1.0,1650849396345578.0
-2.0,0.0,-5.0,0.0,1.0,-1.0,-3.0,-2.0,1650849396347573.0
3.0,5.0,15.0,-3.0,-2.0,0.0,1.0,1.0,1650849396347573.0
0.0,-10.0,-5.0,-1.0,-10.0,-13.0,-2.0,-3.0,1650849396360577.0
-1.0,11.0,1.0,12.0,0.0,-4.0,-2.0,-2.0,1650849396360577.0
1.0,-6.0,-2.0,-16.0,-2.0,5.0,4.0,3.0,1650849396362554.0
-3.0,-6.0,4.0,15.0,4.0,-2.0,-2.0,-1.0,1650849396362554.0
3.0,8.0,-1.0,-9.0,2.0,2.0,-1.0,1.0,1650849396383504.0
2.0,1.0,-8.0,3.0,-6.0,-1.0,-1.0,-1.0,1650849396383504.0
-3.0,-1.0,5.0,-3.0,-1.0,-6.0,-5.0,-3.0,1650849396384495.0
-1.0,-1.0,0.0,-4.0,0.0,3.0,-1.0,-2.0,1650849396384495.0
-1.0,-4.0,-6.0,-1.0,2.0,-1.0,1.0,1.0,1650849396405438.0
1.0,10.0,20.0,9.0,-3.0,7.0,0.0,-1.0,1650849396405438.0
-1.0,-12.0,-10.0,-6.0,-1.0,-3.0,-2.0,-2.0,1650849396407413.0
0.0,3.0,-4.0,2.0,0.0,-3.0,2.0,0.0,1650849396407413.0
-1.0,-8.0,7.0,5.0,3.0,4.0,0.0,-1.0,1650849396420378.0
1.0,10.0,-1.0,-4.0,-7.0,-9.0,-4.0,0.0,1650849396420378.0
2.0,-8.0,12.0,1.0,-2.0,-1.0,1.0,0.0,1650849396422373.0
-3.0,-5.0,-19.0,-1.0,2.0,4.0,-1.0,-2.0,1650849396422373.0
1.0,5.0,7.0,-4.0,6.0,-1.0,0.0,-1.0,1650849396443384.0
2.0,1.0,-9.0,0.0,-17.0,-5.0,3.0,1.0,1650849396443384.0
4.0,23.0,11.0,3.0,12.0,10.0,1.0,1.0,1650849396445334.0
-11.0,-52.0,-30.0,-19.0,-7.0,-5.0,0.0,-5.0,1650849396445334.0
-3.0,-3.0,11.0,4.0,-7.0,-2.0,-1.0,-1.0,1650849396465443.0
2.0,15.0,-3.0,8.0,9.0,1.0,0.0,0.0,1650849396465443.0
4.0,5.0,-10.0,8.0,14.0,10.0,4.0,3.0,1650849396467410.0
0.0,0.0,10.0,-4.0,-5.0,3.0,3.0,4.0,1650849396467410.0
-5.0,12.0,0.0,-22.0,-10.0,-8.0,-5.0,-3.0,1650849396480403.0
-6.0,-28.0,-34.0,-6.0,-6.0,-8.0,-4.0,-3.0,1650849396480403.0
0.0,9.0,22.0,6.0,-5.0,-4.0,-2.0,-3.0,1650849396487356.0
2.0,16.0,8.0,9.0,6.0,1.0,0.0,1.0,1650849396487356.0
-2.0,-5.0,-9.0,6.0,0.0,-1.0,-1.0,-1.0,1650849396503456.0
-2.0,-14.0,-1.0,-7.0,4.0,9.0,2.0,0.0,1650849396503456.0
-3.0,13.0,-5.0,-16.0,-6.0,-7.0,-5.0,-4.0,1650849396504457.0
4.0,-31.0,0.0,11.0,-1.0,3.0,5.0,3.0,1650849396504457.0
2.0,9.0,-16.0,-20.0,-2.0,-2.0,-1.0,2.0,1650849396525399.0
-2.0,1.0,33.0,27.0,5.0,-2.0,-1.0,0.0,1650849396525399.0
-4.0,-1.0,-5.0,7.0,-2.0,1.0,-1.0,-3.0,1650849396527401.0
0.0,12.0,-5.0,-9.0,-2.0,1.0,2.0,0.0,1650849396527401.0
-5.0,-12.0,-13.0,7.0,-2.0,-5.0,-5.0,-3.0,1650849396540371.0
-1.0,5.0,12.0,-10.0,-5.0,-2.0,0.0,0.0,1650849396540371.0
3.0,-2.0,-4.0,2.0,7.0,3.0,3.0,1.0,1650849396547352.0
-1.0,8.0,-4.0,-5.0,-2.0,1.0,-2.0,-1.0,1650849396547352.0
6.0,-17.0,-1.0,9.0,11.0,7.0,7.0,3.0,1650849396563296.0
-3.0,25.0,36.0,-24.0,-15.0,-13.0,-6.0,-2.0,1650849396563296.0
2.0,2.0,-24.0,3.0,-5.0,-1.0,1.0,2.0,1650849396565291.0
0.0,-24.0,15.0,13.0,15.0,5.0,-1.0,-1.0,1650849396565291.0
3.0,36.0,-20.0,23.0,18.0,9.0,2.0,1.0,1650849396586244.0
-1.0,-11.0,-1.0,-6.0,-2.0,-5.0,-3.0,-3.0,1650849396586244.0
-3.0,-18.0,-8.0,-39.0,-31.0,-25.0,-5.0,-3.0,1650849396587235.0
4.0,27.0,-2.0,26.0,9.0,22.0,4.0,4.0,1650849396587235.0
4.0,12.0,69.0,42.0,32.0,17.0,5.0,2.0,1650849396600197.0
3.0,0.0,3.0,3.0,4.0,-1.0,0.0,1.0,1650849396600197.0
-2.0,2.0,16.0,3.0,6.0,-1.0,-3.0,-3.0,1650849396607180.0
-8.0,-20.0,-34.0,-31.0,-33.0,-21.0,-7.0,-6.0,1650849396607180.0
3.0,13.0,29.0,-3.0,-9.0,-2.0,-1.0,0.0,1650849396623136.0
-7.0,-41.0,-62.0,-14.0,-5.0,-3.0,-2.0,-1.0,1650849396623136.0
5.0,3.0,33.0,14.0,7.0,13.0,5.0,4.0,1650849396625132.0
-1.0,13.0,13.0,-10.0,1.0,-12.0,-5.0,-5.0,1650849396625132.0
