EMG_s0,EMG_s1,EMG_s2,EMG_s3,EMG_s4,EMG_s5,EMG_s6,EMG_s7,timestamp
2.0,6.0,2.0,-2.0,-3.0,-9.0,-4.0,8.0,1650823406642948.0
-2.0,-5.0,-7.0,-5.0,-5.0,-4.0,-2.0,-4.0,1650823406642948.0
-1.0,-4.0,1.0,-5.0,-9.0,-4.0,-4.0,-5.0,1650823406650052.0
-2.0,2.0,-3.0,-5.0,-6.0,-5.0,-3.0,-1.0,1650823406650052.0
-3.0,2.0,3.0,15.0,16.0,14.0,3.0,-1.0,1650823406650052.0
1.0,5.0,-2.0,10.0,1.0,-7.0,-1.0,3.0,1650823406650052.0
-1.0,-2.0,-4.0,-11.0,-2.0,-2.0,0.0,2.0,1650823406651038.0
0.0,0.0,-3.0,-4.0,-1.0,-2.0,2.0,2.0,1650823406651038.0
1.0,-2.0,-2.0,-4.0,-3.0,3.0,-1.0,0.0,1650823406663006.0
0.0,2.0,3.0,3.0,1.0,-2.0,0.0,1.0,1650823406663006.0
1.0,2.0,2.0,-2.0,1.0,0.0,-2.0,-2.0,1650823406667993.0
3.0,3.0,3.0,2.0,4.0,-8.0,-1.0,2.0,1650823406667993.0
2.0,1.0,-8.0,-1.0,-5.0,6.0,4.0,-2.0,1650823406679961.0
1.0,-1.0,6.0,1.0,5.0,4.0,3.0,-1.0,1650823406679961.0
1.0,1.0,-3.0,-1.0,-4.0,2.0,-2.0,1.0,1650823406682953.0
-6.0,-1.0,0.0,0.0,5.0,-6.0,-2.0,-2.0,1650823406682953.0
0.0,-1.0,-1.0,-5.0,-12.0,-14.0,-2.0,-3.0,1650823406709880.0
1.0,2.0,3.0,2.0,2.0,6.0,0.0,1.0,1650823406709880.0
4.0,2.0,-2.0,0.0,12.0,-1.0,3.0,0.0,1650823406714879.0
-1.0,-3.0,1.0,8.0,-4.0,8.0,1.0,0.0,1650823406714879.0
-3.0,-3.0,-7.0,-7.0,1.0,-4.0,-3.0,-1.0,1650823406715888.0
0.0,-1.0,-5.0,-9.0,-11.0,-6.0,-3.0,0.0,1650823406715888.0
-1.0,2.0,11.0,10.0,1.0,1.0,-2.0,2.0,1650823406737601.0
1.0,-3.0,1.0,-4.0,6.0,5.0,-1.0,0.0,1650823406737601.0
1.0,-1.0,1.0,4.0,0.0,-5.0,0.0,-1.0,1650823406775897.0
0.0,3.0,3.0,4.0,-5.0,6.0,1.0,2.0,1650823406775897.0
-1.0,0.0,-6.0,-5.0,-3.0,-2.0,-2.0,-3.0,1650823406775897.0
1.0,0.0,1.0,0.0,6.0,4.0,2.0,-1.0,1650823406775897.0
-4.0,1.0,0.0,0.0,9.0,8.0,-1.0,-1.0,1650823406776860.0
1.0,-1.0,1.0,2.0,-8.0,-9.0,-3.0,-1.0,1650823406776860.0
1.0,-2.0,-4.0,-5.0,-5.0,1.0,-1.0,-1.0,1650823406780873.0
-3.0,0.0,-1.0,-5.0,-8.0,-8.0,-3.0,0.0,1650823406780873.0
0.0,-1.0,1.0,4.0,7.0,9.0,2.0,2.0,1650823406787857.0
0.0,-1.0,-2.0,0.0,15.0,7.0,0.0,1.0,1650823406787857.0
1.0,-1.0,7.0,8.0,-9.0,-12.0,-2.0,0.0,1650823406796807.0
8.0,3.0,2.0,7.0,-6.0,4.0,-3.0,-1.0,1650823406796807.0
3.0,5.0,4.0,0.0,0.0,-6.0,4.0,9.0,1650823406802792.0
-8.0,-4.0,0.0,-1.0,2.0,1.0,-1.0,-19.0,1650823406802792.0
-1.0,3.0,-1.0,-2.0,1.0,2.0,-2.0,-1.0,1650823406819742.0
-4.0,-5.0,-7.0,-8.0,14.0,7.0,-1.0,-2.0,1650823406819742.0
5.0,3.0,-2.0,-5.0,-26.0,-12.0,-2.0,0.0,1650823406825795.0
4.0,1.0,3.0,5.0,9.0,7.0,2.0,5.0,1650823406825795.0
-2.0,-2.0,3.0,4.0,5.0,1.0,0.0,2.0,1650823406848857.0
-1.0,2.0,-1.0,-1.0,2.0,3.0,2.0,-1.0,1650823406848857.0
-4.0,-6.0,-6.0,-8.0,-1.0,0.0,-4.0,-4.0,1650823406849857.0
-1.0,-2.0,-1.0,-1.0,-4.0,-3.0,3.0,2.0,1650823406849857.0
-2.0,0.0,-7.0,-6.0,0.0,5.0,1.0,-2.0,1650823406864040.0
0.0,-3.0,3.0,10.0,5.0,-10.0,0.0,2.0,1650823406864040.0
-2.0,-1.0,1.0,0.0,3.0,3.0,0.0,0.0,1650823406865006.0
-2.0,-2.0,2.0,-4.0,-11.0,-5.0,1.0,0.0,1650823406865006.0
3.0,0.0,1.0,5.0,14.0,14.0,2.0,-1.0,1650823406885953.0
-1.0,-2.0,0.0,-4.0,-25.0,-19.0,-3.0,-1.0,1650823406885953.0
-3.0,-2.0,-8.0,-10.0,-1.0,-5.0,-4.0,-3.0,1650823406886949.0
1.0,3.0,5.0,5.0,1.0,5.0,-1.0,1.0,1650823406886949.0
1.0,2.0,2.0,3.0,8.0,6.0,3.0,3.0,1650823406909124.0
-1.0,-5.0,-16.0,-8.0,7.0,0.0,-1.0,-3.0,1650823406909124.0
-8.0,-4.0,6.0,5.0,-12.0,-4.0,-3.0,-3.0,1650823406909124.0
1.0,-2.0,-8.0,-12.0,5.0,9.0,0.0,2.0,1650823406909124.0
0.0,0.0,1.0,0.0,-16.0,-17.0,-2.0,0.0,1650823406924155.0
1.0,-1.0,1.0,-1.0,-11.0,0.0,0.0,0.0,1650823406924155.0
14.0,11.0,16.0,17.0,15.0,10.0,7.0,3.0,1650823406924155.0
-21.0,-9.0,-2.0,6.0,16.0,3.0,0.0,-4.0,1650823406924155.0
-5.0,-3.0,-4.0,-6.0,0.0,-1.0,-3.0,-7.0,1650823406946161.0
2.0,-7.0,-5.0,-4.0,-10.0,-11.0,-4.0,7.0,1650823406946161.0
-1.0,-4.0,-9.0,-19.0,-11.0,-1.0,-1.0,-1.0,1650823406947097.0
6.0,5.0,3.0,13.0,-2.0,-2.0,1.0,7.0,1650823406947097.0
0.0,-1.0,1.0,-2.0,-1.0,-5.0,0.0,0.0,1650823406968317.0
-1.0,1.0,2.0,4.0,3.0,15.0,1.0,-2.0,1650823406968317.0
1.0,3.0,4.0,4.0,-4.0,1.0,1.0,-2.0,1650823406969310.0
2.0,0.0,-3.0,-9.0,2.0,1.0,-1.0,0.0,1650823406969310.0
-1.0,-1.0,-4.0,0.0,-7.0,-13.0,-2.0,0.0,1650823406983384.0
-1.0,5.0,15.0,4.0,7.0,7.0,3.0,-3.0,1650823406983384.0
-2.0,-4.0,-8.0,2.0,3.0,1.0,0.0,-1.0,1650823406984354.0
2.0,-1.0,-4.0,-4.0,-3.0,-2.0,-3.0,-4.0,1650823406984354.0
0.0,-2.0,-4.0,-3.0,-3.0,2.0,-1.0,0.0,1650823407006750.0
-2.0,-1.0,6.0,0.0,3.0,1.0,1.0,1.0,1650823407006750.0
-4.0,-3.0,-7.0,4.0,2.0,-3.0,-3.0,-3.0,1650823407006750.0
1.0,-2.0,-6.0,-13.0,-6.0,-5.0,-3.0,1.0,1650823407006750.0
1.0,0.0,5.0,3.0,-11.0,-2.0,-1.0,2.0,1650823407028690.0
-3.0,0.0,-4.0,4.0,8.0,2.0,3.0,-1.0,1650823407028690.0
-2.0,2.0,4.0,7.0,11.0,9.0,1.0,-1.0,1650823407029716.0
2.0,-1.0,-2.0,-9.0,-9.0,-5.0,-3.0,-1.0,1650823407029716.0
-2.0,0.0,-1.0,-1.0,4.0,1.0,-2.0,-2.0,1650823407043715.0
1.0,1.0,-2.0,-2.0,-6.0,-5.0,-2.0,-1.0,1650823407043715.0
-1.0,-3.0,-3.0,-4.0,-6.0,1.0,2.0,-2.0,1650823407044677.0
0.0,0.0,3.0,4.0,3.0,-1.0,1.0,0.0,1650823407044677.0
1.0,-3.0,3.0,-2.0,0.0,2.0,0.0,0.0,1650823407066589.0
-1.0,-1.0,-3.0,-1.0,-1.0,-3.0,-2.0,-1.0,1650823407066589.0
0.0,0.0,-1.0,0.0,-1.0,0.0,-4.0,-1.0,1650823407066589.0
2.0,-6.0,2.0,0.0,-18.0,-15.0,-2.0,0.0,1650823407066589.0
-2.0,1.0,10.0,0.0,13.0,12.0,1.0,-2.0,1650823407096577.0
-1.0,1.0,-1.0,1.0,-2.0,0.0,0.0,-2.0,1650823407096577.0
-2.0,-1.0,-3.0,-11.0,-5.0,-4.0,-1.0,0.0,1650823407097512.0
1.0,3.0,1.0,10.0,9.0,-1.0,-1.0,-2.0,1650823407097512.0
-2.0,-3.0,-2.0,4.0,-4.0,4.0,4.0,9.0,1650823407103492.0
0.0,-2.0,-1.0,0.0,8.0,2.0,0.0,-1.0,1650823407103492.0
1.0,0.0,3.0,0.0,-10.0,-7.0,-3.0,0.0,1650823407104489.0
0.0,0.0,-2.0,-5.0,1.0,2.0,-1.0,-2.0,1650823407104489.0
1.0,0.0,-3.0,-1.0,-5.0,-8.0,0.0,2.0,1650823407126495.0
0.0,4.0,2.0,5.0,6.0,4.0,1.0,1.0,1650823407126495.0
0.0,-2.0,-2.0,-2.0,2.0,-4.0,-2.0,-3.0,1650823407127465.0
-1.0,-3.0,1.0,-5.0,-11.0,-3.0,-4.0,2.0,1650823407127465.0
0.0,-2.0,-6.0,-3.0,-2.0,-4.0,-2.0,-6.0,1650823407148607.0
-1.0,2.0,2.0,2.0,-1.0,11.0,6.0,1.0,1650823407148607.0
1.0,0.0,-3.0,9.0,5.0,2.0,0.0,-2.0,1650823407149543.0
-1.0,0.0,4.0,-8.0,5.0,3.0,3.0,-1.0,1650823407149543.0
-1.0,-3.0,2.0,3.0,2.0,-1.0,-3.0,-3.0,1650823407163534.0
-3.0,-3.0,-8.0,-10.0,-7.0,-7.0,-4.0,-3.0,1650823407163534.0
0.0,1.0,4.0,0.0,-4.0,0.0,0.0,4.0,1650823407164502.0
0.0,4.0,-1.0,9.0,0.0,-7.0,2.0,0.0,1650823407164502.0
4.0,-2.0,2.0,-1.0,0.0,1.0,0.0,-3.0,1650823407186443.0
0.0,-1.0,-4.0,-2.0,-2.0,-1.0,0.0,0.0,1650823407186443.0
-1.0,-2.0,1.0,-4.0,3.0,4.0,-4.0,-6.0,1650823407187441.0
1.0,-4.0,-7.0,-1.0,-3.0,0.0,-2.0,-1.0,1650823407187441.0
-5.0,-2.0,-2.0,-1.0,-2.0,-1.0,1.0,-2.0,1650823407216750.0
0.0,2.0,1.0,-2.0,5.0,0.0,-4.0,1.0,1650823407216750.0
0.0,0.0,-3.0,0.0,2.0,-1.0,-1.0,-1.0,1650823407217720.0
-1.0,-1.0,-6.0,-10.0,-8.0,-2.0,-1.0,-1.0,1650823407217720.0
2.0,0.0,0.0,0.0,9.0,1.0,-1.0,0.0,1650823407223733.0
-3.0,0.0,5.0,6.0,-1.0,7.0,2.0,-3.0,1650823407223733.0
-1.0,1.0,0.0,3.0,6.0,-8.0,0.0,1.0,1650823407224713.0
1.0,0.0,-2.0,1.0,-10.0,-7.0,-1.0,-2.0,1650823407224713.0
1.0,-3.0,-7.0,-10.0,-3.0,-6.0,-3.0,3.0,1650823407246653.0
-1.0,-3.0,-8.0,-11.0,-27.0,-7.0,-4.0,-6.0,1650823407246653.0
2.0,0.0,6.0,6.0,14.0,6.0,1.0,0.0,1650823407246653.0
-3.0,1.0,4.0,1.0,4.0,2.0,4.0,0.0,1650823407246653.0
3.0,5.0,6.0,8.0,6.0,6.0,1.0,-2.0,1650823407268587.0
2.0,-6.0,-5.0,0.0,10.0,2.0,-3.0,1.0,1650823407268587.0
-2.0,-4.0,-7.0,-10.0,-13.0,-4.0,1.0,-1.0,1650823407269582.0
-1.0,1.0,-5.0,0.0,0.0,1.0,-5.0,-4.0,1650823407269582.0
-1.0,1.0,1.0,-4.0,-8.0,-7.0,-2.0,1.0,1650823407283610.0
1.0,3.0,2.0,2.0,0.0,-5.0,4.0,1.0,1650823407283610.0
-1.0,-3.0,-7.0,-2.0,5.0,1.0,-3.0,-1.0,1650823407284542.0
-2.0,-2.0,-3.0,-3.0,-3.0,4.0,0.0,-3.0,1650823407284542.0
0.0,-1.0,-3.0,-1.0,-6.0,-4.0,1.0,-1.0,1650823407306550.0
-1.0,-2.0,2.0,-1.0,5.0,-2.0,1.0,1.0,1650823407306550.0
-2.0,0.0,4.0,4.0,0.0,-7.0,-2.0,-1.0,1650823407306550.0
1.0,0.0,4.0,6.0,6.0,8.0,0.0,0.0,1650823407306550.0
1.0,2.0,-5.0,-3.0,-9.0,0.0,0.0,0.0,1650823407336860.0
-2.0,-1.0,-4.0,0.0,2.0,-1.0,-1.0,0.0,1650823407336860.0
0.0,0.0,1.0,-5.0,5.0,11.0,-2.0,1.0,1650823407337831.0
0.0,0.0,-1.0,-2.0,-17.0,-21.0,-3.0,-1.0,1650823407337831.0
-1.0,4.0,3.0,9.0,11.0,8.0,2.0,-3.0,1650823407342844.0
1.0,1.0,2.0,1.0,7.0,-2.0,1.0,1.0,1650823407342844.0
-1.0,-1.0,5.0,5.0,2.0,7.0,1.0,6.0,1650823407350822.0
-3.0,0.0,-3.0,-3.0,-3.0,-2.0,-7.0,-15.0,1650823407350822.0
1.0,-4.0,1.0,0.0,3.0,-7.0,-3.0,0.0,1650823407373870.0
-3.0,-6.0,-11.0,-3.0,-14.0,4.0,-1.0,0.0,1650823407373870.0
-1.0,3.0,7.0,3.0,9.0,-1.0,1.0,-3.0,1650823407374884.0
0.0,1.0,0.0,5.0,3.0,5.0,1.0,6.0,1650823407374884.0
-3.0,-2.0,-1.0,-6.0,-5.0,-4.0,-1.0,1.0,1650823407388896.0
0.0,-1.0,-1.0,2.0,11.0,-3.0,-5.0,-3.0,1650823407388896.0
-1.0,-1.0,1.0,-3.0,-14.0,-2.0,1.0,1.0,1650823407389828.0
1.0,2.0,5.0,7.0,6.0,-7.0,1.0,3.0,1650823407389828.0
-5.0,-2.0,-6.0,-10.0,-3.0,9.0,1.0,-4.0,1650823407402793.0
1.0,-1.0,-2.0,-3.0,3.0,-8.0,-3.0,2.0,1650823407402793.0
-2.0,-3.0,-4.0,0.0,-11.0,-6.0,0.0,-4.0,1650823407410771.0
2.0,1.0,3.0,1.0,5.0,13.0,1.0,2.0,1650823407410771.0
-2.0,-3.0,-3.0,-7.0,-8.0,-16.0,-4.0,-2.0,1650823407426738.0
-1.0,3.0,7.0,7.0,6.0,14.0,2.0,-1.0,1650823407426738.0
1.0,-1.0,-5.0,-3.0,0.0,0.0,2.0,0.0,1650823407426738.0
-2.0,-1.0,-2.0,6.0,21.0,1.0,1.0,0.0,1650823407426738.0
2.0,0.0,0.0,-1.0,-12.0,4.0,-2.0,2.0,1650823407448783.0
-2.0,-1.0,1.0,-4.0,-12.0,-10.0,-1.0,-2.0,1650823407448783.0
2.0,-1.0,3.0,6.0,2.0,-4.0,0.0,-1.0,1650823407449754.0
-1.0,-2.0,-18.0,-12.0,-7.0,-3.0,-2.0,3.0,1650823407449754.0
-3.0,-1.0,10.0,9.0,6.0,3.0,1.0,-4.0,1650823407462789.0
6.0,1.0,11.0,3.0,0.0,0.0,1.0,2.0,1650823407462789.0
-2.0,-1.0,-9.0,1.0,-1.0,0.0,0.0,9.0,1650823407470762.0
2.0,-4.0,-3.0,-9.0,-7.0,0.0,-1.0,-7.0,1650823407470762.0
-2.0,-5.0,-16.0,-13.0,1.0,-2.0,-5.0,-1.0,1650823407494697.0
-6.0,1.0,2.0,2.0,-8.0,-1.0,3.0,-5.0,1650823407494697.0
1.0,2.0,3.0,2.0,7.0,12.0,-2.0,0.0,1650823407495631.0
1.0,1.0,4.0,5.0,16.0,-2.0,0.0,3.0,1650823407495631.0
0.0,-4.0,-3.0,5.0,-23.0,-17.0,-3.0,-6.0,1650823407508662.0
1.0,4.0,6.0,4.0,11.0,11.0,4.0,9.0,1650823407508662.0
0.0,-2.0,-1.0,-5.0,-1.0,-3.0,-1.0,-4.0,1650823407509594.0
0.0,1.0,-2.0,-3.0,-1.0,7.0,3.0,0.0,1650823407509594.0
-2.0,1.0,13.0,11.0,7.0,3.0,2.0,-6.0,1650823407523590.0
-3.0,-6.0,-11.0,-10.0,-7.0,-8.0,-4.0,-1.0,1650823407523590.0
2.0,-1.0,-3.0,-3.0,5.0,8.0,-3.0,-5.0,1650823407530604.0
1.0,1.0,3.0,-1.0,-18.0,-19.0,-3.0,2.0,1650823407530604.0
2.0,2.0,2.0,2.0,0.0,3.0,4.0,5.0,1650823407546525.0
2.0,5.0,3.0,6.0,0.0,0.0,-3.0,-2.0,1650823407546525.0
-3.0,-2.0,2.0,-2.0,2.0,0.0,2.0,0.0,1650823407546525.0
-1.0,-7.0,-4.0,1.0,1.0,2.0,0.0,-3.0,1650823407546525.0
2.0,3.0,-5.0,-9.0,-6.0,4.0,2.0,2.0,1650823407568468.0
-1.0,2.0,-2.0,5.0,8.0,5.0,-4.0,-1.0,1650823407568468.0
-2.0,-2.0,-5.0,-6.0,-13.0,-12.0,-5.0,-3.0,1650823407569434.0
-6.0,-4.0,0.0,1.0,2.0,-2.0,-2.0,-2.0,1650823407569434.0
4.0,4.0,3.0,5.0,9.0,3.0,9.0,2.0,1650823407583443.0
-5.0,0.0,-2.0,-4.0,-3.0,-1.0,-1.0,-1.0,1650823407583443.0
-2.0,2.0,1.0,-1.0,1.0,-4.0,0.0,-4.0,1650823407590443.0
2.0,-1.0,0.0,-2.0,-8.0,-1.0,-4.0,3.0,1650823407590443.0
-3.0,2.0,8.0,2.0,14.0,19.0,-4.0,-1.0,1650823407605972.0
2.0,0.0,-7.0,-6.0,-10.0,-18.0,1.0,-2.0,1650823407605972.0
-1.0,-1.0,-8.0,-4.0,-4.0,-4.0,-1.0,1.0,1650823407606903.0
-1.0,3.0,-1.0,1.0,4.0,3.0,1.0,2.0,1650823407606903.0
2.0,-4.0,-10.0,-5.0,2.0,-2.0,-5.0,1.0,1650823407636823.0
0.0,0.0,-5.0,-9.0,-14.0,4.0,4.0,-1.0,1650823407636823.0
3.0,-1.0,7.0,-3.0,7.0,3.0,2.0,-1.0,1650823407637822.0
-6.0,-4.0,-7.0,3.0,3.0,5.0,-1.0,-3.0,1650823407637822.0
1.0,1.0,6.0,3.0,8.0,0.0,0.0,0.0,1650823407650785.0
0.0,-4.0,1.0,4.0,6.0,0.0,-7.0,-1.0,1650823407650785.0
0.0,0.0,-12.0,-11.0,-24.0,-10.0,4.0,0.0,1650823407651784.0
5.0,6.0,7.0,7.0,11.0,7.0,7.0,5.0,1650823407651784.0
-6.0,0.0,9.0,9.0,8.0,1.0,2.0,2.0,1650823407666747.0
2.0,-3.0,-5.0,-2.0,-4.0,-7.0,-1.0,1.0,1650823407666747.0
-11.0,-10.0,-15.0,-3.0,-8.0,-5.0,-8.0,-9.0,1650823407666747.0
2.0,3.0,1.0,-6.0,-4.0,4.0,0.0,2.0,1650823407666747.0
14.0,6.0,5.0,5.0,2.0,0.0,2.0,9.0,1650823407688883.0
-6.0,-3.0,11.0,13.0,5.0,1.0,5.0,-3.0,1650823407688883.0
-4.0,-5.0,-16.0,-2.0,0.0,-2.0,-10.0,-6.0,1650823407689815.0
-3.0,-4.0,-6.0,-12.0,-10.0,4.0,-1.0,-2.0,1650823407689815.0
3.0,0.0,-1.0,-1.0,-5.0,-14.0,-7.0,-6.0,1650823407710825.0
1.0,1.0,3.0,2.0,14.0,5.0,2.0,1.0,1650823407710825.0
3.0,6.0,22.0,12.0,5.0,10.0,5.0,4.0,1650823407711756.0
1.0,1.0,4.0,8.0,-1.0,3.0,17.0,1.0,1650823407711756.0
-6.0,-5.0,-8.0,-7.0,0.0,0.0,-14.0,-11.0,1650823407725743.0
2.0,1.0,-7.0,-13.0,-2.0,0.0,-3.0,2.0,1650823407725743.0
2.0,-3.0,0.0,-6.0,-2.0,-5.0,-3.0,1.0,1650823407726770.0
10.0,-12.0,-4.0,0.0,-2.0,0.0,-8.0,-1.0,1650823407726770.0
12.0,12.0,19.0,14.0,11.0,15.0,23.0,17.0,1650823407748859.0
-18.0,-18.0,-15.0,-11.0,-13.0,0.0,36.0,9.0,1650823407748859.0
-15.0,-12.0,-10.0,-5.0,-12.0,-25.0,-57.0,-45.0,1650823407749818.0
1.0,7.0,11.0,-6.0,0.0,7.0,3.0,21.0,1650823407749818.0
-5.0,-2.0,-10.0,-3.0,0.0,-7.0,2.0,-2.0,1650823407770735.0
22.0,18.0,25.0,11.0,7.0,13.0,15.0,22.0,1650823407770735.0
14.0,0.0,-22.0,-4.0,-1.0,6.0,6.0,-14.0,1650823407771733.0
-19.0,-8.0,1.0,-2.0,-7.0,-19.0,-16.0,-10.0,1650823407771733.0
-12.0,6.0,0.0,5.0,-3.0,-1.0,0.0,-2.0,1650823407794834.0
-8.0,-16.0,-7.0,-9.0,7.0,7.0,-10.0,-18.0,1650823407794834.0
-1.0,4.0,11.0,4.0,-1.0,8.0,21.0,40.0,1650823407794834.0
18.0,2.0,-4.0,3.0,-10.0,-5.0,6.0,-12.0,1650823407794834.0
-4.0,6.0,-2.0,-2.0,10.0,15.0,-6.0,2.0,1650823407808826.0
-12.0,3.0,9.0,6.0,-10.0,-22.0,-32.0,-26.0,1650823407808826.0
6.0,-5.0,-14.0,-23.0,-9.0,-1.0,-7.0,19.0,1650823407809794.0
4.0,9.0,13.0,16.0,18.0,2.0,23.0,40.0,1650823407809794.0
-12.0,-11.0,-7.0,-5.0,-2.0,6.0,-4.0,-23.0,1650823407830737.0
16.0,4.0,-17.0,-1.0,-7.0,4.0,12.0,11.0,1650823407830737.0
7.0,8.0,12.0,3.0,2.0,1.0,15.0,10.0,1650823407838783.0
-19.0,-35.0,-17.0,-18.0,-20.0,-17.0,-24.0,-15.0,1650823407838783.0
-11.0,-2.0,12.0,5.0,-3.0,-1.0,3.0,38.0,1650823407853684.0
-1.0,-19.0,-12.0,11.0,5.0,-2.0,7.0,-9.0,1650823407853684.0
13.0,45.0,14.0,0.0,2.0,3.0,-18.0,-28.0,1650823407854702.0
-4.0,1.0,-8.0,6.0,7.0,4.0,11.0,27.0,1650823407854702.0
8.0,-12.0,-6.0,-9.0,-3.0,-2.0,-14.0,-39.0,1650823407867733.0
-3.0,19.0,4.0,-7.0,-3.0,3.0,1.0,11.0,1650823407867733.0
4.0,-3.0,20.0,21.0,-1.0,-2.0,11.0,25.0,1650823407876690.0
3.0,-6.0,-7.0,-7.0,20.0,4.0,11.0,-6.0,1650823407876690.0
25.0,3.0,-7.0,2.0,-12.0,-7.0,-25.0,35.0,1650823407891762.0
-27.0,-23.0,-18.0,-9.0,-5.0,-1.0,-11.0,-67.0,1650823407891762.0
16.0,23.0,-1.0,-13.0,1.0,-7.0,-8.0,61.0,1650823407891762.0
-23.0,-36.0,-12.0,-2.0,-1.0,-17.0,-24.0,-27.0,1650823407891762.0
-2.0,-1.0,-8.0,-8.0,-11.0,-1.0,15.0,9.0,1650823407913661.0
2.0,2.0,17.0,11.0,8.0,5.0,-13.0,-10.0,1650823407913661.0
21.0,-17.0,11.0,18.0,18.0,26.0,29.0,51.0,1650823407914672.0
-8.0,91.0,17.0,11.0,2.0,-1.0,-9.0,-25.0,1650823407914672.0
-8.0,-3.0,-5.0,-20.0,-22.0,-21.0,-10.0,-13.0,1650823407929624.0
16.0,31.0,24.0,15.0,5.0,7.0,10.0,28.0,1650823407929624.0
-29.0,-29.0,-18.0,-21.0,-4.0,-1.0,13.0,-58.0,1650823407936600.0
19.0,-45.0,6.0,15.0,-4.0,5.0,-12.0,5.0,1650823407936600.0
-15.0,-10.0,-1.0,-4.0,10.0,-11.0,-10.0,-18.0,1650823407951607.0
20.0,21.0,-16.0,-8.0,-2.0,2.0,-14.0,2.0,1650823407951607.0
-27.0,0.0,31.0,37.0,9.0,20.0,18.0,1.0,1650823407951607.0
7.0,17.0,-8.0,-15.0,-4.0,-1.0,-29.0,-34.0,1650823407951607.0
-21.0,-96.0,-35.0,-20.0,-12.0,-20.0,7.0,11.0,1650823407974108.0
-1.0,7.0,-8.0,-14.0,-6.0,-6.0,-4.0,12.0,1650823407974108.0
-12.0,-11.0,-7.0,2.0,-4.0,-13.0,-8.0,-8.0,1650823407974515.0
18.0,21.0,23.0,5.0,2.0,13.0,14.0,19.0,1650823407974515.0
5.0,23.0,-10.0,16.0,1.0,8.0,5.0,-3.0,1650823407988480.0
-7.0,-34.0,-4.0,7.0,2.0,-6.0,1.0,18.0,1650823407988480.0
6.0,-3.0,17.0,18.0,10.0,6.0,16.0,-15.0,1650823407996485.0
-10.0,0.0,-20.0,-17.0,-13.0,-6.0,-1.0,-9.0,1650823407996485.0
2.0,11.0,-16.0,-14.0,0.0,4.0,-7.0,-21.0,1650823408010873.0
12.0,9.0,19.0,10.0,3.0,-5.0,7.0,29.0,1650823408010873.0
-27.0,-3.0,-34.0,-19.0,-12.0,-13.0,-5.0,-14.0,1650823408011843.0
7.0,20.0,26.0,17.0,5.0,2.0,11.0,9.0,1650823408011843.0
-8.0,-39.0,-12.0,-11.0,-7.0,9.0,18.0,12.0,1650823408033905.0
-5.0,69.0,8.0,-4.0,-2.0,-5.0,-42.0,-60.0,1650823408033905.0
2.0,-38.0,-6.0,-3.0,3.0,-6.0,11.0,4.0,1650823408034850.0
-14.0,1.0,7.0,1.0,-18.0,-7.0,-32.0,-38.0,1650823408034850.0
1.0,33.0,28.0,13.0,10.0,10.0,44.0,34.0,1650823408047801.0
7.0,-11.0,3.0,-8.0,-2.0,-7.0,-9.0,25.0,1650823408047801.0
25.0,-1.0,-18.0,10.0,4.0,5.0,-16.0,-42.0,1650823408056784.0
-12.0,-1.0,-26.0,-24.0,-8.0,-3.0,-4.0,-11.0,1650823408056784.0
1.0,1.0,5.0,2.0,-3.0,-2.0,4.0,-2.0,1650823408070741.0
-2.0,-16.0,16.0,19.0,4.0,6.0,3.0,-2.0,1650823408070741.0
4.0,22.0,-11.0,-25.0,8.0,4.0,21.0,20.0,1650823408071755.0
-2.0,-16.0,-9.0,5.0,0.0,7.0,5.0,-1.0,1650823408071755.0
4.0,13.0,4.0,16.0,7.0,-4.0,-18.0,-9.0,1650823408094162.0
-1.0,-1.0,-1.0,-9.0,-6.0,-6.0,13.0,19.0,1650823408094162.0
-15.0,-2.0,-8.0,-21.0,-13.0,-5.0,-17.0,-5.0,1650823408094162.0
8.0,1.0,8.0,17.0,10.0,-1.0,17.0,18.0,1650823408094162.0
10.0,15.0,8.0,5.0,3.0,6.0,-11.0,-14.0,1650823408118813.0
-23.0,-22.0,-8.0,4.0,0.0,3.0,15.0,16.0,1650823408118813.0
3.0,4.0,9.0,6.0,1.0,-4.0,-8.0,-24.0,1650823408118813.0
-17.0,-16.0,4.0,-2.0,-3.0,0.0,2.0,9.0,1650823408118813.0
2.0,24.0,21.0,22.0,10.0,5.0,4.0,4.0,1650823408139746.0
-4.0,-20.0,-50.0,-46.0,-21.0,-11.0,-7.0,-15.0,1650823408139746.0
3.0,9.0,24.0,4.0,2.0,0.0,-11.0,6.0,1650823408139746.0
6.0,-4.0,6.0,2.0,9.0,5.0,16.0,3.0,1650823408139746.0
9.0,-2.0,9.0,0.0,-2.0,-2.0,3.0,16.0,1650823408153648.0
4.0,-11.0,-15.0,-14.0,-6.0,-8.0,-10.0,-4.0,1650823408153648.0
-15.0,20.0,16.0,9.0,-4.0,-6.0,-12.0,3.0,1650823408154654.0
4.0,11.0,6.0,-1.0,5.0,5.0,6.0,5.0,1650823408154654.0
6.0,6.0,-12.0,7.0,1.0,5.0,-13.0,20.0,1650823408167674.0
2.0,-1.0,1.0,-25.0,-9.0,0.0,7.0,-19.0,1650823408167674.0
13.0,16.0,18.0,15.0,4.0,-2.0,-7.0,7.0,1650823408176653.0
-1.0,-13.0,-4.0,17.0,9.0,3.0,4.0,17.0,1650823408176653.0
-9.0,-10.0,-19.0,-29.0,-4.0,-2.0,0.0,-10.0,1650823408191641.0
14.0,6.0,8.0,11.0,-2.0,-4.0,2.0,27.0,1650823408191641.0
2.0,-8.0,-6.0,-7.0,0.0,2.0,11.0,1.0,1650823408191641.0
-1.0,19.0,31.0,17.0,10.0,9.0,-12.0,-16.0,1650823408191641.0
-6.0,-39.0,-36.0,-21.0,3.0,-5.0,-2.0,-13.0,1650823408213562.0
-2.0,-3.0,-3.0,10.0,-16.0,-7.0,-7.0,-15.0,1650823408213562.0
0.0,-7.0,5.0,2.0,-1.0,12.0,15.0,10.0,1650823408214485.0
6.0,6.0,-5.0,-10.0,-14.0,-19.0,0.0,-9.0,1650823408214485.0
-11.0,5.0,-30.0,-39.0,-4.0,-6.0,-4.0,20.0,1650823408236447.0
-2.0,-26.0,19.0,22.0,11.0,8.0,-8.0,-58.0,1650823408236447.0
3.0,6.0,-17.0,-6.0,-6.0,-13.0,-12.0,-17.0,1650823408237424.0
-3.0,-25.0,-14.0,-16.0,-4.0,2.0,1.0,7.0,1650823408237424.0
4.0,8.0,23.0,12.0,0.0,-2.0,-9.0,-40.0,1650823408251386.0
3.0,11.0,-1.0,2.0,-2.0,3.0,16.0,35.0,1650823408251386.0
2.0,6.0,5.0,5.0,4.0,1.0,2.0,16.0,1650823408252406.0
-12.0,-56.0,-44.0,-28.0,-12.0,-8.0,-4.0,-11.0,1650823408252406.0
6.0,9.0,16.0,12.0,-3.0,-1.0,5.0,1.0,1650823408273328.0
1.0,16.0,23.0,19.0,13.0,7.0,4.0,9.0,1650823408273328.0
0.0,-11.0,-36.0,-25.0,-7.0,-4.0,-8.0,-22.0,1650823408274325.0
-3.0,23.0,13.0,-3.0,-1.0,4.0,11.0,23.0,1650823408274325.0
-2.0,5.0,18.0,20.0,4.0,8.0,-11.0,-19.0,1650823408297264.0
17.0,-38.0,-12.0,-22.0,1.0,-5.0,8.0,19.0,1650823408297264.0
-17.0,-12.0,-10.0,-4.0,-15.0,-11.0,-12.0,-1.0,1650823408297264.0
2.0,1.0,7.0,8.0,7.0,9.0,20.0,8.0,1650823408297264.0
-1.0,4.0,-8.0,-19.0,1.0,4.0,-5.0,-1.0,1650823408310924.0
-1.0,-2.0,12.0,18.0,12.0,5.0,5.0,23.0,1650823408310924.0
10.0,3.0,12.0,8.0,-8.0,-6.0,-11.0,-5.0,1650823408311924.0
2.0,-9.0,-19.0,-8.0,-5.0,0.0,-2.0,-5.0,1650823408311924.0
-14.0,9.0,12.0,7.0,-4.0,-12.0,-13.0,-12.0,1650823408333776.0
-2.0,17.0,5.0,11.0,9.0,4.0,-6.0,-24.0,1650823408333776.0
-9.0,-25.0,-31.0,-26.0,-5.0,3.0,4.0,-1.0,1650823408334713.0
-9.0,13.0,11.0,3.0,0.0,-3.0,-11.0,-8.0,1650823408334713.0
23.0,14.0,14.0,10.0,3.0,3.0,3.0,3.0,1650823408364861.0
-7.0,13.0,1.0,2.0,8.0,5.0,5.0,6.0,1650823408364861.0
9.0,-2.0,-8.0,-3.0,-5.0,-1.0,7.0,34.0,1650823408364861.0
-2.0,1.0,8.0,13.0,1.0,1.0,-2.0,-16.0,1650823408364861.0
7.0,19.0,13.0,3.0,9.0,9.0,11.0,14.0,1650823408370848.0
-12.0,-39.0,-27.0,-15.0,-11.0,-12.0,-9.0,-8.0,1650823408370848.0
-2.0,0.0,13.0,5.0,1.0,1.0,9.0,-7.0,1650823408371845.0
24.0,8.0,2.0,-5.0,-2.0,0.0,2.0,43.0,1650823408371845.0
-13.0,-18.0,-35.0,-10.0,0.0,-6.0,-7.0,-50.0,1650823408393852.0
0.0,15.0,7.0,4.0,-15.0,5.0,-7.0,-7.0,1650823408393852.0
-1.0,7.0,22.0,17.0,9.0,1.0,5.0,-2.0,1650823408394787.0
2.0,-9.0,-23.0,-25.0,-13.0,-4.0,-3.0,14.0,1650823408394787.0
3.0,5.0,27.0,22.0,12.0,-2.0,-3.0,14.0,1650823408416776.0
-4.0,-5.0,-18.0,-16.0,-12.0,-4.0,8.0,5.0,1650823408416776.0
7.0,-3.0,-12.0,-9.0,5.0,-2.0,-19.0,-63.0,1650823408417759.0
-8.0,1.0,6.0,2.0,-5.0,-7.0,-1.0,-7.0,1650823408417759.0
-12.0,-7.0,-10.0,-4.0,1.0,-1.0,15.0,15.0,1650823408431708.0
5.0,1.0,3.0,7.0,-7.0,5.0,-11.0,-11.0,1650823408431708.0
0.0,15.0,10.0,3.0,12.0,4.0,10.0,20.0,1650823408431708.0
6.0,-46.0,14.0,31.0,16.0,2.0,-12.0,-10.0,1650823408431708.0
-5.0,7.0,-46.0,-51.0,-17.0,-3.0,1.0,-1.0,1650823408453761.0
-7.0,-30.0,0.0,-6.0,-1.0,-9.0,-5.0,5.0,1650823408453761.0
-7.0,-5.0,5.0,-1.0,-3.0,8.0,-2.0,5.0,1650823408454769.0
3.0,10.0,14.0,17.0,1.0,-7.0,-9.0,-14.0,1650823408454769.0
20.0,-26.0,-7.0,9.0,-13.0,-2.0,6.0,18.0,1650823408484731.0
-13.0,9.0,-10.0,-14.0,2.0,5.0,1.0,1.0,1650823408484731.0
5.0,14.0,26.0,11.0,3.0,2.0,1.0,9.0,1650823408484731.0
-14.0,-2.0,-34.0,-26.0,0.0,1.0,6.0,-14.0,1650823408484731.0
6.0,2.0,16.0,9.0,-1.0,-1.0,-17.0,6.0,1650823408491669.0
4.0,13.0,0.0,0.0,5.0,3.0,14.0,20.0,1650823408491669.0
1.0,2.0,16.0,12.0,1.0,4.0,12.0,15.0,1650823408491669.0
2.0,6.0,-20.0,-15.0,-8.0,-18.0,-12.0,10.0,1650823408491669.0
1.0,-1.0,3.0,6.0,0.0,-3.0,-3.0,-41.0,1650823408513611.0
-15.0,-12.0,9.0,14.0,9.0,1.0,-18.0,-23.0,1650823408513611.0
-8.0,-2.0,-15.0,-14.0,17.0,18.0,15.0,4.0,1650823408514609.0
2.0,3.0,-13.0,-17.0,-37.0,-20.0,4.0,10.0,1650823408514609.0
-11.0,-3.0,5.0,4.0,5.0,6.0,3.0,-5.0,1650823408536821.0
15.0,16.0,21.0,16.0,19.0,2.0,1.0,-2.0,1650823408536821.0
10.0,23.0,43.0,25.0,1.0,4.0,-2.0,4.0,1650823408537755.0
-11.0,-19.0,-64.0,-35.0,-4.0,1.0,-6.0,-31.0,1650823408537755.0
-2.0,-4.0,-15.0,-28.0,-8.0,-6.0,6.0,33.0,1650823408550899.0
0.0,14.0,12.0,8.0,1.0,2.0,-3.0,0.0,1650823408550899.0
-1.0,-17.0,-6.0,-4.0,3.0,-2.0,-11.0,-2.0,1650823408551831.0
-13.0,7.0,27.0,17.0,-2.0,-1.0,7.0,-6.0,1650823408551831.0
1.0,9.0,23.0,19.0,8.0,8.0,4.0,-6.0,1650823408574142.0
1.0,-19.0,-33.0,-14.0,-1.0,-2.0,14.0,22.0,1650823408574142.0
-2.0,0.0,4.0,-2.0,-10.0,-10.0,-14.0,-24.0,1650823408574142.0
-9.0,-3.0,10.0,10.0,10.0,16.0,-1.0,-14.0,1650823408574142.0
-2.0,-6.0,2.0,10.0,-5.0,-10.0,0.0,17.0,1650823408604866.0
3.0,-2.0,-24.0,-32.0,-6.0,-11.0,-13.0,5.0,1650823408604866.0
4.0,8.0,-6.0,4.0,-1.0,-2.0,11.0,37.0,1650823408604866.0
19.0,17.0,42.0,33.0,34.0,17.0,14.0,44.0,1650823408604866.0
-17.0,9.0,22.0,21.0,-12.0,-2.0,-5.0,-30.0,1650823408610850.0
4.0,-2.0,-25.0,-27.0,-5.0,-4.0,-4.0,5.0,1650823408610850.0
-10.0,-25.0,-62.0,-62.0,-31.0,-13.0,-7.0,3.0,1650823408618826.0
0.0,1.0,7.0,5.0,8.0,-1.0,-2.0,-7.0,1650823408618826.0
14.0,18.0,22.0,22.0,11.0,10.0,5.0,20.0,1650823408633825.0
-10.0,-9.0,11.0,14.0,-7.0,-4.0,1.0,-8.0,1650823408633825.0
-3.0,-9.0,-1.0,4.0,0.0,-3.0,-5.0,-13.0,1650823408634758.0
3.0,5.0,-13.0,-4.0,1.0,4.0,-1.0,-14.0,1650823408634758.0
-25.0,2.0,-8.0,-16.0,4.0,2.0,-5.0,-9.0,1650823408656911.0
3.0,-16.0,-3.0,12.0,-9.0,-7.0,2.0,-16.0,1650823408656911.0
-10.0,27.0,22.0,10.0,5.0,0.0,-5.0,-28.0,1650823408657893.0
10.0,9.0,12.0,5.0,3.0,1.0,-3.0,11.0,1650823408657893.0
7.0,7.0,4.0,7.0,5.0,5.0,14.0,58.0,1650823408670859.0
18.0,12.0,-3.0,3.0,-3.0,0.0,-14.0,-4.0,1650823408670859.0
-26.0,-19.0,-15.0,-8.0,3.0,4.0,27.0,20.0,1650823408671856.0
10.0,19.0,17.0,-5.0,-9.0,-8.0,-18.0,10.0,1650823408671856.0
3.0,-23.0,-10.0,0.0,12.0,4.0,2.0,-5.0,1650823408694108.0
-5.0,8.0,0.0,-11.0,-6.0,1.0,8.0,26.0,1650823408694108.0
7.0,-6.0,-17.0,3.0,-3.0,-4.0,1.0,-8.0,1650823408694108.0
0.0,-6.0,-8.0,-5.0,-8.0,-3.0,2.0,-6.0,1650823408694108.0
-5.0,-8.0,17.0,11.0,10.0,1.0,-4.0,-14.0,1650823408716007.0
-4.0,-5.0,-16.0,-10.0,4.0,-1.0,3.0,6.0,1650823408716007.0
9.0,7.0,19.0,22.0,2.0,2.0,-3.0,7.0,1650823408723983.0
-1.0,-3.0,-17.0,-18.0,-8.0,-1.0,6.0,3.0,1650823408723983.0
0.0,-11.0,-4.0,-2.0,-2.0,1.0,-5.0,5.0,1650823408731036.0
12.0,9.0,20.0,13.0,9.0,4.0,1.0,-11.0,1650823408731036.0
-12.0,-8.0,-12.0,-3.0,-4.0,-3.0,-7.0,-8.0,1650823408731973.0
-2.0,3.0,4.0,-1.0,1.0,3.0,0.0,-11.0,1650823408731973.0
4.0,6.0,-1.0,3.0,-1.0,-1.0,2.0,19.0,1650823408762043.0
0.0,-1.0,7.0,6.0,-2.0,-1.0,-17.0,-46.0,1650823408762043.0
0.0,-9.0,-6.0,-3.0,-3.0,0.0,8.0,6.0,1650823408762971.0
-2.0,-1.0,-1.0,-3.0,-3.0,-5.0,0.0,4.0,1650823408762971.0
-1.0,-5.0,-12.0,-11.0,-4.0,-3.0,3.0,-3.0,1650823408776996.0
-6.0,10.0,17.0,4.0,4.0,2.0,-11.0,-7.0,1650823408776996.0
8.0,7.0,12.0,13.0,8.0,2.0,0.0,2.0,1650823408777931.0
-5.0,-7.0,-14.0,-3.0,-6.0,-2.0,-5.0,-3.0,1650823408777931.0
-3.0,4.0,3.0,-3.0,-7.0,-5.0,4.0,-5.0,1650823408790962.0
15.0,5.0,13.0,7.0,-2.0,9.0,5.0,-8.0,1650823408790962.0
2.0,-3.0,-9.0,-2.0,-6.0,-12.0,-5.0,-6.0,1650823408791894.0
1.0,-6.0,-1.0,-11.0,7.0,6.0,12.0,38.0,1650823408791894.0
5.0,0.0,-9.0,-1.0,-4.0,-3.0,-8.0,-29.0,1650823408814138.0
-8.0,1.0,9.0,3.0,2.0,5.0,7.0,21.0,1650823408814138.0
4.0,23.0,11.0,3.0,-6.0,-3.0,-5.0,0.0,1650823408814138.0
-14.0,-62.0,-23.0,4.0,-4.0,-2.0,-7.0,-21.0,1650823408814138.0
8.0,1.0,-5.0,-16.0,-8.0,-1.0,-4.0,-25.0,1650823408837168.0
-6.0,1.0,-2.0,1.0,0.0,-2.0,-3.0,-5.0,1650823408837168.0
2.0,4.0,5.0,-5.0,9.0,5.0,3.0,15.0,1650823408837168.0
10.0,12.0,-4.0,4.0,-8.0,-8.0,2.0,-18.0,1650823408837168.0
-15.0,5.0,9.0,8.0,7.0,4.0,-6.0,-3.0,1650823408850133.0
-18.0,-16.0,-18.0,-17.0,-10.0,-7.0,2.0,-16.0,1650823408850133.0
12.0,-1.0,-2.0,2.0,-1.0,0.0,-6.0,20.0,1650823408859149.0
8.0,18.0,19.0,5.0,7.0,8.0,-1.0,0.0,1650823408859149.0
-1.0,-13.0,-16.0,-12.0,-9.0,-7.0,-4.0,-1.0,1650823408873048.0
6.0,15.0,13.0,8.0,7.0,5.0,2.0,3.0,1650823408873048.0
-10.0,-1.0,4.0,3.0,6.0,3.0,4.0,11.0,1650823408880914.0
-2.0,18.0,15.0,1.0,-5.0,0.0,-11.0,-26.0,1650823408880914.0
-7.0,-7.0,-7.0,-8.0,-5.0,-7.0,8.0,4.0,1650823408896814.0
-3.0,3.0,-12.0,-8.0,-5.0,0.0,5.0,6.0,1650823408896814.0
6.0,1.0,10.0,15.0,9.0,2.0,-3.0,-14.0,1650823408897746.0
-5.0,-1.0,-10.0,-15.0,9.0,-3.0,-4.0,-2.0,1650823408897746.0
7.0,13.0,8.0,-1.0,-7.0,0.0,1.0,4.0,1650823408910797.0
-1.0,-9.0,15.0,14.0,0.0,1.0,2.0,18.0,1650823408910797.0
10.0,-16.0,-35.0,-14.0,-8.0,3.0,-1.0,-28.0,1650823408918844.0
-19.0,13.0,3.0,-12.0,2.0,-6.0,-18.0,-14.0,1650823408918844.0
-1.0,-3.0,1.0,8.0,5.0,5.0,6.0,7.0,1650823408933737.0
6.0,2.0,0.0,-8.0,-2.0,-9.0,-5.0,0.0,1650823408933737.0
0.0,-4.0,8.0,17.0,-3.0,-2.0,-2.0,30.0,1650823408934747.0
13.0,-19.0,11.0,4.0,-2.0,4.0,5.0,3.0,1650823408934747.0
-1.0,-32.0,-17.0,-9.0,-2.0,-5.0,-2.0,-3.0,1650823408956831.0
-11.0,14.0,15.0,11.0,2.0,1.0,3.0,-5.0,1650823408956831.0
-1.0,1.0,-8.0,-14.0,-2.0,2.0,2.0,-6.0,1650823408957820.0
4.0,-5.0,-8.0,1.0,-3.0,-3.0,3.0,4.0,1650823408957820.0
-4.0,7.0,2.0,0.0,5.0,0.0,-9.0,-6.0,1650823408970843.0
3.0,2.0,4.0,3.0,-7.0,-1.0,8.0,9.0,1650823408970843.0
-6.0,-11.0,4.0,4.0,19.0,11.0,-7.0,-12.0,1650823408978759.0
0.0,13.0,2.0,8.0,-6.0,-10.0,5.0,-13.0,1650823408978759.0
7.0,1.0,-15.0,-15.0,-16.0,-4.0,8.0,27.0,1650823409001866.0
-3.0,-1.0,4.0,1.0,6.0,1.0,-2.0,-18.0,1650823409001866.0
-20.0,-4.0,-8.0,-7.0,1.0,4.0,-5.0,-19.0,1650823409002870.0
16.0,15.0,9.0,10.0,-2.0,-2.0,-1.0,18.0,1650823409002870.0
-10.0,-13.0,1.0,-2.0,-1.0,-3.0,2.0,-19.0,1650823409016853.0
-2.0,-16.0,-27.0,-23.0,-1.0,-5.0,-14.0,-8.0,1650823409016853.0
1.0,1.0,14.0,0.0,-8.0,-2.0,0.0,2.0,1650823409017824.0
1.0,0.0,-5.0,-5.0,0.0,6.0,11.0,15.0,1650823409017824.0
6.0,0.0,5.0,7.0,-9.0,-10.0,-10.0,-56.0,1650823409039786.0
-1.0,-3.0,-19.0,-8.0,8.0,4.0,3.0,8.0,1650823409039786.0
7.0,9.0,26.0,22.0,3.0,-5.0,-12.0,-6.0,1650823409039786.0
-7.0,5.0,-12.0,-32.0,2.0,3.0,4.0,17.0,1650823409039786.0
-1.0,0.0,-7.0,-6.0,-8.0,2.0,-2.0,-9.0,1650823409053727.0
-9.0,-1.0,-26.0,-15.0,-10.0,-9.0,-3.0,-1.0,1650823409053727.0
-1.0,-26.0,-5.0,-10.0,-12.0,-8.0,5.0,-3.0,1650823409054724.0
-3.0,14.0,28.0,27.0,14.0,5.0,8.0,2.0,1650823409054724.0
12.0,11.0,22.0,23.0,9.0,11.0,-5.0,16.0,1650823409076732.0
-13.0,-3.0,-26.0,-26.0,-2.0,5.0,15.0,20.0,1650823409076732.0
13.0,-12.0,-14.0,-2.0,-4.0,-7.0,4.0,35.0,1650823409077663.0
3.0,1.0,9.0,2.0,0.0,-3.0,-1.0,-3.0,1650823409077663.0
-9.0,5.0,-12.0,-9.0,-7.0,-12.0,-8.0,-3.0,1650823409090657.0
1.0,-4.0,17.0,17.0,0.0,3.0,2.0,6.0,1650823409090657.0
7.0,17.0,2.0,-5.0,2.0,2.0,-2.0,1.0,1650823409098636.0
-2.0,-14.0,-16.0,-5.0,6.0,13.0,2.0,-1.0,1650823409098636.0
3.0,15.0,31.0,13.0,-1.0,-6.0,-2.0,10.0,1650823409113633.0
7.0,2.0,1.0,16.0,1.0,1.0,1.0,-1.0,1650823409113633.0
-11.0,-13.0,-16.0,-10.0,-4.0,-3.0,-5.0,-12.0,1650823409114565.0
-3.0,2.0,-17.0,-18.0,-10.0,3.0,-3.0,-14.0,1650823409114565.0
0.0,5.0,-8.0,-16.0,2.0,-6.0,-4.0,6.0,1650823409136721.0
0.0,2.0,18.0,21.0,-4.0,-2.0,2.0,-3.0,1650823409136721.0
0.0,15.0,14.0,11.0,9.0,-1.0,-3.0,-32.0,1650823409137725.0
1.0,-6.0,-2.0,9.0,-6.0,1.0,10.0,19.0,1650823409137725.0
-12.0,-11.0,-2.0,0.0,3.0,5.0,2.0,0.0,1650823409150711.0
-5.0,11.0,5.0,-4.0,2.0,2.0,5.0,-9.0,1650823409150711.0
1.0,-13.0,1.0,1.0,-4.0,-2.0,0.0,30.0,1650823409158728.0
2.0,15.0,2.0,7.0,-2.0,-12.0,-20.0,-20.0,1650823409158728.0
11.0,0.0,-3.0,1.0,9.0,11.0,6.0,-1.0,1650823409173624.0
-7.0,-2.0,13.0,4.0,3.0,2.0,5.0,37.0,1650823409173624.0
-6.0,-9.0,-16.0,-9.0,-4.0,-8.0,8.0,4.0,1650823409174620.0
-5.0,-2.0,12.0,7.0,-9.0,-8.0,0.0,6.0,1650823409174620.0
9.0,-5.0,-8.0,-10.0,1.0,5.0,8.0,37.0,1650823409196561.0
2.0,11.0,-14.0,-14.0,5.0,-1.0,-17.0,-67.0,1650823409196561.0
2.0,6.0,-12.0,-9.0,-12.0,2.0,1.0,-2.0,1650823409197558.0
-3.0,-8.0,3.0,7.0,21.0,4.0,1.0,2.0,1650823409197558.0
0.0,2.0,-4.0,9.0,-9.0,12.0,-1.0,0.0,1650823409219502.0
1.0,-1.0,12.0,-7.0,2.0,-12.0,3.0,9.0,1650823409219502.0
-2.0,9.0,-4.0,-3.0,-11.0,-4.0,-6.0,-8.0,1650823409220497.0
2.0,-1.0,1.0,4.0,8.0,-2.0,-1.0,-16.0,1650823409220497.0
-3.0,-6.0,3.0,2.0,3.0,4.0,-2.0,3.0,1650823409233462.0
3.0,-7.0,-6.0,0.0,-6.0,0.0,-7.0,3.0,1650823409233462.0
-1.0,4.0,4.0,0.0,-2.0,-5.0,-9.0,-33.0,1650823409234460.0
-4.0,1.0,3.0,-4.0,-11.0,7.0,1.0,13.0,1650823409234460.0
2.0,10.0,-1.0,2.0,9.0,-7.0,4.0,1.0,1650823409256506.0
5.0,-5.0,1.0,8.0,12.0,1.0,-5.0,-6.0,1650823409256506.0
0.0,4.0,10.0,3.0,-12.0,-1.0,1.0,1.0,1650823409257497.0
0.0,-5.0,-3.0,-8.0,-7.0,-1.0,7.0,2.0,1650823409257497.0
-2.0,3.0,-4.0,-11.0,8.0,-6.0,-16.0,-11.0,1650823409279718.0
0.0,-1.0,7.0,19.0,-21.0,0.0,8.0,-1.0,1650823409279718.0
2.0,3.0,6.0,-7.0,10.0,6.0,1.0,7.0,1650823409279718.0
-1.0,-9.0,-27.0,-15.0,-6.0,-11.0,-3.0,-1.0,1650823409279718.0
-8.0,-10.0,-5.0,0.0,-5.0,1.0,1.0,-11.0,1650823409294175.0
3.0,-4.0,6.0,2.0,10.0,-3.0,3.0,9.0,1650823409294175.0
0.0,6.0,6.0,-2.0,-1.0,-2.0,-2.0,-3.0,1650823409294175.0
0.0,0.0,-2.0,10.0,-5.0,4.0,-1.0,-6.0,1650823409294175.0
3.0,10.0,7.0,3.0,-3.0,-7.0,2.0,-1.0,1650823409317115.0
-1.0,-5.0,-11.0,-9.0,0.0,11.0,-3.0,1.0,1650823409317115.0
1.0,-4.0,-3.0,-4.0,-3.0,-9.0,0.0,0.0,1650823409318116.0
0.0,12.0,16.0,8.0,-2.0,-1.0,1.0,1.0,1650823409318116.0
-4.0,-7.0,-7.0,4.0,4.0,-2.0,-1.0,1.0,1650823409339057.0
2.0,-2.0,-3.0,-3.0,-4.0,0.0,-3.0,-2.0,1650823409339057.0
1.0,3.0,-2.0,-2.0,11.0,4.0,-1.0,-3.0,1650823409340066.0
1.0,-3.0,3.0,2.0,8.0,1.0,2.0,3.0,1650823409340066.0
0.0,2.0,-4.0,2.0,-13.0,-6.0,-3.0,-2.0,1650823409354139.0
-3.0,-1.0,4.0,-12.0,-21.0,-2.0,1.0,1.0,1650823409354139.0
1.0,-4.0,-14.0,-2.0,19.0,10.0,3.0,0.0,1650823409354139.0
-9.0,-7.0,2.0,10.0,-4.0,-10.0,2.0,-7.0,1650823409354139.0
21.0,0.0,0.0,-6.0,4.0,8.0,-3.0,1.0,1650823409377147.0
14.0,13.0,0.0,8.0,14.0,-1.0,8.0,9.0,1650823409377147.0
-23.0,-4.0,5.0,2.0,-8.0,-3.0,-3.0,0.0,1650823409378119.0
-23.0,-29.0,4.0,5.0,-3.0,0.0,-8.0,-19.0,1650823409378119.0
-2.0,0.0,13.0,4.0,7.0,6.0,0.0,0.0,1650823409399144.0
10.0,-4.0,-16.0,-17.0,-11.0,-14.0,-6.0,-3.0,1650823409399144.0
22.0,17.0,10.0,12.0,1.0,6.0,5.0,14.0,1650823409400118.0
3.0,12.0,5.0,4.0,5.0,1.0,-3.0,-3.0,1650823409400118.0
-7.0,-11.0,-17.0,-11.0,-7.0,-3.0,-1.0,-2.0,1650823409414178.0
-3.0,-2.0,10.0,0.0,8.0,12.0,-3.0,-14.0,1650823409414178.0
-7.0,-4.0,-8.0,-6.0,-5.0,-10.0,2.0,-1.0,1650823409414178.0
2.0,6.0,5.0,-1.0,-5.0,-2.0,-2.0,1.0,1650823409414178.0
-2.0,-1.0,-4.0,0.0,2.0,-6.0,2.0,-9.0,1650823409437186.0
-6.0,-3.0,-10.0,1.0,-4.0,5.0,-2.0,3.0,1650823409437186.0
-4.0,7.0,12.0,1.0,-5.0,1.0,5.0,1.0,1650823409438142.0
5.0,-5.0,-5.0,6.0,12.0,6.0,-2.0,6.0,1650823409438142.0
2.0,5.0,0.0,-6.0,4.0,1.0,0.0,7.0,1650823409459132.0
-10.0,-12.0,-9.0,-5.0,2.0,-5.0,0.0,-9.0,1650823409459132.0
-1.0,-5.0,-8.0,-4.0,-7.0,-6.0,-4.0,1.0,1650823409460058.0
8.0,4.0,-11.0,-9.0,-6.0,-2.0,1.0,7.0,1650823409460058.0
-7.0,0.0,1.0,5.0,3.0,1.0,0.0,-7.0,1650823409474021.0
-1.0,4.0,9.0,2.0,-4.0,-1.0,-2.0,10.0,1650823409474021.0
-1.0,-9.0,-9.0,-8.0,0.0,-3.0,-2.0,-6.0,1650823409474021.0
1.0,8.0,14.0,9.0,1.0,5.0,4.0,-1.0,1650823409474021.0
-4.0,-2.0,-1.0,-4.0,0.0,0.0,0.0,1.0,1650823409497114.0
-3.0,-5.0,-13.0,1.0,-4.0,-2.0,-1.0,-4.0,1650823409497114.0
3.0,4.0,1.0,-6.0,-9.0,-1.0,-2.0,0.0,1650823409498072.0
1.0,3.0,-1.0,9.0,18.0,3.0,0.0,-3.0,1650823409498072.0
-2.0,1.0,10.0,3.0,-18.0,-4.0,-1.0,0.0,1650823409518988.0
-4.0,-4.0,-33.0,-17.0,4.0,-1.0,-2.0,-1.0,1650823409518988.0
2.0,0.0,1.0,2.0,7.0,7.0,1.0,-4.0,1650823409519987.0
-1.0,0.0,-1.0,-10.0,-19.0,-17.0,-2.0,6.0,1650823409519987.0
0.0,5.0,1.0,8.0,1.0,-1.0,0.0,5.0,1650823409533976.0
-2.0,-2.0,11.0,6.0,7.0,2.0,0.0,-24.0,1650823409533976.0
-3.0,-6.0,-5.0,-1.0,-1.0,0.0,-4.0,-1.0,1650823409534947.0
3.0,3.0,2.0,-1.0,-1.0,10.0,-3.0,0.0,1650823409534947.0
0.0,3.0,-10.0,-9.0,-7.0,-8.0,-5.0,0.0,1650823409556505.0
4.0,3.0,6.0,-2.0,-4.0,-6.0,0.0,3.0,1650823409556505.0
-4.0,0.0,-1.0,12.0,14.0,5.0,4.0,0.0,1650823409557495.0
2.0,-2.0,7.0,15.0,9.0,4.0,2.0,1.0,1650823409557495.0
-1.0,-8.0,-5.0,-14.0,1.0,-3.0,-3.0,-4.0,1650823409579503.0
-8.0,-9.0,-1.0,-15.0,-25.0,-7.0,-3.0,1.0,1650823409579503.0
6.0,3.0,7.0,4.0,-3.0,0.0,-1.0,-1.0,1650823409580460.0
1.0,2.0,-13.0,-20.0,5.0,1.0,-2.0,6.0,1650823409580460.0
2.0,3.0,12.0,18.0,-13.0,-1.0,3.0,3.0,1650823409594465.0
8.0,10.0,7.0,12.0,20.0,5.0,4.0,6.0,1650823409594465.0
-10.0,-4.0,-2.0,4.0,10.0,1.0,1.0,-2.0,1650823409595392.0
-3.0,-4.0,0.0,-5.0,-16.0,-2.0,-7.0,-4.0,1650823409595392.0
-3.0,-2.0,-6.0,-12.0,1.0,-1.0,-1.0,3.0,1650823409617389.0
3.0,0.0,7.0,3.0,-2.0,0.0,-2.0,3.0,1650823409617389.0
0.0,1.0,1.0,-1.0,-3.0,-2.0,2.0,0.0,1650823409617389.0
0.0,1.0,-3.0,-1.0,1.0,-1.0,0.0,0.0,1650823409617389.0
-4.0,-9.0,-12.0,-7.0,-2.0,-4.0,0.0,-7.0,1650823409639737.0
1.0,0.0,9.0,7.0,0.0,-2.0,1.0,7.0,1650823409639737.0
-1.0,2.0,0.0,-2.0,-3.0,0.0,-6.0,-3.0,1650823409639737.0
1.0,5.0,2.0,2.0,3.0,-5.0,-1.0,-4.0,1650823409639737.0
-3.0,-2.0,-19.0,-9.0,-13.0,-3.0,2.0,-1.0,1650823409653729.0
0.0,3.0,18.0,3.0,13.0,7.0,3.0,2.0,1650823409653729.0
-2.0,-15.0,-35.0,-26.0,-22.0,-18.0,-6.0,-5.0,1650823409654697.0
1.0,-3.0,6.0,5.0,6.0,6.0,2.0,3.0,1650823409654697.0
0.0,6.0,6.0,12.0,13.0,7.0,1.0,1.0,1650823409676704.0
-5.0,-7.0,-8.0,4.0,6.0,1.0,-4.0,0.0,1650823409676704.0
3.0,11.0,19.0,3.0,-13.0,1.0,0.0,2.0,1650823409677635.0
-3.0,-6.0,-5.0,-8.0,-9.0,-4.0,0.0,-2.0,1650823409677635.0
-1.0,-4.0,-2.0,2.0,2.0,-1.0,0.0,-4.0,1650823409699576.0
-3.0,0.0,8.0,1.0,-8.0,-4.0,-3.0,1.0,1650823409699576.0
1.0,4.0,3.0,3.0,11.0,3.0,-4.0,-6.0,1650823409700574.0
-2.0,-4.0,-5.0,0.0,-1.0,1.0,1.0,-2.0,1650823409700574.0
0.0,-1.0,6.0,3.0,5.0,1.0,-1.0,-2.0,1650823409714536.0
1.0,-1.0,-11.0,-7.0,-3.0,3.0,-2.0,-1.0,1650823409714536.0
-1.0,-4.0,3.0,1.0,-7.0,-6.0,-1.0,-2.0,1650823409714536.0
0.0,3.0,2.0,0.0,-10.0,-6.0,-2.0,-1.0,1650823409714536.0
0.0,-1.0,-5.0,-9.0,0.0,1.0,-1.0,-1.0,1650823409736743.0
2.0,4.0,3.0,6.0,1.0,5.0,1.0,2.0,1650823409736743.0
-4.0,-10.0,-3.0,7.0,18.0,10.0,1.0,2.0,1650823409737727.0
0.0,1.0,1.0,-1.0,-1.0,1.0,1.0,-2.0,1650823409737727.0
1.0,2.0,1.0,2.0,0.0,-9.0,-6.0,1.0,1650823409759807.0
-2.0,-1.0,-3.0,-10.0,-13.0,-7.0,1.0,1.0,1650823409759807.0
3.0,5.0,13.0,5.0,-2.0,5.0,0.0,2.0,1650823409759807.0
2.0,0.0,-12.0,-5.0,0.0,-4.0,1.0,-2.0,1650823409759807.0
-7.0,-1.0,0.0,-6.0,-6.0,0.0,-1.0,-2.0,1650823409772775.0
-1.0,-3.0,-10.0,2.0,5.0,-1.0,0.0,0.0,1650823409772775.0
3.0,8.0,5.0,-1.0,1.0,0.0,-2.0,-3.0,1650823409781752.0
-1.0,2.0,4.0,4.0,1.0,2.0,1.0,2.0,1650823409781752.0
-4.0,-1.0,-1.0,2.0,3.0,3.0,1.0,-1.0,1650823409796738.0
2.0,-2.0,-2.0,2.0,-1.0,-1.0,-1.0,0.0,1650823409796738.0
-4.0,-3.0,1.0,-9.0,-9.0,-4.0,-5.0,0.0,1650823409797708.0
0.0,2.0,0.0,8.0,2.0,4.0,-1.0,-2.0,1650823409797708.0
2.0,0.0,3.0,6.0,19.0,8.0,4.0,1.0,1650823409820661.0
-1.0,0.0,1.0,0.0,-14.0,-15.0,-1.0,-2.0,1650823409820661.0
6.0,0.0,-6.0,-1.0,-9.0,-2.0,0.0,0.0,1650823409821644.0
1.0,-3.0,-4.0,-10.0,0.0,-1.0,-2.0,-1.0,1650823409821644.0
1.0,-3.0,2.0,5.0,-1.0,5.0,0.0,-1.0,1650823409832642.0
-8.0,1.0,-1.0,2.0,15.0,10.0,-2.0,-1.0,1650823409832642.0
2.0,-3.0,-6.0,0.0,3.0,-4.0,1.0,0.0,1650823409841592.0
0.0,2.0,1.0,3.0,-9.0,3.0,-1.0,0.0,1650823409841592.0
10.0,-1.0,-3.0,-10.0,-10.0,-11.0,-2.0,2.0,1650823409856556.0
-15.0,5.0,7.0,0.0,-1.0,-3.0,0.0,-2.0,1650823409856556.0
-11.0,-5.0,-3.0,5.0,5.0,3.0,1.0,-1.0,1650823409857549.0
-2.0,-1.0,9.0,-3.0,0.0,-1.0,-1.0,-2.0,1650823409857549.0
-2.0,1.0,-1.0,3.0,-2.0,0.0,-1.0,-1.0,1650823409879551.0
5.0,-2.0,-2.0,0.0,0.0,3.0,-3.0,-1.0,1650823409879551.0
0.0,-2.0,-9.0,-6.0,0.0,-3.0,2.0,0.0,1650823409880510.0
-1.0,-1.0,0.0,1.0,2.0,0.0,0.0,1.0,1650823409880510.0
-2.0,-2.0,4.0,2.0,1.0,4.0,0.0,0.0,1650823409893510.0
1.0,2.0,6.0,-3.0,-6.0,-4.0,-2.0,0.0,1650823409893510.0
0.0,-1.0,-6.0,-2.0,6.0,1.0,0.0,1.0,1650823409901499.0
1.0,0.0,1.0,-3.0,-13.0,-5.0,0.0,0.0,1650823409901499.0
0.0,-1.0,-2.0,8.0,4.0,-2.0,1.0,-3.0,1650823409917390.0
3.0,-6.0,-6.0,1.0,7.0,2.0,2.0,0.0,1650823409917390.0
-1.0,-1.0,4.0,-2.0,-7.0,-4.0,-1.0,1.0,1650823409917390.0
-3.0,1.0,-1.0,-1.0,13.0,15.0,-1.0,0.0,1650823409917390.0
-1.0,3.0,2.0,1.0,-7.0,-8.0,0.0,0.0,1650823409939357.0
1.0,-1.0,0.0,-5.0,-7.0,-2.0,-2.0,-1.0,1650823409939357.0
0.0,-3.0,-5.0,-3.0,2.0,5.0,-3.0,0.0,1650823409940328.0
-1.0,0.0,-3.0,1.0,2.0,-9.0,-1.0,0.0,1650823409940328.0
-2.0,-2.0,2.0,-2.0,0.0,8.0,-3.0,-1.0,1650823409953319.0
4.0,2.0,0.0,2.0,1.0,-6.0,2.0,0.0,1650823409953319.0
2.0,-5.0,-5.0,0.0,-7.0,0.0,1.0,3.0,1650823409961339.0
-1.0,8.0,9.0,8.0,7.0,6.0,3.0,-3.0,1650823409961339.0
-3.0,-6.0,-10.0,-13.0,-2.0,0.0,0.0,-2.0,1650823409977295.0
0.0,1.0,7.0,-1.0,-3.0,-4.0,-4.0,0.0,1650823409977295.0
2.0,1.0,-5.0,-3.0,6.0,1.0,-3.0,0.0,1650823409977295.0
-1.0,-8.0,-14.0,-5.0,-14.0,-6.0,-1.0,-1.0,1650823409977295.0
-1.0,2.0,8.0,4.0,5.0,3.0,0.0,1.0,1650823409999817.0
0.0,1.0,3.0,1.0,-1.0,0.0,1.0,-1.0,1650823409999817.0
-2.0,4.0,5.0,15.0,12.0,7.0,3.0,-1.0,1650823409999817.0
1.0,-3.0,-5.0,-7.0,-3.0,-6.0,-2.0,1.0,1650823409999817.0
-2.0,0.0,1.0,-1.0,-4.0,-4.0,-4.0,-4.0,1650823410013545.0
-3.0,-3.0,-9.0,-6.0,-2.0,3.0,0.0,-1.0,1650823410013545.0
-4.0,0.0,2.0,2.0,-1.0,1.0,1.0,1.0,1650823410028574.0
-1.0,-1.0,3.0,-3.0,0.0,-1.0,-3.0,-1.0,1650823410028574.0
0.0,0.0,-4.0,1.0,-3.0,-1.0,1.0,-3.0,1650823410036513.0
-1.0,1.0,-2.0,3.0,8.0,3.0,1.0,-1.0,1650823410036513.0
0.0,-1.0,2.0,-2.0,-7.0,-6.0,-2.0,-2.0,1650823410037494.0
-2.0,-2.0,-6.0,-1.0,0.0,0.0,1.0,-1.0,1650823410037494.0
-1.0,0.0,-4.0,-4.0,8.0,-7.0,-4.0,0.0,1650823410059810.0
0.0,1.0,2.0,2.0,-9.0,1.0,1.0,-2.0,1650823410059810.0
2.0,-3.0,-1.0,-2.0,4.0,5.0,3.0,1.0,1650823410059810.0
2.0,1.0,1.0,1.0,2.0,-5.0,-2.0,0.0,1650823410059810.0
-4.0,-2.0,-7.0,-8.0,-9.0,-4.0,2.0,1.0,1650823410072849.0
-2.0,-9.0,-14.0,-5.0,-5.0,-7.0,-2.0,-3.0,1650823410072849.0
-2.0,-2.0,0.0,-3.0,5.0,-2.0,-1.0,-1.0,1650823410080757.0
2.0,1.0,1.0,-2.0,-2.0,6.0,1.0,0.0,1650823410080757.0
0.0,2.0,3.0,7.0,3.0,5.0,-1.0,-1.0,1650823410096745.0
-1.0,-1.0,-3.0,-4.0,-3.0,0.0,-1.0,0.0,1650823410096745.0
2.0,0.0,1.0,-1.0,-2.0,1.0,0.0,-1.0,1650823410097712.0
1.0,-1.0,5.0,8.0,8.0,1.0,0.0,-1.0,1650823410097712.0
2.0,2.0,0.0,3.0,-7.0,-8.0,0.0,2.0,1650823410119680.0
-7.0,-3.0,-6.0,-9.0,6.0,6.0,-1.0,-1.0,1650823410119680.0
0.0,-2.0,0.0,-6.0,-6.0,-4.0,1.0,1.0,1650823410120651.0
-1.0,0.0,3.0,2.0,-10.0,-12.0,2.0,-1.0,1650823410120651.0
4.0,1.0,1.0,9.0,11.0,5.0,1.0,2.0,1650823410149667.0
1.0,1.0,8.0,1.0,-3.0,-6.0,-4.0,-1.0,1650823410149667.0
-3.0,4.0,3.0,2.0,-1.0,4.0,0.0,-3.0,1650823410150652.0
-4.0,-8.0,-6.0,-12.0,-6.0,-2.0,-2.0,-3.0,1650823410150652.0
0.0,-4.0,4.0,0.0,-5.0,-3.0,-2.0,-2.0,1650823410156636.0
0.0,0.0,1.0,5.0,13.0,5.0,1.0,0.0,1650823410156636.0
-2.0,1.0,0.0,1.0,-1.0,0.0,-1.0,0.0,1650823410156636.0
0.0,6.0,5.0,5.0,5.0,6.0,0.0,0.0,1650823410156636.0
3.0,2.0,-2.0,-2.0,-2.0,1.0,-2.0,-1.0,1650823410179692.0
2.0,0.0,-5.0,-4.0,-9.0,-5.0,-3.0,3.0,1650823410179692.0
-5.0,-5.0,-9.0,-6.0,-3.0,-4.0,-3.0,-1.0,1650823410179692.0
5.0,-1.0,1.0,-2.0,1.0,-6.0,1.0,-4.0,1650823410179692.0
-1.0,-1.0,-2.0,-1.0,-9.0,11.0,1.0,-3.0,1650823410201731.0
1.0,3.0,-2.0,6.0,8.0,-5.0,2.0,-1.0,1650823410201731.0
4.0,-4.0,-3.0,0.0,0.0,-5.0,-2.0,-2.0,1650823410203661.0
-1.0,-1.0,-3.0,-3.0,-8.0,-2.0,-2.0,1.0,1650823410203661.0
-2.0,-2.0,11.0,-5.0,-3.0,2.0,-2.0,0.0,1650823410215163.0
0.0,0.0,7.0,2.0,1.0,-3.0,-1.0,-1.0,1650823410215163.0
1.0,2.0,2.0,2.0,-5.0,-6.0,-1.0,-1.0,1650823410224137.0
-2.0,-1.0,-8.0,-2.0,7.0,4.0,0.0,2.0,1650823410224137.0
-4.0,-1.0,0.0,-1.0,0.0,-2.0,1.0,-1.0,1650823410239953.0
-1.0,-2.0,-3.0,-1.0,-4.0,6.0,0.0,0.0,1650823410239953.0
-2.0,-1.0,1.0,-3.0,-2.0,-4.0,-1.0,0.0,1650823410240901.0
2.0,-1.0,2.0,6.0,-1.0,0.0,-1.0,2.0,1650823410240901.0
-3.0,-1.0,-7.0,-6.0,2.0,-3.0,0.0,0.0,1650823410260906.0
-1.0,-2.0,-2.0,-2.0,-1.0,-3.0,0.0,-1.0,1650823410260906.0
-1.0,-2.0,2.0,-2.0,-6.0,0.0,0.0,0.0,1650823410269822.0
0.0,-2.0,-11.0,-3.0,14.0,12.0,2.0,1.0,1650823410269822.0
-3.0,3.0,6.0,1.0,-20.0,-11.0,0.0,0.0,1650823410275874.0
2.0,4.0,3.0,5.0,-3.0,-1.0,2.0,1.0,1650823410275874.0
0.0,-1.0,0.0,-1.0,6.0,-3.0,1.0,-2.0,1650823410284782.0
-3.0,-12.0,-9.0,8.0,7.0,6.0,-3.0,-3.0,1650823410284782.0
0.0,1.0,0.0,-10.0,7.0,3.0,1.0,0.0,1650823410306564.0
2.0,-4.0,-7.0,-4.0,-2.0,-5.0,-3.0,2.0,1650823410306564.0
-2.0,1.0,0.0,-5.0,-10.0,-2.0,-3.0,-1.0,1650823410308556.0
0.0,3.0,4.0,-1.0,0.0,4.0,-1.0,0.0,1650823410308556.0
1.0,-4.0,-7.0,-2.0,-1.0,-6.0,-2.0,-1.0,1650823410321524.0
2.0,-1.0,2.0,1.0,-5.0,0.0,0.0,2.0,1650823410321524.0
-3.0,0.0,-6.0,4.0,13.0,2.0,-1.0,-1.0,1650823410323515.0
-3.0,-1.0,-6.0,-12.0,-17.0,-11.0,-2.0,-3.0,1650823410323515.0
1.0,2.0,5.0,5.0,3.0,1.0,0.0,1.0,1650823410335550.0
2.0,1.0,0.0,0.0,10.0,7.0,2.0,-3.0,1650823410335550.0
-4.0,2.0,0.0,3.0,-2.0,5.0,1.0,0.0,1650823410344192.0
-1.0,-1.0,0.0,-6.0,4.0,7.0,-1.0,1.0,1650823410344192.0
1.0,0.0,-5.0,-3.0,-19.0,-18.0,-3.0,-2.0,1650823410359832.0
2.0,-2.0,0.0,2.0,7.0,5.0,2.0,1.0,1650823410359832.0
0.0,0.0,-2.0,4.0,3.0,0.0,0.0,-2.0,1650823410360833.0
-1.0,1.0,14.0,1.0,-1.0,-3.0,-2.0,-1.0,1650823410360833.0
-1.0,-3.0,-3.0,-3.0,5.0,2.0,0.0,0.0,1650823410382756.0
0.0,3.0,-13.0,-6.0,-6.0,-1.0,1.0,-1.0,1650823410382756.0
3.0,-2.0,1.0,-1.0,-3.0,-2.0,-1.0,1.0,1650823410387744.0
-4.0,-1.0,1.0,-3.0,-5.0,-4.0,0.0,0.0,1650823410387744.0
2.0,-2.0,-6.0,-2.0,5.0,3.0,-2.0,-3.0,1650823410395760.0
-4.0,-3.0,7.0,0.0,-7.0,-3.0,-1.0,1.0,1650823410395760.0
4.0,4.0,1.0,2.0,2.0,2.0,0.0,2.0,1650823410404686.0
2.0,4.0,-3.0,5.0,2.0,6.0,1.0,-2.0,1650823410404686.0
1.0,2.0,0.0,2.0,4.0,-1.0,2.0,1.0,1650823410427003.0
-5.0,-5.0,-5.0,-9.0,14.0,-2.0,-4.0,-3.0,1650823410427003.0
-5.0,-5.0,-1.0,3.0,-20.0,-1.0,-2.0,-2.0,1650823410428968.0
4.0,2.0,2.0,-1.0,-3.0,-5.0,0.0,-1.0,1650823410428968.0
0.0,3.0,1.0,2.0,5.0,8.0,-4.0,-1.0,1650823410441849.0
-7.0,-5.0,-4.0,1.0,-6.0,-8.0,-2.0,-1.0,1650823410441849.0
7.0,2.0,4.0,-5.0,4.0,0.0,0.0,1.0,1650823410443546.0
-8.0,-3.0,-12.0,-1.0,4.0,1.0,0.0,-1.0,1650823410443546.0
1.0,-2.0,1.0,5.0,5.0,2.0,-1.0,0.0,1650823410455744.0
0.0,-2.0,-8.0,-5.0,-5.0,-1.0,-1.0,0.0,1650823410455744.0
-3.0,4.0,6.0,-5.0,-9.0,-6.0,-4.0,-1.0,1650823410464945.0
0.0,1.0,2.0,2.0,-2.0,-2.0,-2.0,-1.0,1650823410464945.0
-2.0,-6.0,3.0,4.0,20.0,1.0,2.0,2.0,1650823410479908.0
-6.0,-2.0,11.0,0.0,-21.0,-1.0,1.0,-2.0,1650823410479908.0
-1.0,-4.0,-16.0,-8.0,14.0,5.0,0.0,0.0,1650823410480906.0
3.0,0.0,-1.0,-2.0,-18.0,-12.0,1.0,0.0,1650823410480906.0
-3.0,-5.0,-9.0,-4.0,0.0,3.0,-2.0,0.0,1650823410501979.0
2.0,6.0,10.0,5.0,6.0,2.0,-1.0,-2.0,1650823410501979.0
-1.0,-2.0,-2.0,1.0,5.0,-3.0,-1.0,1.0,1650823410503935.0
-4.0,0.0,5.0,-1.0,-6.0,5.0,-3.0,-2.0,1650823410503935.0
0.0,1.0,0.0,5.0,-7.0,-5.0,0.0,2.0,1650823410515219.0
7.0,-3.0,-7.0,-2.0,-3.0,2.0,1.0,1.0,1650823410515219.0
-3.0,-1.0,-4.0,-5.0,4.0,3.0,-3.0,-3.0,1650823410524242.0
0.0,-2.0,-9.0,-5.0,-4.0,-11.0,-3.0,-1.0,1650823410524242.0
2.0,0.0,12.0,-4.0,-7.0,-1.0,1.0,1.0,1650823410547340.0
2.0,4.0,0.0,-1.0,2.0,3.0,1.0,8.0,1650823410547340.0
-6.0,-1.0,0.0,9.0,7.0,6.0,-5.0,-13.0,1650823410548302.0
0.0,0.0,2.0,-3.0,4.0,2.0,1.0,0.0,1650823410548302.0
-8.0,1.0,3.0,8.0,4.0,3.0,3.0,-1.0,1650823410561803.0
5.0,3.0,-6.0,-6.0,-5.0,-3.0,-1.0,-4.0,1650823410561803.0
4.0,-1.0,-1.0,-3.0,-2.0,0.0,-1.0,3.0,1650823410563799.0
-2.0,-2.0,-1.0,7.0,1.0,-3.0,-1.0,1.0,1650823410563799.0
-1.0,2.0,0.0,-9.0,-11.0,-11.0,-4.0,-2.0,1650823410575833.0
-7.0,0.0,7.0,6.0,11.0,2.0,-2.0,-1.0,1650823410575833.0
-4.0,-4.0,0.0,-1.0,-9.0,0.0,0.0,-2.0,1650823410584742.0
-1.0,-6.0,-9.0,-10.0,-2.0,-1.0,-5.0,-2.0,1650823410584742.0
1.0,-2.0,-5.0,-5.0,2.0,6.0,1.0,1.0,1650823410599702.0
14.0,9.0,10.0,7.0,1.0,-5.0,2.0,8.0,1650823410599702.0
-14.0,-3.0,-2.0,8.0,1.0,0.0,4.0,-8.0,1650823410600700.0
-4.0,-10.0,7.0,6.0,4.0,9.0,9.0,19.0,1650823410600700.0
-3.0,-1.0,4.0,0.0,-2.0,-4.0,-5.0,-28.0,1650823410621804.0
-1.0,-2.0,-19.0,-19.0,-4.0,0.0,5.0,-4.0,1650823410621804.0
0.0,6.0,9.0,-3.0,-9.0,-8.0,-13.0,-8.0,1650823410623763.0
1.0,4.0,1.0,4.0,4.0,-3.0,0.0,11.0,1650823410623763.0
7.0,3.0,-8.0,-2.0,6.0,4.0,5.0,10.0,1650823410635124.0
2.0,-2.0,-1.0,-1.0,-10.0,-3.0,-2.0,-2.0,1650823410635124.0
5.0,-2.0,0.0,0.0,1.0,-3.0,7.0,9.0,1650823410644160.0
-4.0,3.0,7.0,6.0,3.0,-2.0,-4.0,-7.0,1650823410644160.0
-4.0,-8.0,-2.0,0.0,3.0,4.0,-1.0,0.0,1650823410659071.0
6.0,3.0,1.0,1.0,10.0,0.0,-3.0,-3.0,1650823410659071.0
22.0,-2.0,-3.0,-1.0,-17.0,-11.0,4.0,13.0,1650823410661067.0
-9.0,-3.0,-2.0,-15.0,-1.0,2.0,-2.0,-15.0,1650823410661067.0
10.0,6.0,-2.0,5.0,3.0,7.0,-8.0,4.0,1650823410681962.0
-9.0,-2.0,4.0,5.0,-2.0,-2.0,8.0,2.0,1650823410681962.0
14.0,4.0,0.0,-2.0,2.0,1.0,0.0,4.0,1650823410683917.0
-2.0,6.0,7.0,6.0,-3.0,-6.0,-1.0,-2.0,1650823410683917.0
1.0,-9.0,-11.0,-6.0,0.0,6.0,4.0,3.0,1650823410704075.0
-22.0,-8.0,-12.0,-13.0,-4.0,7.0,-9.0,-10.0,1650823410704075.0
24.0,-3.0,4.0,-6.0,-1.0,-6.0,3.0,2.0,1650823410706072.0
-14.0,1.0,1.0,0.0,-12.0,-12.0,-7.0,-4.0,1650823410706072.0
6.0,1.0,-5.0,-7.0,5.0,-3.0,-3.0,0.0,1650823410719100.0
0.0,5.0,16.0,11.0,1.0,1.0,2.0,1.0,1650823410719100.0
-18.0,-4.0,0.0,5.0,-5.0,3.0,-10.0,-9.0,1650823410721032.0
19.0,-2.0,-14.0,-3.0,17.0,4.0,6.0,5.0,1650823410721032.0
-27.0,-2.0,5.0,-3.0,-1.0,-3.0,4.0,-1.0,1650823410742072.0
6.0,-6.0,-16.0,-16.0,-9.0,-3.0,-11.0,-10.0,1650823410742072.0
-11.0,3.0,2.0,4.0,2.0,1.0,0.0,2.0,1650823410743058.0
8.0,4.0,1.0,-9.0,1.0,4.0,-1.0,-1.0,1650823410743058.0
1.0,0.0,3.0,6.0,-15.0,-12.0,5.0,3.0,1650823410755236.0
0.0,8.0,24.0,9.0,10.0,9.0,-5.0,3.0,1650823410755236.0
-8.0,-10.0,-24.0,14.0,5.0,2.0,-5.0,-7.0,1650823410764226.0
2.0,-5.0,-14.0,-11.0,-9.0,-2.0,21.0,15.0,1650823410764226.0
0.0,-2.0,-7.0,-8.0,-4.0,-7.0,-20.0,-20.0,1650823410779858.0
-2.0,-2.0,1.0,-8.0,-1.0,-6.0,-3.0,-6.0,1650823410779858.0
0.0,4.0,13.0,4.0,9.0,4.0,-3.0,-1.0,1650823410780846.0
-8.0,-1.0,6.0,9.0,-9.0,-5.0,-1.0,-5.0,1650823410780846.0
3.0,2.0,-1.0,2.0,9.0,6.0,10.0,11.0,1650823410809772.0
1.0,0.0,4.0,12.0,-7.0,0.0,8.0,19.0,1650823410809772.0
-7.0,3.0,0.0,-2.0,13.0,9.0,-9.0,-36.0,1650823410810770.0
8.0,2.0,10.0,9.0,7.0,0.0,-2.0,-6.0,1650823410810770.0
1.0,-12.0,-35.0,-27.0,-10.0,-2.0,-1.0,-2.0,1650823410815779.0
3.0,1.0,3.0,-1.0,-6.0,-5.0,2.0,-7.0,1650823410815779.0
1.0,3.0,-1.0,-5.0,-6.0,-3.0,10.0,19.0,1650823410824739.0
0.0,18.0,23.0,6.0,6.0,2.0,-23.0,-10.0,1650823410824739.0
13.0,-11.0,10.0,24.0,-2.0,-5.0,15.0,17.0,1650823410839804.0
-12.0,-15.0,-33.0,-26.0,-6.0,-9.0,0.0,-14.0,1650823410839804.0
12.0,6.0,12.0,-6.0,-1.0,1.0,-2.0,3.0,1650823410840769.0
-17.0,10.0,5.0,13.0,4.0,8.0,25.0,42.0,1650823410840769.0
2.0,-10.0,-14.0,-1.0,2.0,-4.0,-51.0,-76.0,1650823410862397.0
-7.0,6.0,0.0,5.0,7.0,8.0,6.0,-9.0,1650823410862397.0
3.0,-2.0,1.0,2.0,1.0,-11.0,4.0,7.0,1650823410863398.0
7.0,-3.0,-6.0,1.0,-1.0,0.0,-7.0,-18.0,1650823410863398.0
-11.0,2.0,2.0,-5.0,-8.0,1.0,22.0,15.0,1650823410875129.0
14.0,5.0,5.0,9.0,-2.0,-3.0,4.0,24.0,1650823410875129.0
-11.0,-2.0,3.0,1.0,6.0,1.0,-3.0,-9.0,1650823410884181.0
10.0,2.0,14.0,17.0,11.0,13.0,3.0,1.0,1650823410884181.0
2.0,8.0,-14.0,-34.0,0.0,-6.0,8.0,17.0,1650823410899119.0
-7.0,-19.0,-17.0,3.0,-21.0,-8.0,-11.0,-10.0,1650823410899119.0
-5.0,24.0,-5.0,-29.0,-5.0,0.0,4.0,2.0,1650823410901072.0
9.0,-22.0,-13.0,-1.0,-1.0,3.0,1.0,39.0,1650823410901072.0
-12.0,18.0,19.0,14.0,7.0,8.0,15.0,27.0,1650823410922043.0
-2.0,7.0,23.0,7.0,5.0,-6.0,-9.0,-24.0,1650823410922043.0
-14.0,-12.0,-11.0,-2.0,-4.0,-5.0,-5.0,-2.0,1650823410923013.0
6.0,12.0,5.0,-2.0,-2.0,-1.0,2.0,-2.0,1650823410923013.0
0.0,-3.0,-5.0,3.0,-4.0,6.0,-3.0,-1.0,1650823410934983.0
-2.0,-55.0,-13.0,-1.0,11.0,7.0,-3.0,26.0,1650823410934983.0
6.0,6.0,2.0,-4.0,-11.0,-13.0,2.0,-3.0,1650823410944956.0
3.0,11.0,23.0,3.0,-6.0,-10.0,-4.0,-12.0,1650823410944956.0
-5.0,-14.0,-9.0,16.0,9.0,8.0,-3.0,4.0,1650823410958917.0
3.0,14.0,13.0,-6.0,5.0,2.0,-5.0,-2.0,1650823410958917.0
-5.0,-13.0,-4.0,5.0,2.0,3.0,29.0,30.0,1650823410960912.0
16.0,-20.0,-15.0,-3.0,0.0,-3.0,-38.0,-24.0,1650823410960912.0
-4.0,34.0,18.0,14.0,-3.0,-2.0,1.0,-46.0,1650823410982864.0
-4.0,-49.0,-60.0,-35.0,-8.0,-3.0,3.0,-27.0,1650823410982864.0
-7.0,-11.0,11.0,7.0,0.0,-1.0,-11.0,-2.0,1650823410983851.0
-3.0,26.0,16.0,13.0,-4.0,-2.0,11.0,0.0,1650823410983851.0
10.0,-11.0,-16.0,-10.0,6.0,6.0,-1.0,10.0,1650823410995885.0
-31.0,52.0,17.0,4.0,2.0,3.0,-2.0,-14.0,1650823410995885.0
-2.0,15.0,7.0,4.0,1.0,-2.0,4.0,6.0,1650823411004795.0
-5.0,-33.0,-27.0,-9.0,-11.0,-5.0,-2.0,-23.0,1650823411004795.0
7.0,47.0,16.0,-7.0,-1.0,1.0,-6.0,10.0,1650823411018870.0
15.0,12.0,-7.0,3.0,15.0,0.0,-9.0,11.0,1650823411018870.0
11.0,-6.0,14.0,8.0,-12.0,4.0,0.0,8.0,1650823411020836.0
-3.0,19.0,3.0,1.0,11.0,6.0,14.0,4.0,1650823411020836.0
2.0,-56.0,-4.0,8.0,-10.0,-3.0,17.0,63.0,1650823411041780.0
-13.0,13.0,24.0,13.0,4.0,-6.0,-20.0,-49.0,1650823411041780.0
-9.0,20.0,-23.0,-3.0,3.0,8.0,-8.0,-15.0,1650823411043777.0
1.0,-54.0,10.0,-13.0,-14.0,-18.0,-19.0,11.0,1650823411043777.0
18.0,0.0,5.0,-11.0,-5.0,-1.0,11.0,16.0,1650823411064763.0
-5.0,-1.0,4.0,5.0,-6.0,-9.0,5.0,23.0,1650823411064763.0
7.0,10.0,15.0,15.0,5.0,8.0,8.0,2.0,1650823411065717.0
-16.0,-3.0,-2.0,-2.0,11.0,5.0,0.0,-6.0,1650823411065717.0
-4.0,-4.0,3.0,8.0,14.0,3.0,7.0,-12.0,1650823411079745.0
7.0,17.0,9.0,11.0,-9.0,2.0,-14.0,25.0,1650823411079745.0
-1.0,4.0,-5.0,-7.0,-12.0,-11.0,-1.0,-9.0,1650823411080678.0
3.0,-12.0,-17.0,-8.0,-2.0,5.0,14.0,42.0,1650823411080678.0
-24.0,9.0,10.0,-8.0,4.0,-1.0,-6.0,-28.0,1650823411109723.0
6.0,-7.0,9.0,6.0,7.0,10.0,8.0,1.0,1650823411109723.0
9.0,-27.0,-8.0,2.0,2.0,-9.0,-3.0,18.0,1650823411110710.0
-30.0,-2.0,-16.0,-10.0,-12.0,4.0,9.0,-45.0,1650823411110710.0
7.0,-10.0,-16.0,-6.0,-9.0,-16.0,-29.0,-16.0,1650823411124716.0
13.0,10.0,14.0,8.0,-6.0,0.0,6.0,3.0,1650823411124716.0
15.0,-3.0,-2.0,7.0,20.0,18.0,13.0,39.0,1650823411125670.0
-31.0,63.0,64.0,23.0,4.0,-9.0,-21.0,-68.0,1650823411125670.0
2.0,-60.0,-48.0,-19.0,-13.0,-10.0,-1.0,14.0,1650823411139660.0
-45.0,34.0,-9.0,-15.0,2.0,-2.0,13.0,-42.0,1650823411139660.0
2.0,-18.0,1.0,0.0,-4.0,1.0,-17.0,6.0,1650823411141627.0
12.0,11.0,-23.0,-16.0,-10.0,-5.0,10.0,19.0,1650823411141627.0
-4.0,-9.0,23.0,23.0,10.0,6.0,-8.0,-13.0,1650823411161640.0
28.0,45.0,5.0,-19.0,-6.0,-3.0,4.0,23.0,1650823411161640.0
-2.0,14.0,4.0,13.0,5.0,4.0,11.0,-11.0,1650823411163580.0
2.0,-20.0,-38.0,-36.0,1.0,4.0,-1.0,0.0,1650823411163580.0
20.0,49.0,39.0,2.0,-10.0,-11.0,-6.0,8.0,1650823411184764.0
-8.0,-83.0,-41.0,9.0,-4.0,3.0,7.0,0.0,1650823411184764.0
-6.0,19.0,34.0,28.0,18.0,11.0,2.0,-15.0,1650823411185761.0
9.0,-13.0,-36.0,-47.0,-8.0,-4.0,-5.0,14.0,1650823411185761.0
5.0,12.0,7.0,-1.0,0.0,-4.0,1.0,-12.0,1650823411199790.0
1.0,-11.0,12.0,-4.0,-2.0,-3.0,-1.0,11.0,1650823411199790.0
-3.0,-8.0,-2.0,3.0,-15.0,-11.0,-12.0,-22.0,1650823411200723.0
-1.0,-12.0,-6.0,10.0,7.0,2.0,-6.0,13.0,1650823411200723.0
-6.0,25.0,9.0,9.0,5.0,10.0,1.0,22.0,1650823411221828.0
-5.0,-27.0,-2.0,0.0,2.0,7.0,-4.0,-45.0,1650823411221828.0
18.0,10.0,-17.0,-24.0,-1.0,-17.0,-17.0,-12.0,1650823411223815.0
-8.0,24.0,17.0,19.0,0.0,1.0,0.0,-3.0,1650823411223815.0
-49.0,-23.0,2.0,7.0,-6.0,-3.0,-7.0,-3.0,1650823411244860.0
25.0,15.0,10.0,15.0,8.0,6.0,13.0,19.0,1650823411244860.0
-22.0,-19.0,-29.0,-26.0,-9.0,-4.0,-7.0,-7.0,1650823411245742.0
8.0,-7.0,-7.0,-1.0,-2.0,9.0,-7.0,-14.0,1650823411245742.0
14.0,15.0,38.0,41.0,9.0,-3.0,4.0,-9.0,1650823411258784.0
-9.0,-13.0,-12.0,7.0,6.0,5.0,9.0,14.0,1650823411258784.0
4.0,11.0,-20.0,-39.0,-9.0,-5.0,8.0,46.0,1650823411265837.0
9.0,-8.0,0.0,-8.0,-6.0,-10.0,-12.0,-39.0,1650823411265837.0
-14.0,-9.0,-8.0,-6.0,-3.0,12.0,6.0,1.0,1650823411282371.0
8.0,-2.0,22.0,20.0,8.0,-3.0,4.0,0.0,1650823411282371.0
19.0,-5.0,5.0,18.0,5.0,5.0,9.0,22.0,1650823411283378.0
-5.0,-28.0,-33.0,-24.0,-5.0,-7.0,-5.0,-4.0,1650823411283378.0
-10.0,-28.0,-27.0,-15.0,-14.0,-2.0,3.0,-7.0,1650823411304381.0
0.0,-5.0,0.0,-1.0,-4.0,-5.0,-13.0,12.0,1650823411304381.0
-5.0,7.0,6.0,1.0,-5.0,1.0,13.0,-14.0,1650823411306337.0
-7.0,13.0,11.0,14.0,9.0,-4.0,-9.0,1.0,1650823411306337.0
10.0,-4.0,-8.0,-10.0,0.0,-4.0,-6.0,-14.0,1650823411318305.0
0.0,3.0,2.0,1.0,-2.0,-4.0,-3.0,10.0,1650823411318305.0
-3.0,-7.0,-17.0,-6.0,1.0,4.0,3.0,-7.0,1650823411325286.0
4.0,5.0,29.0,8.0,-11.0,2.0,6.0,17.0,1650823411325286.0
3.0,14.0,-18.0,5.0,2.0,2.0,12.0,47.0,1650823411342240.0
3.0,15.0,2.0,-6.0,-1.0,0.0,-19.0,-81.0,1650823411342240.0
-14.0,-16.0,-22.0,-37.0,-18.0,-15.0,-17.0,-13.0,1650823411343210.0
5.0,13.0,2.0,-3.0,4.0,2.0,7.0,8.0,1650823411343210.0
2.0,-11.0,7.0,15.0,12.0,10.0,-1.0,-19.0,1650823411364286.0
8.0,9.0,2.0,-5.0,-6.0,-8.0,3.0,34.0,1650823411364286.0
-20.0,-12.0,-1.0,0.0,5.0,3.0,-11.0,-13.0,1650823411366310.0
4.0,-26.0,-23.0,-2.0,-2.0,-2.0,-9.0,-1.0,1650823411366310.0
-2.0,46.0,7.0,-7.0,-11.0,-4.0,10.0,10.0,1650823411379267.0
5.0,6.0,9.0,-3.0,-3.0,-1.0,-3.0,-12.0,1650823411379267.0
5.0,10.0,16.0,5.0,10.0,-7.0,-23.0,-50.0,1650823411385261.0
2.0,25.0,15.0,14.0,-16.0,-4.0,18.0,16.0,1650823411385261.0
8.0,-28.0,-6.0,-3.0,7.0,5.0,-1.0,17.0,1650823411402218.0
-7.0,17.0,4.0,2.0,3.0,0.0,15.0,3.0,1650823411402218.0
-2.0,-9.0,3.0,10.0,1.0,5.0,5.0,20.0,1650823411403184.0
4.0,-12.0,-7.0,4.0,7.0,0.0,-2.0,-16.0,1650823411403184.0
-4.0,1.0,-20.0,-6.0,-8.0,-5.0,-7.0,-17.0,1650823411424156.0
-15.0,-37.0,-39.0,-34.0,-9.0,-1.0,4.0,19.0,1650823411424156.0
2.0,-9.0,17.0,19.0,12.0,7.0,5.0,-3.0,1650823411426123.0
1.0,4.0,-3.0,-17.0,-9.0,-4.0,0.0,9.0,1650823411426123.0
9.0,1.0,14.0,11.0,11.0,8.0,11.0,3.0,1650823411439116.0
9.0,26.0,24.0,19.0,11.0,12.0,-1.0,23.0,1650823411439116.0
8.0,-42.0,-36.0,-15.0,-11.0,-5.0,-6.0,-19.0,1650823411446084.0
-1.0,28.0,0.0,0.0,4.0,-12.0,-26.0,-18.0,1650823411446084.0
-42.0,-41.0,-5.0,-15.0,-19.0,-10.0,10.0,4.0,1650823411462105.0
9.0,7.0,6.0,11.0,13.0,11.0,-7.0,-48.0,1650823411462105.0
-1.0,7.0,28.0,9.0,-4.0,0.0,5.0,21.0,1650823411463051.0
7.0,-4.0,19.0,14.0,1.0,3.0,11.0,1.0,1650823411463051.0
20.0,19.0,-1.0,-10.0,0.0,-8.0,-13.0,-6.0,1650823411484005.0
-1.0,3.0,2.0,8.0,1.0,0.0,9.0,28.0,1650823411484005.0
4.0,10.0,2.0,2.0,-7.0,0.0,-3.0,1.0,1650823411485931.0
-14.0,-48.0,-23.0,-2.0,12.0,5.0,5.0,1.0,1650823411485931.0
1.0,22.0,23.0,3.0,-1.0,2.0,-3.0,-14.0,1650823411498962.0
-5.0,-13.0,-4.0,9.0,1.0,-3.0,1.0,6.0,1650823411498962.0
-5.0,11.0,-3.0,-11.0,-4.0,-2.0,-9.0,-5.0,1650823411505940.0
2.0,-12.0,-20.0,-13.0,-3.0,-1.0,0.0,1.0,1650823411505940.0
0.0,8.0,45.0,27.0,18.0,6.0,5.0,7.0,1650823411522101.0
20.0,-11.0,-39.0,7.0,-4.0,-2.0,3.0,46.0,1650823411522101.0
-19.0,-17.0,-31.0,-27.0,8.0,13.0,19.0,-10.0,1650823411523098.0
2.0,34.0,39.0,13.0,-17.0,-20.0,-16.0,11.0,1650823411523098.0
2.0,-37.0,-26.0,-12.0,-6.0,2.0,2.0,26.0,1650823411544689.0
3.0,3.0,18.0,1.0,6.0,9.0,7.0,22.0,1650823411544689.0
-1.0,30.0,24.0,3.0,-3.0,-9.0,-11.0,-17.0,1650823411545684.0
14.0,-37.0,-38.0,-6.0,-2.0,1.0,7.0,8.0,1650823411545684.0
24.0,77.0,29.0,9.0,-1.0,1.0,-5.0,-12.0,1650823411557718.0
-31.0,-62.0,-3.0,-9.0,-12.0,-14.0,-21.0,-42.0,1650823411557718.0
-7.0,-6.0,-6.0,3.0,8.0,6.0,1.0,0.0,1650823411566627.0
-3.0,-1.0,5.0,1.0,2.0,3.0,10.0,14.0,1650823411566627.0
20.0,-9.0,-10.0,-1.0,3.0,4.0,-8.0,1.0,1650823411581655.0
1.0,11.0,5.0,5.0,9.0,1.0,9.0,5.0,1650823411581655.0
5.0,17.0,2.0,-2.0,-9.0,-2.0,2.0,-6.0,1650823411583583.0
1.0,-18.0,-23.0,-14.0,1.0,2.0,-2.0,1.0,1650823411583583.0
-13.0,-6.0,4.0,-7.0,3.0,-1.0,6.0,1.0,1650823411604526.0
9.0,9.0,2.0,-10.0,3.0,3.0,-4.0,13.0,1650823411604526.0
-21.0,-3.0,8.0,22.0,-4.0,-7.0,-3.0,-2.0,1650823411605524.0
-3.0,23.0,7.0,2.0,-9.0,-5.0,3.0,8.0,1650823411605524.0
-3.0,-3.0,-5.0,13.0,10.0,8.0,1.0,-7.0,1650823411618488.0
-11.0,-8.0,-18.0,-29.0,0.0,-4.0,-2.0,-11.0,1650823411618488.0
21.0,9.0,11.0,0.0,-11.0,-4.0,6.0,45.0,1650823411627465.0
-2.0,11.0,11.0,14.0,10.0,6.0,-7.0,-13.0,1650823411627465.0
-10.0,-8.0,-13.0,-14.0,-7.0,-4.0,-2.0,-3.0,1650823411641426.0
11.0,9.0,14.0,6.0,-6.0,-6.0,-4.0,-10.0,1650823411641426.0
-6.0,-9.0,-11.0,5.0,3.0,1.0,15.0,14.0,1650823411643423.0
9.0,12.0,8.0,-1.0,7.0,2.0,8.0,-4.0,1650823411643423.0
-2.0,-10.0,-10.0,-3.0,-3.0,-4.0,-19.0,16.0,1650823411664448.0
-28.0,3.0,-8.0,-8.0,-5.0,0.0,1.0,-48.0,1650823411664448.0
11.0,1.0,2.0,-3.0,-1.0,2.0,7.0,18.0,1650823411666445.0
-18.0,-7.0,-12.0,4.0,1.0,1.0,-11.0,-30.0,1650823411666445.0
8.0,2.0,10.0,-1.0,-2.0,-5.0,-3.0,-17.0,1650823411678414.0
4.0,7.0,-4.0,3.0,3.0,3.0,-1.0,8.0,1650823411678414.0
-26.0,-10.0,-15.0,-9.0,-2.0,0.0,-10.0,-27.0,1650823411687389.0
-5.0,11.0,25.0,8.0,0.0,-6.0,4.0,9.0,1650823411687389.0
-11.0,-43.0,-35.0,-24.0,-15.0,-9.0,0.0,-7.0,1650823411702358.0
1.0,14.0,9.0,4.0,20.0,3.0,-6.0,2.0,1650823411702358.0
14.0,-3.0,34.0,33.0,0.0,9.0,13.0,38.0,1650823411703346.0
-3.0,-8.0,-49.0,-39.0,-13.0,-3.0,6.0,-28.0,1650823411703346.0
-10.0,4.0,-10.0,-14.0,-7.0,-11.0,-17.0,-33.0,1650823411724317.0
0.0,-6.0,0.0,-1.0,-8.0,-7.0,7.0,17.0,1650823411724317.0
8.0,13.0,8.0,-1.0,6.0,-1.0,-19.0,-11.0,1650823411726285.0
-2.0,-11.0,7.0,17.0,7.0,14.0,11.0,-6.0,1650823411726285.0
1.0,-1.0,-3.0,-8.0,-1.0,-2.0,0.0,7.0,1650823411738316.0
22.0,-1.0,-11.0,-1.0,-8.0,-6.0,-11.0,18.0,1650823411738316.0
-16.0,16.0,20.0,11.0,13.0,3.0,8.0,-10.0,1650823411747061.0
-8.0,-18.0,6.0,6.0,-5.0,-4.0,-13.0,-7.0,1650823411747061.0
-2.0,10.0,-25.0,-3.0,-5.0,-1.0,0.0,-8.0,1650823411762088.0
1.0,14.0,7.0,-7.0,-12.0,-1.0,-4.0,4.0,1650823411762088.0
22.0,-27.0,-11.0,0.0,3.0,1.0,3.0,9.0,1650823411763045.0
-9.0,3.0,12.0,-3.0,13.0,16.0,2.0,17.0,1650823411763045.0
1.0,-2.0,2.0,5.0,3.0,-7.0,7.0,-5.0,1650823411784722.0
-1.0,2.0,-4.0,-9.0,6.0,-2.0,-5.0,-5.0,1650823411784722.0
3.0,-3.0,-13.0,-9.0,-13.0,-3.0,-2.0,-11.0,1650823411786021.0
7.0,14.0,26.0,27.0,11.0,2.0,8.0,3.0,1650823411786021.0
5.0,0.0,18.0,14.0,2.0,5.0,2.0,17.0,1650823411798055.0
-12.0,-19.0,-29.0,-10.0,-10.0,-5.0,-10.0,-37.0,1650823411798055.0
9.0,4.0,-43.0,-59.0,-14.0,-12.0,-10.0,-6.0,1650823411814954.0
-16.0,8.0,18.0,3.0,-2.0,-3.0,7.0,25.0,1650823411814954.0
-1.0,2.0,5.0,4.0,8.0,1.0,-2.0,-10.0,1650823411821992.0
-2.0,6.0,19.0,16.0,-1.0,6.0,16.0,8.0,1650823411821992.0
6.0,-3.0,11.0,11.0,0.0,-2.0,-18.0,-13.0,1650823411823966.0
10.0,2.0,-10.0,-2.0,9.0,6.0,0.0,5.0,1650823411823966.0
5.0,37.0,11.0,3.0,-7.0,-12.0,3.0,24.0,1650823411844273.0
-16.0,1.0,16.0,8.0,-2.0,2.0,5.0,0.0,1650823411844273.0
-4.0,-22.0,-34.0,-13.0,12.0,3.0,-1.0,2.0,1650823411846298.0
5.0,12.0,12.0,-5.0,-12.0,-3.0,3.0,11.0,1650823411846298.0
2.0,-10.0,-4.0,4.0,-1.0,1.0,-5.0,-6.0,1650823411858266.0
11.0,-1.0,-7.0,-11.0,-13.0,-2.0,-2.0,19.0,1650823411858266.0
-5.0,11.0,4.0,3.0,10.0,8.0,7.0,-7.0,1650823411867214.0
4.0,-8.0,14.0,8.0,12.0,1.0,-2.0,8.0,1650823411867214.0
-1.0,-11.0,4.0,9.0,0.0,1.0,7.0,-7.0,1650823411882240.0
5.0,-2.0,-27.0,-47.0,-12.0,-4.0,-5.0,2.0,1650823411882240.0
0.0,3.0,19.0,28.0,1.0,-5.0,2.0,0.0,1650823411883171.0
-5.0,-16.0,-43.0,-41.0,-16.0,-5.0,1.0,-8.0,1650823411883171.0
3.0,0.0,31.0,7.0,6.0,10.0,-8.0,5.0,1650823411904325.0
6.0,-3.0,6.0,30.0,3.0,1.0,9.0,33.0,1650823411904325.0
-6.0,12.0,2.0,-3.0,-9.0,-8.0,-11.0,-49.0,1650823411906281.0
-1.0,-2.0,6.0,6.0,3.0,3.0,-3.0,11.0,1650823411906281.0
-1.0,2.0,-16.0,-12.0,1.0,1.0,9.0,7.0,1650823411918284.0
-7.0,0.0,15.0,9.0,-3.0,-2.0,-17.0,-6.0,1650823411918284.0
7.0,4.0,-2.0,3.0,3.0,11.0,11.0,37.0,1650823411927198.0
-14.0,-3.0,9.0,8.0,9.0,-4.0,11.0,-4.0,1650823411927198.0
1.0,-10.0,-22.0,-16.0,-14.0,-5.0,-4.0,0.0,1650823411942185.0
7.0,3.0,6.0,11.0,19.0,1.0,7.0,0.0,1650823411942185.0
-2.0,9.0,12.0,7.0,-10.0,-1.0,1.0,8.0,1650823411943166.0
-2.0,-13.0,-16.0,-9.0,-4.0,-1.0,-6.0,1.0,1650823411943166.0
-7.0,-4.0,-9.0,-12.0,-1.0,0.0,4.0,-3.0,1650823411964717.0
-1.0,10.0,32.0,20.0,15.0,5.0,1.0,-1.0,1650823411964717.0
-1.0,-17.0,-27.0,-13.0,-4.0,3.0,-2.0,-11.0,1650823411966202.0
12.0,27.0,7.0,4.0,-7.0,-8.0,-4.0,10.0,1650823411966202.0
-5.0,-31.0,-33.0,-31.0,-3.0,0.0,0.0,-16.0,1650823411986814.0
-1.0,17.0,9.0,-7.0,-14.0,1.0,-5.0,-8.0,1650823411986814.0
-9.0,-11.0,19.0,26.0,18.0,2.0,0.0,4.0,1650823411988762.0
18.0,7.0,7.0,25.0,9.0,10.0,10.0,-11.0,1650823411988762.0
-3.0,2.0,-3.0,-10.0,-6.0,-14.0,-25.0,-15.0,1650823412001774.0
3.0,4.0,-3.0,-5.0,-6.0,-2.0,-1.0,-18.0,1650823412001774.0
-11.0,-9.0,6.0,-2.0,-16.0,-5.0,-3.0,1.0,1650823412003702.0
-2.0,-5.0,1.0,8.0,4.0,1.0,-8.0,-23.0,1650823412003702.0
14.0,13.0,1.0,2.0,12.0,15.0,25.0,45.0,1650823412024769.0
-26.0,-13.0,-16.0,-9.0,-10.0,-15.0,-16.0,-59.0,1650823412024769.0
-4.0,2.0,12.0,-7.0,-10.0,-8.0,-2.0,-12.0,1650823412025733.0
-1.0,-4.0,-12.0,-1.0,4.0,-2.0,-4.0,9.0,1650823412025733.0
-1.0,4.0,13.0,20.0,11.0,11.0,6.0,5.0,1650823412046734.0
3.0,-6.0,-11.0,-6.0,0.0,8.0,-3.0,14.0,1650823412046734.0
0.0,-2.0,-9.0,-5.0,0.0,-10.0,6.0,-4.0,1650823412048691.0
-1.0,9.0,19.0,-1.0,-4.0,1.0,-3.0,5.0,1650823412048691.0
-4.0,-6.0,-17.0,-1.0,0.0,2.0,2.0,-10.0,1650823412061627.0
6.0,-6.0,10.0,7.0,-6.0,-6.0,0.0,12.0,1650823412061627.0
0.0,8.0,5.0,6.0,-8.0,-1.0,-4.0,-9.0,1650823412063622.0
1.0,-8.0,-5.0,-7.0,-8.0,-1.0,-5.0,5.0,1650823412063622.0
-1.0,7.0,10.0,10.0,-9.0,-2.0,-1.0,-9.0,1650823412092182.0
1.0,-3.0,-10.0,-1.0,0.0,-7.0,5.0,12.0,1650823412092182.0
4.0,-5.0,1.0,-4.0,9.0,9.0,5.0,5.0,1650823412093112.0
0.0,4.0,4.0,18.0,15.0,7.0,0.0,-3.0,1650823412093112.0
-5.0,-2.0,-1.0,-2.0,-8.0,-7.0,-2.0,-4.0,1650823412107075.0
1.0,-4.0,-10.0,-27.0,-15.0,-8.0,1.0,6.0,1650823412107075.0
-1.0,0.0,3.0,12.0,10.0,2.0,4.0,-2.0,1650823412108072.0
-2.0,-6.0,-17.0,-8.0,-5.0,0.0,3.0,-2.0,1650823412108072.0
-1.0,4.0,13.0,12.0,16.0,4.0,-5.0,-7.0,1650823412122062.0
0.0,-8.0,-1.0,0.0,-6.0,2.0,4.0,9.0,1650823412122062.0
4.0,0.0,-9.0,-7.0,-5.0,-7.0,-4.0,0.0,1650823412123053.0
-1.0,-4.0,-4.0,-9.0,-19.0,-11.0,-6.0,0.0,1650823412123053.0
0.0,1.0,0.0,-7.0,3.0,-2.0,3.0,-1.0,1650823412143977.0
0.0,3.0,3.0,10.0,6.0,5.0,1.0,1.0,1650823412143977.0
0.0,-4.0,-6.0,-2.0,8.0,4.0,0.0,3.0,1650823412145972.0
-2.0,2.0,3.0,6.0,4.0,5.0,4.0,-1.0,1650823412145972.0
-1.0,1.0,3.0,-18.0,-7.0,-5.0,-4.0,-2.0,1650823412166802.0
-1.0,-4.0,-2.0,9.0,3.0,-9.0,1.0,4.0,1650823412166802.0
-4.0,-4.0,-10.0,-2.0,-4.0,0.0,-3.0,-4.0,1650823412168731.0
-1.0,0.0,4.0,6.0,2.0,1.0,-4.0,0.0,1650823412168731.0
0.0,0.0,-4.0,-1.0,-1.0,1.0,4.0,-2.0,1650823412181797.0
-1.0,3.0,1.0,6.0,9.0,8.0,5.0,3.0,1650823412181797.0
-1.0,0.0,18.0,-7.0,-10.0,-7.0,-3.0,-1.0,1650823412187809.0
-1.0,1.0,-1.0,-4.0,8.0,4.0,-4.0,-1.0,1650823412187809.0
-3.0,-3.0,-3.0,2.0,-19.0,-5.0,-4.0,-2.0,1650823412211881.0
1.0,3.0,-6.0,0.0,9.0,6.0,1.0,2.0,1650823412211881.0
2.0,0.0,0.0,4.0,5.0,0.0,2.0,1.0,1650823412213832.0
0.0,1.0,-1.0,-5.0,-1.0,-2.0,-2.0,-3.0,1650823412213832.0
-1.0,0.0,2.0,1.0,-14.0,-7.0,-5.0,-3.0,1650823412226862.0
-2.0,-7.0,-9.0,-7.0,-5.0,-2.0,-2.0,0.0,1650823412226862.0
-4.0,2.0,-1.0,-1.0,5.0,7.0,-4.0,-3.0,1650823412228805.0
0.0,-5.0,-4.0,-1.0,4.0,1.0,2.0,0.0,1650823412228805.0
0.0,-2.0,0.0,2.0,5.0,-9.0,5.0,2.0,1650823412240785.0
0.0,4.0,13.0,24.0,-1.0,8.0,-2.0,0.0,1650823412240785.0
2.0,-1.0,-8.0,-30.0,-6.0,-2.0,1.0,1.0,1650823412247806.0
-3.0,-6.0,8.0,-5.0,-8.0,-6.0,-1.0,-1.0,1650823412247806.0
-2.0,0.0,4.0,11.0,11.0,3.0,1.0,-2.0,1650823412264725.0
-1.0,-6.0,-19.0,-17.0,-9.0,-3.0,-4.0,0.0,1650823412264725.0
1.0,6.0,3.0,4.0,7.0,7.0,0.0,-1.0,1650823412265683.0
0.0,8.0,5.0,5.0,-13.0,-13.0,0.0,-1.0,1650823412265683.0
2.0,3.0,18.0,19.0,3.0,4.0,4.0,4.0,1650823412286773.0
5.0,9.0,6.0,7.0,8.0,1.0,3.0,3.0,1650823412286773.0
-15.0,-34.0,-41.0,-40.0,-18.0,-8.0,-11.0,-10.0,1650823412288729.0
-5.0,-5.0,7.0,-9.0,-10.0,0.0,-1.0,-3.0,1650823412288729.0
1.0,4.0,15.0,11.0,14.0,9.0,3.0,-2.0,1650823412301763.0
11.0,11.0,9.0,9.0,7.0,0.0,4.0,2.0,1650823412301763.0
-1.0,6.0,11.0,19.0,5.0,1.0,4.0,4.0,1650823412307775.0
-6.0,-10.0,-9.0,-10.0,-9.0,-7.0,-2.0,-2.0,1650823412307775.0
-2.0,-1.0,-3.0,-5.0,-7.0,-4.0,-4.0,-1.0,1650823412324755.0
-1.0,-3.0,-3.0,-5.0,3.0,6.0,5.0,10.0,1650823412324755.0
4.0,7.0,0.0,2.0,-1.0,-8.0,-9.0,-28.0,1650823412325699.0
4.0,6.0,3.0,5.0,2.0,2.0,0.0,3.0,1650823412325699.0
-3.0,-3.0,-11.0,-7.0,-13.0,-1.0,-3.0,-3.0,1650823412346710.0
-5.0,-4.0,-7.0,-4.0,-5.0,-3.0,-1.0,-5.0,1650823412346710.0
4.0,2.0,17.0,26.0,12.0,2.0,4.0,9.0,1650823412348665.0
-2.0,-9.0,-14.0,-16.0,-5.0,0.0,-2.0,1.0,1650823412348665.0
-1.0,-6.0,9.0,-1.0,3.0,1.0,-3.0,-4.0,1650823412369807.0
3.0,-2.0,-21.0,-11.0,4.0,2.0,3.0,5.0,1650823412369807.0
0.0,7.0,29.0,13.0,-6.0,-5.0,2.0,4.0,1650823412370751.0
-14.0,-8.0,-22.0,-4.0,9.0,3.0,0.0,-11.0,1650823412370751.0
7.0,5.0,-12.0,0.0,-5.0,-7.0,-1.0,18.0,1650823412384869.0
-6.0,-14.0,-36.0,-41.0,-14.0,-5.0,-4.0,-4.0,1650823412384869.0
5.0,9.0,23.0,11.0,-7.0,9.0,4.0,4.0,1650823412385865.0
7.0,4.0,5.0,13.0,3.0,-7.0,2.0,7.0,1650823412385865.0
-3.0,3.0,0.0,3.0,28.0,17.0,3.0,-6.0,1650823412406837.0
-1.0,-5.0,-4.0,12.0,-1.0,-11.0,3.0,2.0,1650823412406837.0
1.0,-3.0,-15.0,-14.0,-7.0,-5.0,-4.0,3.0,1650823412408825.0
1.0,2.0,0.0,-9.0,-8.0,-1.0,-3.0,-2.0,1650823412408825.0
-1.0,0.0,5.0,4.0,1.0,5.0,0.0,-3.0,1650823412420854.0
-1.0,3.0,13.0,2.0,-2.0,-2.0,-1.0,-2.0,1650823412420854.0
-3.0,-9.0,-18.0,-10.0,-9.0,-8.0,-1.0,1.0,1650823412427837.0
5.0,11.0,5.0,12.0,2.0,5.0,-1.0,-1.0,1650823412427837.0
2.0,11.0,6.0,-4.0,1.0,-2.0,3.0,2.0,1650823412444792.0
-12.0,-11.0,3.0,1.0,9.0,2.0,-4.0,-8.0,1650823412444792.0
14.0,5.0,-21.0,5.0,9.0,9.0,8.0,14.0,1650823412445790.0
0.0,4.0,0.0,-2.0,-1.0,-3.0,3.0,9.0,1650823412445790.0
-9.0,-9.0,-5.0,-11.0,-10.0,-4.0,-7.0,-14.0,1650823412466811.0
6.0,5.0,9.0,-5.0,-15.0,-6.0,-5.0,-3.0,1650823412466811.0
-3.0,2.0,5.0,13.0,3.0,1.0,2.0,-1.0,1650823412468740.0
8.0,4.0,8.0,16.0,24.0,9.0,6.0,6.0,1650823412468740.0
-5.0,-14.0,-27.0,-29.0,-21.0,-9.0,-6.0,-4.0,1650823412489711.0
-1.0,2.0,14.0,5.0,10.0,-1.0,-1.0,0.0,1650823412489711.0
0.0,-4.0,-7.0,-1.0,-8.0,1.0,1.0,1.0,1650823412490687.0
-2.0,-4.0,-4.0,-6.0,-7.0,-8.0,-2.0,-5.0,1650823412490687.0
-2.0,-1.0,2.0,5.0,6.0,1.0,0.0,1.0,1650823412504672.0
0.0,3.0,4.0,11.0,8.0,10.0,-3.0,-5.0,1650823412504672.0
-1.0,-6.0,-6.0,-12.0,6.0,-7.0,-2.0,1.0,1650823412505641.0
-1.0,2.0,6.0,0.0,-9.0,-8.0,-1.0,-1.0,1650823412505641.0
-2.0,-3.0,-4.0,-3.0,-14.0,-7.0,0.0,-1.0,1650823412526697.0
3.0,-1.0,0.0,6.0,-2.0,-3.0,-1.0,1.0,1650823412526697.0
-1.0,8.0,13.0,10.0,7.0,7.0,1.0,1.0,1650823412528675.0
-2.0,-8.0,-12.0,-12.0,0.0,2.0,8.0,10.0,1650823412528675.0
0.0,-1.0,1.0,1.0,10.0,9.0,-3.0,-6.0,1650823412540657.0
-1.0,4.0,4.0,-2.0,-5.0,-6.0,1.0,-2.0,1650823412540657.0
1.0,2.0,-1.0,-1.0,-11.0,-6.0,-3.0,-2.0,1650823412549619.0
-2.0,-2.0,-6.0,-7.0,4.0,2.0,-1.0,2.0,1650823412549619.0
3.0,0.0,3.0,1.0,-3.0,1.0,0.0,2.0,1650823412564566.0
0.0,4.0,-1.0,-4.0,11.0,7.0,2.0,3.0,1650823412564566.0
-6.0,-10.0,-7.0,4.0,-13.0,-6.0,-2.0,-7.0,1650823412565563.0
5.0,8.0,17.0,3.0,1.0,1.0,-5.0,-7.0,1650823412565563.0
-1.0,-2.0,-2.0,7.0,5.0,4.0,1.0,4.0,1650823412586507.0
8.0,-1.0,-1.0,-2.0,-12.0,-5.0,-6.0,-6.0,1650823412586507.0
-15.0,4.0,-4.0,-14.0,-1.0,-6.0,-1.0,0.0,1650823412588502.0
3.0,-5.0,-4.0,1.0,0.0,1.0,-1.0,-5.0,1650823412588502.0
-9.0,1.0,-2.0,6.0,9.0,3.0,2.0,1.0,1650823412600469.0
5.0,2.0,9.0,7.0,-4.0,-2.0,4.0,1.0,1650823412600469.0
8.0,6.0,1.0,2.0,5.0,-1.0,0.0,2.0,1650823412609446.0
0.0,0.0,-4.0,-1.0,-4.0,0.0,0.0,-1.0,1650823412609446.0
2.0,-4.0,-15.0,-13.0,-8.0,-6.0,-2.0,0.0,1650823412624405.0
-4.0,-3.0,-4.0,-1.0,-3.0,-2.0,2.0,4.0,1650823412624405.0
-3.0,-5.0,-4.0,-8.0,-2.0,1.0,-2.0,-3.0,1650823412626442.0
-7.0,1.0,2.0,4.0,5.0,-1.0,0.0,-5.0,1650823412626442.0
5.0,0.0,0.0,9.0,5.0,3.0,-2.0,-2.0,1650823412647353.0
1.0,-1.0,-3.0,-7.0,4.0,4.0,0.0,0.0,1650823412647353.0
-7.0,-7.0,-4.0,-9.0,-7.0,-3.0,-4.0,-1.0,1650823412649339.0
0.0,-2.0,2.0,2.0,-1.0,-2.0,-3.0,-3.0,1650823412649339.0
3.0,3.0,3.0,-3.0,-4.0,-3.0,3.0,2.0,1650823412660376.0
3.0,1.0,-6.0,-10.0,1.0,7.0,0.0,-1.0,1650823412660376.0
-1.0,0.0,6.0,7.0,0.0,-1.0,3.0,-1.0,1650823412669288.0
-1.0,2.0,8.0,2.0,-10.0,-10.0,-5.0,-3.0,1650823412669288.0
2.0,-5.0,0.0,9.0,15.0,10.0,0.0,-2.0,1650823412684728.0
-10.0,1.0,3.0,5.0,1.0,-3.0,-1.0,-1.0,1650823412684728.0
4.0,-2.0,10.0,-2.0,2.0,1.0,-2.0,-1.0,1650823412685687.0
-2.0,2.0,-3.0,-4.0,-3.0,1.0,-1.0,0.0,1650823412685687.0
0.0,-3.0,-16.0,-11.0,-12.0,-10.0,-4.0,-3.0,1650823412706700.0
1.0,-1.0,2.0,8.0,2.0,12.0,1.0,1.0,1650823412706700.0
-3.0,0.0,4.0,-1.0,13.0,0.0,2.0,-1.0,1650823412708629.0
-8.0,-6.0,-6.0,-3.0,-7.0,-3.0,-1.0,-2.0,1650823412708629.0
2.0,3.0,9.0,0.0,0.0,-3.0,-1.0,-1.0,1650823412720597.0
-1.0,-3.0,-8.0,-9.0,5.0,-2.0,-5.0,-4.0,1650823412720597.0
4.0,3.0,4.0,14.0,-24.0,-3.0,0.0,1.0,1650823412729574.0
1.0,-3.0,-6.0,-9.0,19.0,9.0,5.0,2.0,1650823412729574.0
6.0,3.0,2.0,5.0,1.0,-2.0,1.0,2.0,1650823412744599.0
-9.0,-3.0,6.0,5.0,-3.0,-3.0,-1.0,-3.0,1650823412744599.0
4.0,-5.0,-7.0,-9.0,-3.0,-1.0,-2.0,1.0,1650823412746528.0
3.0,1.0,-3.0,0.0,5.0,1.0,-1.0,1.0,1650823412746528.0
-5.0,-2.0,7.0,1.0,-6.0,3.0,0.0,2.0,1650823412766541.0
0.0,2.0,3.0,4.0,3.0,-3.0,2.0,-1.0,1650823412766541.0
2.0,-6.0,-6.0,-2.0,12.0,6.0,0.0,0.0,1650823412768469.0
1.0,0.0,-6.0,-10.0,-11.0,-5.0,-3.0,-1.0,1650823412768469.0
0.0,0.0,1.0,-3.0,1.0,-3.0,-2.0,-1.0,1650823412780438.0
-3.0,-5.0,-6.0,-4.0,-13.0,-3.0,0.0,0.0,1650823412780438.0
-10.0,6.0,10.0,4.0,13.0,4.0,-3.0,-6.0,1650823412789412.0
5.0,4.0,-8.0,1.0,-6.0,2.0,4.0,1.0,1650823412789412.0
-2.0,-12.0,4.0,7.0,12.0,8.0,1.0,-1.0,1650823412804439.0
0.0,0.0,-7.0,-7.0,-5.0,-3.0,-2.0,0.0,1650823412804439.0
1.0,-3.0,-6.0,-5.0,10.0,-6.0,-2.0,-1.0,1650823412806394.0
0.0,2.0,8.0,10.0,-20.0,-3.0,-1.0,0.0,1650823412806394.0
0.0,3.0,-2.0,-5.0,3.0,-2.0,0.0,0.0,1650823412827350.0
0.0,-4.0,-2.0,-4.0,-7.0,-3.0,-1.0,-2.0,1650823412827350.0
-1.0,1.0,-1.0,-6.0,5.0,5.0,-1.0,-2.0,1650823412828309.0
-4.0,-7.0,1.0,4.0,5.0,-4.0,-5.0,-3.0,1650823412828309.0
-2.0,0.0,-5.0,-3.0,-8.0,3.0,1.0,0.0,1650823412840911.0
1.0,0.0,4.0,-2.0,-5.0,-9.0,0.0,-2.0,1650823412840911.0
-2.0,-4.0,-3.0,4.0,-8.0,-5.0,-1.0,-2.0,1650823412849890.0
4.0,2.0,-4.0,-5.0,5.0,1.0,-1.0,-1.0,1650823412849890.0
-2.0,-4.0,0.0,1.0,3.0,4.0,1.0,-2.0,1650823412863853.0
-9.0,-1.0,3.0,0.0,5.0,0.0,1.0,-1.0,1650823412863853.0
0.0,-1.0,0.0,1.0,-14.0,-1.0,0.0,1.0,1650823412865854.0
3.0,-2.0,-11.0,-9.0,-2.0,-4.0,-5.0,-2.0,1650823412865854.0
3.0,3.0,-2.0,-4.0,15.0,0.0,-2.0,0.0,1650823412886948.0
-6.0,-1.0,4.0,2.0,-7.0,-1.0,-1.0,-5.0,1650823412886948.0
3.0,-1.0,-3.0,-2.0,-9.0,-2.0,1.0,1.0,1650823412888877.0
0.0,-1.0,6.0,14.0,6.0,2.0,4.0,1.0,1650823412888877.0
-7.0,1.0,-2.0,-15.0,-5.0,-6.0,-2.0,-3.0,1650823412900930.0
-5.0,-11.0,-3.0,-2.0,-3.0,-6.0,-4.0,-3.0,1650823412900930.0
1.0,0.0,-6.0,0.0,1.0,0.0,1.0,0.0,1650823412909923.0
-1.0,3.0,7.0,2.0,10.0,5.0,2.0,2.0,1650823412909923.0
2.0,1.0,3.0,8.0,-3.0,-1.0,0.0,0.0,1650823412924869.0
3.0,4.0,0.0,-5.0,-9.0,0.0,-2.0,1.0,1650823412924869.0
-2.0,-3.0,-4.0,0.0,-1.0,0.0,-1.0,1.0,1650823412926864.0
-1.0,-8.0,6.0,-7.0,-8.0,-3.0,-3.0,-2.0,1650823412926864.0
-1.0,10.0,5.0,1.0,1.0,-4.0,3.0,-1.0,1650823412946811.0
-4.0,-11.0,-16.0,-10.0,2.0,3.0,-1.0,-1.0,1650823412946811.0
2.0,2.0,1.0,-4.0,-3.0,-2.0,1.0,0.0,1650823412948832.0
0.0,3.0,2.0,6.0,1.0,1.0,0.0,0.0,1650823412948832.0
-4.0,-3.0,-2.0,0.0,-6.0,0.0,0.0,0.0,1650823412969356.0
5.0,6.0,6.0,0.0,7.0,1.0,1.0,2.0,1650823412969356.0
0.0,-1.0,0.0,0.0,-9.0,-4.0,-1.0,0.0,1650823412971314.0
-3.0,-4.0,-5.0,-1.0,2.0,4.0,-2.0,-3.0,1650823412971314.0
0.0,-1.0,2.0,-3.0,-4.0,4.0,3.0,4.0,1650823412983482.0
5.0,3.0,4.0,10.0,4.0,1.0,0.0,-1.0,1650823412983482.0
-7.0,-3.0,-5.0,-3.0,4.0,-2.0,-2.0,-1.0,1650823412992313.0
2.0,0.0,4.0,-3.0,-3.0,0.0,-2.0,-2.0,1650823412992313.0
-1.0,1.0,-8.0,0.0,-11.0,-10.0,-4.0,-1.0,1650823413006959.0
1.0,-2.0,5.0,1.0,5.0,7.0,1.0,1.0,1650823413006959.0
-3.0,-3.0,-1.0,-1.0,6.0,5.0,3.0,-1.0,1650823413008892.0
-4.0,-4.0,-4.0,0.0,-9.0,-9.0,0.0,-3.0,1650823413008892.0
7.0,6.0,11.0,8.0,-6.0,-2.0,1.0,1.0,1650823413028952.0
2.0,5.0,-2.0,-5.0,7.0,3.0,0.0,0.0,1650823413028952.0
0.0,2.0,5.0,6.0,5.0,0.0,-4.0,1.0,1650823413030923.0
3.0,2.0,-1.0,-7.0,8.0,2.0,0.0,1.0,1650823413030923.0
-5.0,-11.0,-11.0,0.0,-14.0,0.0,-3.0,-5.0,1650823413044726.0
-1.0,5.0,7.0,-6.0,-10.0,-9.0,0.0,0.0,1650823413044726.0
-1.0,-3.0,-6.0,3.0,2.0,8.0,3.0,-1.0,1650823413045965.0
-1.0,-1.0,2.0,4.0,6.0,1.0,-1.0,0.0,1650823413045965.0
5.0,7.0,3.0,-1.0,0.0,-1.0,-2.0,4.0,1650823413066974.0
-5.0,-6.0,-2.0,3.0,-2.0,-2.0,-3.0,-5.0,1650823413066974.0
11.0,3.0,-3.0,3.0,2.0,0.0,-1.0,1.0,1650823413068929.0
-13.0,-1.0,6.0,2.0,5.0,3.0,1.0,5.0,1650823413068929.0
3.0,-9.0,-23.0,-7.0,6.0,-2.0,0.0,0.0,1650823413089944.0
-5.0,6.0,8.0,-2.0,-5.0,2.0,-4.0,-4.0,1650823413089944.0
3.0,-3.0,5.0,-6.0,-2.0,-1.0,1.0,3.0,1650823413090944.0
2.0,1.0,-9.0,7.0,-3.0,0.0,1.0,3.0,1650823413090944.0
-7.0,-8.0,5.0,-5.0,5.0,-6.0,-3.0,3.0,1650823413103974.0
-2.0,-2.0,-10.0,-6.0,-14.0,-7.0,-2.0,-2.0,1650823413103974.0
-1.0,5.0,9.0,8.0,8.0,9.0,3.0,1.0,1650823413110920.0
6.0,8.0,5.0,5.0,7.0,-3.0,-1.0,-1.0,1650823413110920.0
-2.0,-5.0,-3.0,3.0,-3.0,3.0,-1.0,-1.0,1650823413126913.0
2.0,0.0,4.0,3.0,0.0,0.0,-1.0,-1.0,1650823413126913.0
-3.0,-2.0,4.0,-9.0,-4.0,-8.0,-7.0,-7.0,1650823413128870.0
0.0,-5.0,-27.0,-11.0,-17.0,-2.0,-2.0,-3.0,1650823413128870.0
-2.0,10.0,6.0,-8.0,6.0,-1.0,-1.0,-4.0,1650823413149798.0
-2.0,-4.0,-6.0,6.0,14.0,12.0,1.0,2.0,1650823413149798.0
-2.0,4.0,20.0,8.0,-6.0,-6.0,0.0,0.0,1650823413150784.0
-3.0,1.0,12.0,8.0,-4.0,-4.0,3.0,9.0,1650823413150784.0
1.0,10.0,0.0,2.0,-1.0,-2.0,-4.0,-7.0,1650823413163749.0
-5.0,-19.0,0.0,-1.0,-4.0,1.0,-6.0,-5.0,1650823413163749.0
11.0,8.0,-1.0,4.0,27.0,9.0,1.0,5.0,1650823413170797.0
-23.0,-18.0,-9.0,-5.0,-22.0,-10.0,-6.0,-3.0,1650823413170797.0
-2.0,-1.0,5.0,0.0,-4.0,-2.0,3.0,-7.0,1650823413186715.0
1.0,7.0,6.0,1.0,5.0,3.0,5.0,18.0,1650823413186715.0
-7.0,-12.0,-21.0,-4.0,-5.0,0.0,-4.0,-3.0,1650823413188713.0
7.0,3.0,6.0,-16.0,-2.0,1.0,-5.0,-10.0,1650823413188713.0
1.0,-4.0,-10.0,9.0,0.0,-2.0,2.0,10.0,1650823413209686.0
4.0,1.0,-5.0,8.0,-2.0,0.0,-2.0,-3.0,1650823413209686.0
-4.0,1.0,-3.0,-11.0,6.0,-2.0,2.0,-4.0,1650823413210666.0
4.0,-2.0,-7.0,8.0,-4.0,5.0,0.0,6.0,1650823413210666.0
0.0,1.0,19.0,-6.0,2.0,2.0,4.0,0.0,1650823413223700.0
7.0,8.0,6.0,1.0,-8.0,-9.0,-1.0,-1.0,1650823413223700.0
-1.0,-1.0,-4.0,0.0,-1.0,3.0,1.0,2.0,1650823413230658.0
0.0,1.0,-4.0,-1.0,8.0,3.0,-1.0,-7.0,1650823413230658.0
5.0,-3.0,6.0,10.0,-1.0,3.0,-1.0,1.0,1650823413246614.0
-10.0,-3.0,-6.0,-1.0,2.0,-4.0,-2.0,-5.0,1650823413246614.0
-2.0,2.0,-5.0,-9.0,-14.0,-7.0,3.0,0.0,1650823413248610.0
-7.0,1.0,9.0,3.0,21.0,5.0,1.0,6.0,1650823413248610.0
-1.0,-2.0,-4.0,-3.0,-18.0,-11.0,0.0,2.0,1650823413269579.0
3.0,0.0,-1.0,-6.0,-1.0,-3.0,-1.0,-4.0,1650823413269579.0
0.0,2.0,-6.0,6.0,7.0,10.0,0.0,-3.0,1650823413271559.0
3.0,2.0,11.0,-4.0,-5.0,-10.0,-1.0,-2.0,1650823413271559.0
6.0,1.0,0.0,2.0,6.0,1.0,0.0,1.0,1650823413283583.0
-10.0,-1.0,1.0,0.0,2.0,-1.0,2.0,7.0,1650823413283583.0
0.0,-5.0,-2.0,-3.0,-6.0,-4.0,-4.0,-3.0,1650823413290496.0
3.0,0.0,-1.0,-3.0,5.0,1.0,0.0,-2.0,1650823413290496.0
0.0,0.0,-7.0,-2.0,-7.0,5.0,-3.0,-1.0,1650823413306989.0
3.0,-4.0,-9.0,3.0,-3.0,-11.0,0.0,0.0,1650823413306989.0
2.0,3.0,11.0,8.0,-2.0,8.0,1.0,0.0,1650823413308918.0
1.0,0.0,-11.0,-18.0,5.0,-6.0,0.0,1.0,1650823413308918.0
-10.0,-4.0,6.0,1.0,-7.0,-1.0,-3.0,-2.0,1650823413329743.0
10.0,4.0,-1.0,-3.0,6.0,10.0,2.0,7.0,1650823413329743.0
-1.0,-4.0,-2.0,2.0,-8.0,-1.0,1.0,2.0,1650823413330741.0
-6.0,-7.0,1.0,5.0,-10.0,-5.0,-4.0,-9.0,1650823413330741.0
-8.0,2.0,7.0,-3.0,1.0,-6.0,-4.0,-4.0,1650823413343733.0
0.0,-2.0,-15.0,-4.0,1.0,0.0,2.0,-4.0,1650823413343733.0
-4.0,-9.0,-2.0,-5.0,-1.0,-4.0,-5.0,-2.0,1650823413350758.0
5.0,6.0,3.0,0.0,-5.0,4.0,5.0,3.0,1650823413350758.0
-3.0,0.0,-4.0,0.0,7.0,2.0,-6.0,-2.0,1650823413366847.0
3.0,-2.0,2.0,7.0,6.0,5.0,3.0,2.0,1650823413366847.0
1.0,0.0,4.0,-5.0,2.0,0.0,-3.0,-1.0,1650823413368781.0
-4.0,0.0,-1.0,-3.0,-15.0,-1.0,-1.0,-4.0,1650823413368781.0
3.0,-11.0,-10.0,1.0,2.0,-5.0,4.0,5.0,1650823413389792.0
5.0,6.0,20.0,11.0,11.0,9.0,-2.0,-5.0,1650823413389792.0
1.0,-5.0,-18.0,-11.0,-15.0,-12.0,-1.0,3.0,1650823413390722.0
-7.0,-1.0,-7.0,-15.0,-3.0,2.0,0.0,-1.0,1650823413390722.0
17.0,7.0,8.0,6.0,1.0,6.0,1.0,1.0,1650823413403751.0
-16.0,4.0,5.0,-1.0,-4.0,7.0,-1.0,3.0,1650823413403751.0
1.0,-3.0,-2.0,2.0,-4.0,-13.0,2.0,-1.0,1650823413410829.0
5.0,-3.0,4.0,7.0,4.0,-2.0,-4.0,0.0,1650823413410829.0
-10.0,-2.0,-5.0,3.0,12.0,5.0,4.0,2.0,1650823413426852.0
4.0,1.0,-7.0,-5.0,2.0,5.0,-2.0,-4.0,1650823413426852.0
-2.0,6.0,3.0,-4.0,-4.0,-8.0,-11.0,-9.0,1650823413428784.0
7.0,-6.0,-4.0,7.0,-5.0,-5.0,-2.0,-6.0,1650823413428784.0
1.0,1.0,-2.0,-7.0,6.0,0.0,3.0,11.0,1650823413449794.0
-2.0,-6.0,-1.0,1.0,7.0,4.0,2.0,-2.0,1650823413449794.0
-3.0,0.0,0.0,12.0,-3.0,-2.0,2.0,4.0,1650823413450738.0
3.0,0.0,2.0,-8.0,-3.0,0.0,0.0,0.0,1650823413450738.0
-1.0,4.0,-1.0,3.0,4.0,8.0,-3.0,-7.0,1650823413462759.0
-1.0,-7.0,-8.0,-3.0,-8.0,-11.0,6.0,1.0,1650823413462759.0
-3.0,4.0,8.0,-9.0,-4.0,0.0,-6.0,-7.0,1650823413479771.0
-4.0,-7.0,0.0,9.0,1.0,3.0,3.0,-2.0,1650823413479771.0
-1.0,2.0,-1.0,-2.0,8.0,0.0,1.0,-4.0,1650823413486819.0
-1.0,-2.0,-6.0,-11.0,-8.0,-5.0,-11.0,-6.0,1650823413486819.0
1.0,-1.0,4.0,3.0,-6.0,-5.0,6.0,5.0,1650823413488779.0
4.0,9.0,7.0,15.0,20.0,11.0,2.0,2.0,1650823413488779.0
-1.0,-6.0,-8.0,-10.0,-5.0,15.0,-4.0,-3.0,1650823413509691.0
2.0,-1.0,4.0,4.0,-9.0,-22.0,0.0,2.0,1650823413509691.0
-7.0,2.0,-2.0,2.0,0.0,-2.0,0.0,-3.0,1650823413510689.0
1.0,1.0,1.0,-3.0,-2.0,0.0,-11.0,-3.0,1650823413510689.0
-2.0,-1.0,1.0,-2.0,1.0,1.0,21.0,3.0,1650823413522720.0
-2.0,-10.0,-14.0,-20.0,-17.0,-20.0,-27.0,-8.0,1650823413522720.0
0.0,2.0,2.0,2.0,-17.0,10.0,2.0,1.0,1650823413531634.0
2.0,1.0,3.0,17.0,46.0,27.0,23.0,5.0,1650823413531634.0
-4.0,-1.0,15.0,11.0,5.0,-18.0,-8.0,-11.0,1650823413546719.0
3.0,-1.0,-8.0,-5.0,-17.0,-3.0,-18.0,-20.0,1650823413546719.0
-5.0,0.0,-2.0,-6.0,-2.0,-11.0,-6.0,-4.0,1650823413548715.0
2.0,1.0,4.0,-3.0,-12.0,-4.0,1.0,4.0,1650823413548715.0
6.0,-5.0,-11.0,-3.0,-8.0,-1.0,-3.0,0.0,1650823413569658.0
-5.0,2.0,4.0,2.0,6.0,5.0,15.0,3.0,1650823413569658.0
0.0,-8.0,-11.0,-5.0,8.0,4.0,-3.0,1.0,1650823413570655.0
1.0,-2.0,-11.0,-10.0,-16.0,2.0,-7.0,-8.0,1650823413570655.0
-2.0,-2.0,2.0,6.0,-1.0,-11.0,1.0,2.0,1650823413582694.0
6.0,8.0,7.0,-4.0,0.0,1.0,6.0,4.0,1650823413582694.0
-3.0,1.0,-3.0,2.0,21.0,15.0,5.0,3.0,1650823413591633.0
-4.0,1.0,9.0,6.0,1.0,-1.0,-1.0,5.0,1650823413591633.0
2.0,-6.0,-3.0,-2.0,-4.0,-6.0,4.0,-3.0,1650823413606626.0
-13.0,-7.0,-8.0,1.0,5.0,12.0,-7.0,2.0,1650823413606626.0
-4.0,14.0,10.0,3.0,-16.0,-26.0,-9.0,-5.0,1650823413608556.0
2.0,0.0,4.0,1.0,7.0,5.0,-1.0,1.0,1650823413608556.0
0.0,0.0,4.0,-3.0,-27.0,-9.0,-9.0,1.0,1650823413628798.0
15.0,44.0,16.0,16.0,17.0,20.0,22.0,9.0,1650823413628798.0
-12.0,-83.0,-43.0,-24.0,5.0,7.0,1.0,-7.0,1650823413636748.0
-5.0,25.0,14.0,-1.0,-5.0,-11.0,-11.0,-3.0,1650823413636748.0
0.0,3.0,6.0,6.0,5.0,2.0,5.0,15.0,1650823413642758.0
3.0,12.0,25.0,22.0,12.0,0.0,4.0,1.0,1650823413642758.0
4.0,3.0,-15.0,-19.0,-15.0,-5.0,-17.0,-3.0,1650823413651734.0
4.0,-7.0,-15.0,-16.0,-15.0,-6.0,-1.0,-1.0,1650823413651734.0
0.0,5.0,2.0,-9.0,-3.0,1.0,0.0,4.0,1650823413666734.0
0.0,-1.0,3.0,12.0,5.0,-2.0,3.0,3.0,1650823413666734.0
1.0,13.0,11.0,20.0,15.0,10.0,10.0,0.0,1650823413668662.0
-9.0,-29.0,-28.0,-22.0,-8.0,-6.0,6.0,0.0,1650823413668662.0
-1.0,10.0,-7.0,-11.0,-1.0,-3.0,-6.0,-12.0,1650823413689806.0
3.0,-1.0,6.0,0.0,-16.0,-4.0,-6.0,0.0,1650823413689806.0
11.0,24.0,17.0,11.0,6.0,5.0,3.0,0.0,1650823413690747.0
7.0,1.0,8.0,12.0,7.0,0.0,11.0,1.0,1650823413690747.0
-4.0,22.0,12.0,6.0,13.0,10.0,-10.0,-3.0,1650823413702778.0
-5.0,-33.0,-29.0,-13.0,-12.0,-14.0,10.0,10.0,1650823413702778.0
2.0,5.0,3.0,1.0,6.0,7.0,-2.0,3.0,1650823413711736.0
4.0,16.0,6.0,3.0,-3.0,0.0,6.0,3.0,1650823413711736.0
-4.0,-22.0,-19.0,-7.0,9.0,14.0,-8.0,-4.0,1650823413726678.0
3.0,4.0,2.0,-9.0,-16.0,-18.0,-8.0,9.0,1650823413726678.0
11.0,10.0,22.0,18.0,5.0,2.0,12.0,12.0,1650823413728665.0
2.0,6.0,-10.0,-4.0,-5.0,-12.0,-7.0,-20.0,1650823413728665.0
-5.0,-3.0,-12.0,-12.0,-8.0,-7.0,-4.0,3.0,1650823413756570.0
-10.0,-7.0,0.0,0.0,16.0,22.0,5.0,-4.0,1650823413756570.0
12.0,14.0,4.0,-6.0,-4.0,-2.0,5.0,1.0,1650823413758565.0
-20.0,-24.0,0.0,4.0,-3.0,7.0,-7.0,13.0,1650823413758565.0
10.0,27.0,25.0,18.0,2.0,-13.0,-1.0,-2.0,1650823413762554.0
0.0,-26.0,-22.0,-10.0,-6.0,1.0,25.0,-59.0,1650823413762554.0
7.0,14.0,12.0,4.0,4.0,-14.0,-61.0,32.0,1650823413772557.0
-14.0,-10.0,-10.0,-2.0,-4.0,-2.0,-3.0,-28.0,1650823413772557.0
-1.0,-11.0,-20.0,-16.0,-10.0,-2.0,17.0,-4.0,1650823413786814.0
-1.0,15.0,11.0,0.0,-4.0,-6.0,-3.0,1.0,1650823413786814.0
-10.0,-15.0,9.0,16.0,9.0,14.0,18.0,27.0,1650823413788743.0
-3.0,-6.0,-6.0,-10.0,-4.0,-1.0,-2.0,1.0,1650823413788743.0
-3.0,0.0,28.0,20.0,1.0,-1.0,-8.0,-10.0,1650823413809816.0
2.0,-1.0,-12.0,-2.0,6.0,7.0,-12.0,-2.0,1650823413809816.0
8.0,-10.0,-21.0,-19.0,-5.0,0.0,20.0,-4.0,1650823413810743.0
-3.0,-58.0,15.0,15.0,-1.0,-7.0,-11.0,35.0,1650823413810743.0
1.0,46.0,-11.0,-17.0,-2.0,4.0,25.0,53.0,1650823413823478.0
17.0,26.0,9.0,10.0,-5.0,-1.0,-35.0,-54.0,1650823413823478.0
-56.0,-55.0,8.0,-10.0,-11.0,-16.0,-13.0,-35.0,1650823413831731.0
8.0,1.0,-51.0,-41.0,-9.0,-4.0,14.0,-15.0,1650823413831731.0
-15.0,-19.0,16.0,27.0,9.0,9.0,-6.0,5.0,1650823413846690.0
-1.0,24.0,24.0,5.0,8.0,2.0,11.0,45.0,1650823413846690.0
15.0,22.0,1.0,0.0,-6.0,6.0,10.0,-12.0,1650823413848686.0
1.0,23.0,18.0,17.0,4.0,-15.0,-33.0,-11.0,1650823413848686.0
7.0,-19.0,-13.0,-22.0,-7.0,3.0,12.0,-7.0,1650823413876610.0
1.0,19.0,5.0,7.0,7.0,-2.0,-10.0,26.0,1650823413876610.0
-3.0,-5.0,-16.0,11.0,12.0,11.0,33.0,5.0,1650823413878605.0
-2.0,-31.0,-16.0,-9.0,-13.0,-3.0,-12.0,8.0,1650823413878605.0
13.0,25.0,15.0,1.0,-7.0,-8.0,3.0,4.0,1650823413891633.0
-19.0,-97.0,-32.0,-15.0,-8.0,-9.0,-10.0,-33.0,1650823413891633.0
29.0,35.0,26.0,36.0,8.0,8.0,3.0,21.0,1650823413893565.0
-13.0,-2.0,-13.0,-38.0,7.0,4.0,8.0,-3.0,1650823413893565.0
-4.0,-9.0,-10.0,-19.0,-5.0,-2.0,-3.0,-15.0,1650823413906701.0
-8.0,-10.0,12.0,6.0,1.0,8.0,6.0,17.0,1650823413906701.0
2.0,-15.0,-29.0,-21.0,-7.0,-12.0,-7.0,2.0,1650823413908697.0
4.0,10.0,-14.0,3.0,-6.0,-8.0,-3.0,-16.0,1650823413908697.0
5.0,-8.0,2.0,12.0,8.0,22.0,19.0,-25.0,1650823413929668.0
-1.0,25.0,14.0,-1.0,3.0,-13.0,-25.0,57.0,1650823413929668.0
-2.0,7.0,8.0,9.0,2.0,-8.0,-10.0,-22.0,1650823413930638.0
-11.0,23.0,20.0,28.0,26.0,7.0,3.0,9.0,1650823413930638.0
-12.0,1.0,9.0,11.0,0.0,1.0,-9.0,-9.0,1650823413951648.0
14.0,-5.0,-25.0,-37.0,-21.0,-3.0,15.0,-37.0,1650823413951648.0
-13.0,6.0,16.0,-5.0,-4.0,-2.0,-3.0,7.0,1650823413953577.0
31.0,15.0,14.0,18.0,4.0,4.0,8.0,38.0,1650823413953577.0
-13.0,-5.0,12.0,10.0,10.0,5.0,2.0,-10.0,1650823413966608.0
-22.0,-59.0,-78.0,-49.0,-27.0,-17.0,-16.0,-21.0,1650823413966608.0
-3.0,2.0,-11.0,-21.0,-15.0,-7.0,-4.0,6.0,1650823413968542.0
11.0,9.0,29.0,24.0,10.0,8.0,15.0,-10.0,1650823413968542.0
13.0,68.0,23.0,12.0,4.0,4.0,-3.0,20.0,1650823413989628.0
5.0,13.0,15.0,19.0,16.0,-1.0,-12.0,8.0,1650823413989628.0
0.0,-15.0,6.0,-3.0,-5.0,1.0,-4.0,-26.0,1650823413990559.0
-10.0,-24.0,-44.0,-30.0,-10.0,-2.0,3.0,1.0,1650823413990559.0
-18.0,-29.0,-8.0,-10.0,-3.0,-2.0,-28.0,-20.0,1650823414011601.0
14.0,17.0,15.0,7.0,-3.0,-13.0,21.0,43.0,1650823414011601.0
-42.0,31.0,-4.0,-2.0,1.0,7.0,40.0,1.0,1650823414013533.0
-1.0,-19.0,5.0,18.0,7.0,-3.0,-54.0,6.0,1650823414013533.0
-10.0,-24.0,-20.0,-13.0,3.0,3.0,-1.0,11.0,1650823414034544.0
8.0,50.0,28.0,15.0,-1.0,11.0,20.0,9.0,1650823414034544.0
2.0,-23.0,-11.0,15.0,16.0,0.0,-9.0,-3.0,1650823414035500.0
-1.0,8.0,-15.0,-43.0,-26.0,-10.0,9.0,-7.0,1650823414035500.0
-8.0,-22.0,-31.0,-18.0,-2.0,-6.0,-1.0,-2.0,1650823414049448.0
8.0,24.0,44.0,32.0,15.0,13.0,0.0,10.0,1650823414049448.0
1.0,6.0,8.0,-22.0,-6.0,2.0,-23.0,-61.0,1650823414051457.0
-8.0,0.0,-2.0,11.0,-11.0,-13.0,11.0,-16.0,1650823414051457.0
19.0,-15.0,7.0,21.0,3.0,-3.0,-14.0,1.0,1650823414071554.0
4.0,13.0,21.0,26.0,4.0,2.0,16.0,6.0,1650823414071554.0
6.0,-8.0,25.0,24.0,16.0,12.0,0.0,-10.0,1650823414073550.0
-5.0,20.0,-28.0,-41.0,-13.0,0.0,-3.0,26.0,1650823414073550.0
18.0,-10.0,-17.0,-12.0,-8.0,-14.0,-11.0,-37.0,1650823414086684.0
-15.0,-12.0,-4.0,6.0,0.0,7.0,6.0,-4.0,1650823414086684.0
1.0,-15.0,-14.0,-7.0,-3.0,0.0,14.0,21.0,1650823414092655.0
21.0,29.0,31.0,19.0,15.0,5.0,12.0,-6.0,1650823414092655.0
-12.0,-21.0,-14.0,14.0,1.0,1.0,-17.0,2.0,1650823414109609.0
-11.0,-1.0,-18.0,-18.0,6.0,-3.0,-13.0,-12.0,1650823414109609.0
0.0,7.0,4.0,5.0,-15.0,-7.0,-7.0,4.0,1650823414110540.0
-1.0,6.0,0.0,-12.0,10.0,15.0,24.0,-31.0,1650823414110540.0
9.0,12.0,-10.0,3.0,-8.0,-11.0,-10.0,14.0,1650823414131484.0
3.0,-29.0,3.0,-7.0,-3.0,-2.0,-13.0,-8.0,1650823414131484.0
6.0,17.0,-3.0,-6.0,-1.0,0.0,-7.0,2.0,1650823414133479.0
-10.0,9.0,47.0,49.0,3.0,0.0,0.0,8.0,1650823414133479.0
-13.0,-28.0,-17.0,-11.0,-2.0,3.0,6.0,5.0,1650823414146471.0
-7.0,0.0,6.0,-11.0,1.0,0.0,-3.0,2.0,1650823414146471.0
19.0,-3.0,6.0,21.0,8.0,3.0,6.0,29.0,1650823414153484.0
-21.0,33.0,-17.0,-21.0,-16.0,-13.0,-9.0,-3.0,1650823414153484.0
7.0,-7.0,-18.0,3.0,3.0,1.0,13.0,9.0,1650823414169409.0
4.0,-19.0,4.0,5.0,-2.0,3.0,3.0,15.0,1650823414169409.0
-18.0,5.0,-13.0,-15.0,-7.0,0.0,-3.0,-31.0,1650823414171377.0
1.0,14.0,35.0,33.0,14.0,3.0,-11.0,-24.0,1650823414171377.0
-2.0,-45.0,-29.0,-37.0,-17.0,-9.0,1.0,1.0,1650823414192419.0
-1.0,36.0,-2.0,1.0,13.0,1.0,2.0,-3.0,1650823414192419.0
3.0,-12.0,-1.0,-1.0,3.0,0.0,15.0,30.0,1650823414193419.0
-1.0,-20.0,-12.0,0.0,-5.0,-1.0,-33.0,23.0,1650823414193419.0
2.0,-11.0,12.0,8.0,-19.0,-7.0,12.0,-2.0,1650823414206574.0
-3.0,-35.0,-52.0,-29.0,-3.0,1.0,0.0,-22.0,1650823414206574.0
15.0,8.0,13.0,6.0,1.0,-9.0,-7.0,21.0,1650823414213522.0
2.0,-8.0,1.0,-2.0,3.0,4.0,14.0,-2.0,1650823414213522.0
-7.0,23.0,23.0,13.0,5.0,0.0,6.0,11.0,1650823414229597.0
0.0,3.0,9.0,13.0,8.0,13.0,-6.0,-6.0,1650823414229597.0
-5.0,-5.0,-49.0,-60.0,-21.0,-10.0,3.0,-14.0,1650823414230584.0
2.0,-20.0,4.0,8.0,-3.0,-4.0,6.0,1.0,1650823414230584.0
8.0,23.0,20.0,11.0,11.0,4.0,1.0,5.0,1650823414251575.0
-5.0,19.0,26.0,21.0,-1.0,-7.0,6.0,-6.0,1650823414251575.0
10.0,4.0,-6.0,-5.0,-7.0,-1.0,-5.0,17.0,1650823414253505.0
8.0,-2.0,4.0,7.0,8.0,7.0,12.0,28.0,1650823414253505.0
-1.0,2.0,-16.0,-1.0,10.0,4.0,7.0,23.0,1650823414265470.0
3.0,2.0,11.0,6.0,2.0,3.0,-10.0,-33.0,1650823414265470.0
-2.0,-2.0,-1.0,2.0,-2.0,2.0,2.0,19.0,1650823414274446.0
9.0,-2.0,-8.0,-10.0,-5.0,-5.0,9.0,-19.0,1650823414274446.0
6.0,19.0,17.0,8.0,5.0,5.0,4.0,29.0,1650823414289433.0
1.0,-2.0,-13.0,-13.0,-9.0,-9.0,3.0,-8.0,1650823414289433.0
3.0,-16.0,-2.0,23.0,11.0,4.0,-11.0,-1.0,1650823414291422.0
-31.0,1.0,4.0,-16.0,-25.0,-6.0,-1.0,-16.0,1650823414291422.0
-2.0,-5.0,-10.0,-15.0,5.0,-1.0,-8.0,-6.0,1650823414320345.0
5.0,19.0,8.0,2.0,0.0,11.0,8.0,9.0,1650823414320345.0
-8.0,-28.0,12.0,18.0,3.0,-5.0,-12.0,-28.0,1650823414321321.0
7.0,21.0,-17.0,-29.0,-3.0,-4.0,-1.0,2.0,1650823414321321.0
-16.0,-50.0,-11.0,2.0,-1.0,-1.0,-3.0,-27.0,1650823414326335.0
3.0,7.0,30.0,24.0,3.0,-1.0,0.0,19.0,1650823414326335.0
2.0,14.0,-22.0,-11.0,0.0,-1.0,4.0,-2.0,1650823414333289.0
2.0,-20.0,-35.0,-28.0,-6.0,-6.0,-8.0,0.0,1650823414333289.0
3.0,17.0,23.0,2.0,-2.0,-2.0,3.0,2.0,1650823414349246.0
20.0,0.0,-11.0,-11.0,-2.0,2.0,13.0,29.0,1650823414349246.0
-3.0,8.0,27.0,18.0,4.0,-2.0,-12.0,-31.0,1650823414351241.0
4.0,-1.0,6.0,15.0,4.0,8.0,18.0,29.0,1650823414351241.0
-11.0,-20.0,-23.0,-22.0,-16.0,-21.0,-37.0,-65.0,1650823414372213.0
-1.0,30.0,21.0,16.0,10.0,1.0,4.0,-5.0,1650823414372213.0
3.0,13.0,-7.0,-17.0,-2.0,6.0,3.0,-1.0,1650823414373182.0
3.0,-4.0,1.0,6.0,9.0,4.0,-4.0,-10.0,1650823414373182.0
-1.0,5.0,27.0,26.0,-7.0,9.0,17.0,24.0,1650823414385746.0
-2.0,-15.0,-21.0,-19.0,3.0,-17.0,-16.0,47.0,1650823414385746.0
-7.0,18.0,-16.0,-31.0,-20.0,-3.0,-11.0,-46.0,1650823414394734.0
-3.0,-29.0,19.0,29.0,23.0,15.0,3.0,-5.0,1650823414394734.0
7.0,26.0,17.0,38.0,0.0,-9.0,6.0,15.0,1650823414408865.0
-10.0,-6.0,-34.0,-47.0,-15.0,-6.0,-6.0,-19.0,1650823414408865.0
-3.0,-20.0,1.0,9.0,8.0,6.0,7.0,18.0,1650823414410860.0
5.0,-7.0,3.0,13.0,1.0,-7.0,-3.0,9.0,1650823414410860.0
-1.0,19.0,12.0,18.0,12.0,10.0,1.0,-9.0,1650823414431958.0
-6.0,0.0,3.0,6.0,-7.0,3.0,1.0,-13.0,1650823414431958.0
10.0,1.0,-2.0,1.0,5.0,1.0,4.0,13.0,1650823414433955.0
21.0,27.0,27.0,6.0,-6.0,-3.0,-1.0,0.0,1650823414433955.0
-9.0,-32.0,-29.0,-28.0,-6.0,-10.0,-5.0,6.0,1650823414445741.0
-35.0,-28.0,-6.0,-10.0,-8.0,-3.0,-1.0,-25.0,1650823414445741.0
-12.0,-2.0,5.0,7.0,9.0,-3.0,-1.0,5.0,1650823414454743.0
14.0,1.0,-3.0,13.0,-6.0,-1.0,-7.0,17.0,1650823414454743.0
4.0,25.0,13.0,-8.0,7.0,5.0,5.0,0.0,1650823414469777.0
7.0,-11.0,-22.0,-3.0,-4.0,1.0,6.0,7.0,1650823414469777.0
2.0,6.0,24.0,11.0,2.0,4.0,-2.0,10.0,1650823414470702.0
-10.0,-12.0,-47.0,-17.0,-14.0,-8.0,-3.0,-14.0,1650823414470702.0
2.0,3.0,-10.0,-34.0,-7.0,0.0,1.0,0.0,1650823414491713.0
11.0,4.0,17.0,15.0,0.0,4.0,2.0,6.0,1650823414491713.0
-21.0,-4.0,23.0,11.0,3.0,-5.0,1.0,1.0,1650823414493672.0
1.0,3.0,-14.0,-2.0,2.0,0.0,0.0,-3.0,1650823414493672.0
-3.0,9.0,18.0,2.0,1.0,8.0,-1.0,-16.0,1650823414505673.0
4.0,-18.0,-19.0,0.0,-6.0,-7.0,1.0,9.0,1650823414505673.0
-13.0,3.0,5.0,6.0,7.0,4.0,-9.0,-40.0,1650823414514588.0
-14.0,19.0,19.0,10.0,10.0,5.0,-4.0,-34.0,1650823414514588.0
-2.0,-16.0,-15.0,-1.0,-1.0,-5.0,-24.0,-70.0,1650823414529574.0
-12.0,-5.0,-1.0,-10.0,-6.0,-4.0,2.0,-16.0,1650823414529574.0
20.0,2.0,-7.0,-4.0,-10.0,-6.0,-6.0,11.0,1650823414530543.0
-2.0,0.0,12.0,-2.0,-5.0,2.0,7.0,2.0,1650823414530543.0
6.0,8.0,-6.0,-5.0,2.0,0.0,9.0,19.0,1650823414551487.0
-3.0,-9.0,1.0,16.0,5.0,5.0,1.0,-2.0,1650823414551487.0
8.0,7.0,-5.0,1.0,-3.0,3.0,3.0,8.0,1650823414553482.0
-6.0,-24.0,3.0,-20.0,-5.0,-9.0,-4.0,0.0,1650823414553482.0
-7.0,-9.0,-2.0,6.0,-1.0,-2.0,3.0,11.0,1650823414565450.0
5.0,25.0,20.0,23.0,7.0,4.0,-3.0,2.0,1650823414565450.0
-11.0,-35.0,-84.0,-82.0,-20.0,-8.0,3.0,10.0,1650823414574273.0
2.0,10.0,33.0,28.0,6.0,8.0,1.0,-2.0,1650823414574273.0
0.0,-6.0,-6.0,-8.0,-4.0,-9.0,-5.0,0.0,1650823414590306.0
5.0,13.0,26.0,22.0,-1.0,6.0,3.0,7.0,1650823414590306.0
8.0,2.0,10.0,19.0,10.0,7.0,8.0,27.0,1650823414591819.0
2.0,-5.0,-29.0,-21.0,-5.0,-7.0,-11.0,-36.0,1650823414591819.0
19.0,11.0,2.0,1.0,-6.0,-1.0,10.0,16.0,1650823414611897.0
1.0,3.0,0.0,0.0,6.0,8.0,6.0,7.0,1650823414611897.0
-3.0,2.0,10.0,1.0,-12.0,-16.0,-10.0,-21.0,1650823414613891.0
-2.0,-3.0,-1.0,-3.0,1.0,6.0,7.0,44.0,1650823414613891.0
16.0,12.0,24.0,19.0,11.0,1.0,5.0,19.0,1650823414625748.0
-13.0,-30.0,-13.0,-14.0,-8.0,-3.0,-5.0,-9.0,1650823414625748.0
5.0,7.0,8.0,27.0,15.0,11.0,11.0,10.0,1650823414634727.0
0.0,3.0,0.0,-19.0,-2.0,-2.0,-1.0,-5.0,1650823414634727.0
-10.0,-3.0,-27.0,-8.0,-11.0,-7.0,-11.0,-18.0,1650823414648895.0
-3.0,-30.0,-11.0,-22.0,1.0,0.0,-8.0,-13.0,1650823414648895.0
-2.0,-4.0,-3.0,3.0,-6.0,0.0,4.0,10.0,1650823414650890.0
0.0,10.0,-1.0,2.0,2.0,0.0,3.0,4.0,1650823414650890.0
-3.0,-2.0,8.0,13.0,1.0,2.0,1.0,11.0,1650823414672396.0
7.0,16.0,12.0,-7.0,-7.0,-8.0,-4.0,-10.0,1650823414672396.0
0.0,7.0,34.0,20.0,16.0,7.0,1.0,0.0,1650823414673397.0
0.0,-10.0,-12.0,10.0,0.0,4.0,2.0,5.0,1650823414673397.0
14.0,-1.0,-11.0,-19.0,-2.0,1.0,4.0,14.0,1650823414685517.0
-28.0,-5.0,-7.0,4.0,-3.0,-3.0,5.0,-2.0,1650823414685517.0
14.0,-4.0,-9.0,-5.0,-5.0,-12.0,-22.0,-34.0,1650823414694496.0
0.0,9.0,18.0,1.0,5.0,2.0,7.0,4.0,1650823414694496.0
-14.0,2.0,8.0,14.0,8.0,4.0,11.0,-4.0,1650823414709484.0
8.0,-15.0,-46.0,-23.0,-7.0,-9.0,-23.0,-13.0,1650823414709484.0
4.0,3.0,6.0,-1.0,-9.0,-4.0,1.0,10.0,1650823414711450.0
-3.0,-4.0,-2.0,3.0,11.0,-2.0,-4.0,-4.0,1650823414711450.0
1.0,10.0,5.0,-5.0,-20.0,0.0,7.0,4.0,1650823414731610.0
4.0,6.0,2.0,-2.0,9.0,4.0,3.0,5.0,1650823414731610.0
-5.0,0.0,-19.0,-3.0,-1.0,0.0,1.0,-5.0,1650823414733552.0
3.0,8.0,21.0,19.0,6.0,2.0,0.0,1.0,1650823414733552.0
-14.0,-28.0,-16.0,-15.0,-1.0,-7.0,2.0,3.0,1650823414745576.0
0.0,-1.0,-10.0,-13.0,-6.0,2.0,0.0,-2.0,1650823414745576.0
1.0,15.0,2.0,-2.0,-1.0,-1.0,2.0,6.0,1650823414754510.0
0.0,-4.0,-3.0,-1.0,-9.0,0.0,-3.0,1.0,1650823414754510.0
-1.0,9.0,11.0,14.0,5.0,5.0,-6.0,0.0,1650823414769807.0
7.0,4.0,1.0,0.0,2.0,-1.0,3.0,-2.0,1650823414769807.0
-4.0,0.0,4.0,5.0,6.0,2.0,7.0,4.0,1650823414770808.0
-4.0,-6.0,-5.0,2.0,0.0,1.0,-1.0,-3.0,1650823414770808.0
-2.0,2.0,-3.0,-13.0,-8.0,-11.0,-12.0,-5.0,1650823414791800.0
9.0,-2.0,3.0,9.0,7.0,3.0,3.0,9.0,1650823414791800.0
-2.0,2.0,-2.0,0.0,7.0,4.0,2.0,2.0,1650823414793751.0
-3.0,-2.0,-1.0,-7.0,-16.0,-4.0,-7.0,-8.0,1650823414793751.0
18.0,5.0,12.0,11.0,6.0,2.0,-6.0,11.0,1650823414805877.0
-12.0,4.0,-18.0,-14.0,-2.0,-5.0,10.0,1.0,1650823414805877.0
-8.0,-18.0,-5.0,-17.0,-6.0,-5.0,-7.0,-7.0,1650823414814905.0
-2.0,1.0,-5.0,-3.0,-3.0,-3.0,-2.0,-5.0,1650823414814905.0
-1.0,4.0,10.0,8.0,10.0,9.0,9.0,8.0,1650823414828894.0
12.0,6.0,12.0,17.0,1.0,-1.0,-10.0,-14.0,1650823414828894.0
3.0,0.0,-2.0,-8.0,-9.0,-2.0,1.0,2.0,1650823414830864.0
-2.0,-9.0,1.0,3.0,0.0,1.0,0.0,3.0,1650823414830864.0
-7.0,-2.0,-14.0,-4.0,9.0,-1.0,0.0,-6.0,1650823414851868.0
6.0,6.0,8.0,-6.0,-14.0,-3.0,-3.0,-2.0,1650823414851868.0
-18.0,-8.0,-4.0,3.0,2.0,6.0,-1.0,-23.0,1650823414853827.0
2.0,0.0,-1.0,-2.0,3.0,6.0,-1.0,-2.0,1650823414853827.0
-3.0,6.0,10.0,8.0,5.0,-8.0,-9.0,2.0,1650823414874822.0
-7.0,-1.0,1.0,3.0,-7.0,1.0,4.0,-26.0,1650823414874822.0
15.0,2.0,-2.0,-5.0,-2.0,-7.0,-2.0,32.0,1650823414875799.0
-2.0,-1.0,0.0,12.0,15.0,4.0,7.0,-22.0,1650823414875799.0
-16.0,6.0,-5.0,-6.0,-5.0,9.0,0.0,-30.0,1650823414889829.0
-8.0,-17.0,-4.0,-18.0,-12.0,-10.0,-14.0,11.0,1650823414889829.0
-4.0,3.0,-10.0,-6.0,-8.0,-6.0,-3.0,-6.0,1650823414890764.0
7.0,5.0,-2.0,5.0,4.0,-3.0,1.0,10.0,1650823414890764.0
4.0,-2.0,-7.0,-16.0,-9.0,-4.0,0.0,6.0,1650823414911786.0
4.0,10.0,17.0,20.0,11.0,7.0,5.0,4.0,1650823414911786.0
1.0,4.0,5.0,5.0,5.0,5.0,4.0,8.0,1650823414913811.0
-4.0,9.0,10.0,-11.0,-1.0,-3.0,-8.0,1.0,1650823414913811.0
-2.0,-13.0,-33.0,-11.0,-4.0,-1.0,0.0,-3.0,1650823414934188.0
-1.0,2.0,2.0,-1.0,-6.0,-3.0,-2.0,7.0,1650823414934188.0
4.0,5.0,8.0,2.0,-1.0,0.0,-1.0,-1.0,1650823414936212.0
1.0,1.0,0.0,2.0,0.0,3.0,3.0,6.0,1650823414936212.0
0.0,0.0,10.0,6.0,3.0,-1.0,-3.0,-3.0,1650823414949166.0
2.0,2.0,-1.0,4.0,9.0,5.0,3.0,5.0,1650823414949166.0
0.0,-2.0,2.0,4.0,-4.0,3.0,0.0,1.0,1650823414951146.0
-1.0,-6.0,-7.0,-8.0,-6.0,-2.0,-7.0,-3.0,1650823414951146.0
0.0,0.0,2.0,6.0,5.0,2.0,1.0,4.0,1650823414972321.0
1.0,-3.0,0.0,-3.0,-3.0,-4.0,-4.0,0.0,1650823414972321.0
-2.0,-2.0,-1.0,4.0,-1.0,-5.0,-1.0,-3.0,1650823414973255.0
-3.0,-4.0,-2.0,-1.0,-4.0,-4.0,1.0,4.0,1650823414973255.0
0.0,3.0,2.0,2.0,0.0,-1.0,1.0,-1.0,1650823414994343.0
1.0,4.0,0.0,0.0,6.0,2.0,2.0,4.0,1650823414994343.0
-5.0,-13.0,-10.0,-8.0,-8.0,0.0,-3.0,-5.0,1650823414996339.0
-2.0,-1.0,-14.0,-13.0,-3.0,0.0,1.0,2.0,1650823414996339.0
1.0,1.0,6.0,7.0,2.0,3.0,-1.0,2.0,1650823415008306.0
-1.0,-5.0,1.0,-3.0,-3.0,0.0,4.0,0.0,1650823415008306.0
-1.0,1.0,-4.0,0.0,-3.0,-5.0,-2.0,2.0,1650823415015315.0
-1.0,-1.0,0.0,6.0,6.0,5.0,0.0,1.0,1650823415015315.0
0.0,-5.0,-1.0,-6.0,1.0,-1.0,-3.0,1.0,1650823415032270.0
1.0,1.0,3.0,10.0,-2.0,2.0,1.0,1.0,1650823415032270.0
2.0,1.0,11.0,3.0,4.0,2.0,0.0,2.0,1650823415033241.0
-2.0,-2.0,-5.0,-2.0,-10.0,-15.0,-5.0,-20.0,1650823415033241.0
-3.0,1.0,-4.0,-7.0,4.0,2.0,0.0,-7.0,1650823415054717.0
2.0,1.0,3.0,3.0,3.0,2.0,-1.0,7.0,1650823415054717.0
0.0,-3.0,-4.0,1.0,-2.0,-2.0,2.0,5.0,1650823415055692.0
-1.0,2.0,6.0,4.0,0.0,-1.0,0.0,5.0,1650823415055692.0
0.0,-1.0,0.0,2.0,-3.0,-6.0,0.0,1.0,1650823415068660.0
-1.0,-2.0,-6.0,-4.0,10.0,1.0,-3.0,-3.0,1650823415068660.0
2.0,5.0,8.0,1.0,-11.0,8.0,-1.0,0.0,1650823415075668.0
-1.0,2.0,-2.0,-8.0,5.0,-5.0,2.0,3.0,1650823415075668.0
5.0,-6.0,4.0,15.0,1.0,3.0,3.0,4.0,1650823415091626.0
0.0,8.0,8.0,2.0,6.0,1.0,2.0,2.0,1650823415091626.0
-1.0,-9.0,-10.0,-10.0,7.0,0.0,0.0,-3.0,1650823415093594.0
1.0,-1.0,-4.0,1.0,3.0,2.0,-2.0,3.0,1650823415093594.0
-3.0,-12.0,8.0,-5.0,-8.0,1.0,-1.0,-3.0,1650823415114564.0
2.0,26.0,33.0,18.0,-3.0,1.0,0.0,0.0,1650823415114564.0
-2.0,-15.0,-16.0,-5.0,-2.0,-2.0,-3.0,-3.0,1650823415115555.0
-1.0,-9.0,-33.0,-27.0,-7.0,-6.0,-5.0,-3.0,1650823415115555.0
-3.0,3.0,-1.0,2.0,-2.0,-2.0,-4.0,2.0,1650823415128499.0
5.0,10.0,-6.0,3.0,6.0,2.0,1.0,1.0,1650823415128499.0
-12.0,-36.0,-3.0,-10.0,-13.0,-8.0,-5.0,-10.0,1650823415143459.0
7.0,2.0,18.0,13.0,16.0,4.0,7.0,7.0,1650823415143459.0
3.0,10.0,-18.0,-13.0,-20.0,1.0,4.0,0.0,1650823415152436.0
-4.0,-14.0,-11.0,-4.0,4.0,-2.0,-6.0,-4.0,1650823415152436.0
1.0,15.0,6.0,6.0,10.0,0.0,-1.0,3.0,1650823415153455.0
3.0,3.0,2.0,3.0,-4.0,0.0,1.0,0.0,1650823415153455.0
4.0,2.0,3.0,2.0,4.0,-3.0,0.0,1.0,1650823415174753.0
-3.0,-8.0,-3.0,-2.0,-3.0,1.0,0.0,1.0,1650823415174753.0
2.0,8.0,-2.0,0.0,-2.0,0.0,-1.0,1.0,1650823415175665.0
-5.0,-4.0,1.0,-1.0,-2.0,2.0,0.0,0.0,1650823415175665.0
0.0,6.0,7.0,-2.0,-3.0,-2.0,-3.0,0.0,1650823415188629.0
2.0,-7.0,-13.0,-9.0,-3.0,-1.0,1.0,-1.0,1650823415188629.0
-9.0,11.0,5.0,7.0,4.0,2.0,1.0,0.0,1650823415195610.0
5.0,2.0,14.0,-2.0,-15.0,-5.0,-3.0,-1.0,1650823415195610.0
-1.0,1.0,-2.0,-1.0,17.0,3.0,2.0,1.0,1650823415211568.0
6.0,-15.0,-10.0,-2.0,-4.0,2.0,3.0,-1.0,1650823415211568.0
3.0,9.0,4.0,8.0,11.0,2.0,4.0,3.0,1650823415213497.0
-2.0,3.0,4.0,16.0,-2.0,-4.0,-2.0,1.0,1650823415213497.0
-5.0,-4.0,16.0,-9.0,-8.0,-6.0,-4.0,-6.0,1650823415234441.0
-3.0,3.0,-22.0,-17.0,-11.0,-7.0,-2.0,6.0,1650823415234441.0
5.0,-27.0,-28.0,-7.0,-2.0,0.0,-3.0,-24.0,1650823415236449.0
-13.0,0.0,-4.0,-2.0,-1.0,4.0,3.0,-9.0,1650823415236449.0
3.0,1.0,13.0,15.0,17.0,4.0,4.0,27.0,1650823415248420.0
2.0,9.0,-1.0,1.0,-12.0,-3.0,-1.0,-1.0,1650823415248420.0
2.0,8.0,9.0,2.0,-2.0,1.0,0.0,5.0,1650823415255385.0
-1.0,-7.0,-5.0,2.0,4.0,5.0,-3.0,-3.0,1650823415255385.0
12.0,7.0,-3.0,1.0,-1.0,-3.0,-1.0,-4.0,1650823415272423.0
-14.0,-22.0,0.0,-1.0,-2.0,-2.0,-1.0,-4.0,1650823415272423.0
3.0,15.0,14.0,1.0,-7.0,-2.0,3.0,4.0,1650823415273423.0
5.0,0.0,-2.0,1.0,4.0,2.0,0.0,0.0,1650823415273423.0
4.0,17.0,46.0,23.0,0.0,4.0,1.0,0.0,1650823415302326.0
-2.0,-23.0,-88.0,-36.0,-1.0,-2.0,-2.0,3.0,1650823415302326.0
-5.0,-17.0,-15.0,-45.0,-23.0,-13.0,-9.0,-16.0,1650823415303326.0
9.0,15.0,25.0,19.0,-6.0,3.0,3.0,7.0,1650823415303326.0
-8.0,-17.0,-47.0,-41.0,-8.0,-1.0,-5.0,-9.0,1650823415308342.0
6.0,26.0,75.0,57.0,13.0,0.0,6.0,3.0,1650823415308342.0
6.0,12.0,21.0,33.0,13.0,6.0,5.0,14.0,1650823415315321.0
-18.0,-35.0,-101.0,-102.0,-21.0,-14.0,-14.0,-32.0,1650823415315321.0
0.0,2.0,12.0,16.0,-3.0,1.0,2.0,5.0,1650823415332278.0
4.0,2.0,11.0,-2.0,-3.0,-1.0,1.0,25.0,1650823415332278.0
-7.0,13.0,15.0,19.0,13.0,1.0,-4.0,-19.0,1650823415333252.0
3.0,9.0,32.0,29.0,15.0,0.0,-6.0,-40.0,1650823415333252.0
-22.0,-5.0,-15.0,-7.0,-16.0,-1.0,4.0,-9.0,1650823415354423.0
12.0,-5.0,-8.0,-10.0,5.0,1.0,-1.0,-4.0,1650823415354423.0
-5.0,3.0,10.0,10.0,3.0,2.0,7.0,21.0,1650823415356352.0
1.0,0.0,6.0,6.0,-4.0,-3.0,-1.0,18.0,1650823415356352.0
0.0,-5.0,-15.0,-13.0,0.0,-3.0,-8.0,-28.0,1650823415368319.0
-5.0,10.0,15.0,16.0,12.0,1.0,4.0,-1.0,1650823415368319.0
15.0,-10.0,-10.0,-2.0,-6.0,0.0,0.0,5.0,1650823415377379.0
-11.0,-9.0,12.0,-6.0,-5.0,-1.0,0.0,4.0,1650823415377379.0
3.0,15.0,14.0,-5.0,-5.0,-5.0,-3.0,6.0,1650823415392365.0
-8.0,-20.0,-8.0,-10.0,-20.0,-7.0,-6.0,-4.0,1650823415392365.0
-2.0,8.0,11.0,6.0,8.0,10.0,1.0,-7.0,1650823415393335.0
10.0,3.0,-20.0,22.0,26.0,12.0,7.0,16.0,1650823415393335.0
0.0,-5.0,-10.0,-11.0,-5.0,0.0,3.0,5.0,1650823415422323.0
-6.0,-2.0,1.0,-9.0,-2.0,-3.0,-5.0,-12.0,1650823415422323.0
-7.0,-1.0,-8.0,-12.0,-11.0,-8.0,-2.0,-3.0,1650823415423255.0
4.0,3.0,17.0,13.0,-13.0,-8.0,4.0,15.0,1650823415423255.0
0.0,-5.0,-10.0,2.0,12.0,2.0,-12.0,-23.0,1650823415428241.0
-8.0,2.0,1.0,2.0,1.0,7.0,1.0,-6.0,1650823415428241.0
4.0,3.0,-1.0,5.0,2.0,0.0,1.0,2.0,1650823415437217.0
4.0,11.0,10.0,-3.0,1.0,3.0,1.0,9.0,1650823415437217.0
4.0,1.0,0.0,-3.0,-5.0,-2.0,5.0,8.0,1650823415452178.0
-12.0,-5.0,0.0,3.0,3.0,-1.0,-5.0,-10.0,1650823415452178.0
-5.0,4.0,-1.0,-5.0,-7.0,-6.0,-4.0,1.0,1650823415453182.0
-4.0,-3.0,5.0,7.0,0.0,1.0,1.0,1.0,1650823415453182.0
6.0,-7.0,-5.0,0.0,15.0,11.0,6.0,8.0,1650823415474118.0
-6.0,13.0,21.0,5.0,-17.0,-7.0,1.0,-5.0,1650823415474118.0
-22.0,-9.0,-8.0,-6.0,6.0,2.0,2.0,0.0,1650823415476114.0
14.0,-2.0,-14.0,-4.0,-7.0,-8.0,2.0,10.0,1650823415476114.0
-6.0,-1.0,6.0,7.0,-1.0,1.0,0.0,4.0,1650823415488147.0
7.0,-4.0,6.0,-6.0,4.0,4.0,-2.0,-3.0,1650823415488147.0
5.0,3.0,1.0,-7.0,-2.0,-2.0,-3.0,-3.0,1650823415497057.0
-4.0,2.0,9.0,8.0,-3.0,1.0,-1.0,3.0,1650823415497057.0
3.0,0.0,8.0,10.0,6.0,4.0,0.0,2.0,1650823415512088.0
1.0,-3.0,-20.0,-16.0,-5.0,-5.0,2.0,-4.0,1650823415512088.0
3.0,7.0,6.0,2.0,-1.0,-2.0,4.0,8.0,1650823415514012.0
3.0,-1.0,5.0,7.0,13.0,10.0,2.0,-1.0,1650823415514012.0
2.0,1.0,-1.0,5.0,-3.0,-4.0,0.0,3.0,1650823415533029.0
5.0,-1.0,1.0,-1.0,-4.0,-1.0,-3.0,-4.0,1650823415533029.0
3.0,-4.0,-7.0,-4.0,6.0,-3.0,-3.0,-1.0,1650823415541937.0
1.0,4.0,7.0,1.0,-12.0,2.0,-1.0,1.0,1650823415541937.0
-11.0,-2.0,4.0,4.0,-2.0,-8.0,2.0,-2.0,1650823415547948.0
-5.0,-7.0,-13.0,-9.0,1.0,-1.0,-5.0,-2.0,1650823415547948.0
6.0,3.0,-8.0,-1.0,-1.0,1.0,2.0,0.0,1650823415556897.0
-2.0,3.0,10.0,3.0,6.0,2.0,-1.0,-2.0,1650823415556897.0
-3.0,-9.0,-18.0,-11.0,-10.0,-7.0,-5.0,-2.0,1650823415571916.0
2.0,3.0,10.0,4.0,1.0,1.0,1.0,0.0,1650823415571916.0
0.0,1.0,5.0,7.0,-4.0,-7.0,0.0,-1.0,1650823415573852.0
-1.0,-1.0,2.0,-3.0,10.0,0.0,-4.0,-3.0,1650823415573852.0
-2.0,3.0,0.0,5.0,-12.0,-3.0,2.0,-2.0,1650823415594796.0
2.0,-1.0,-10.0,-10.0,3.0,-2.0,-2.0,1.0,1650823415594796.0
-8.0,-6.0,15.0,-4.0,9.0,2.0,-8.0,-8.0,1650823415595808.0
0.0,-1.0,5.0,4.0,-11.0,-5.0,2.0,-2.0,1650823415595808.0
2.0,2.0,7.0,13.0,12.0,7.0,2.0,2.0,1650823415607781.0
3.0,2.0,-2.0,8.0,4.0,2.0,0.0,1.0,1650823415607781.0
4.0,-4.0,-8.0,-7.0,0.0,0.0,-2.0,-9.0,1650823415616743.0
-18.0,-4.0,-2.0,-2.0,-12.0,-2.0,-2.0,-2.0,1650823415616743.0
4.0,-4.0,-13.0,-10.0,-2.0,-2.0,-5.0,-2.0,1650823415631725.0
3.0,3.0,3.0,1.0,1.0,2.0,0.0,0.0,1650823415631725.0
-2.0,1.0,2.0,6.0,4.0,-1.0,4.0,2.0,1650823415633700.0
-2.0,-5.0,-9.0,-8.0,0.0,0.0,-2.0,0.0,1650823415633700.0
8.0,2.0,-4.0,-4.0,-4.0,0.0,0.0,1.0,1650823415661637.0
17.0,3.0,0.0,-2.0,0.0,7.0,2.0,5.0,1650823415661637.0
-2.0,-4.0,-4.0,5.0,-4.0,-6.0,1.0,1.0,1650823415663613.0
-1.0,4.0,0.0,-1.0,2.0,0.0,2.0,0.0,1650823415663613.0
5.0,2.0,5.0,1.0,2.0,2.0,0.0,2.0,1650823415667602.0
-8.0,-9.0,-10.0,-6.0,2.0,-6.0,-5.0,-2.0,1650823415667602.0
3.0,7.0,1.0,2.0,-13.0,7.0,4.0,4.0,1650823415676605.0
-1.0,4.0,6.0,0.0,-2.0,1.0,0.0,-1.0,1650823415676605.0
-1.0,-8.0,-10.0,-6.0,1.0,-6.0,-2.0,-1.0,1650823415699543.0
-2.0,7.0,12.0,10.0,2.0,3.0,1.0,1.0,1650823415699543.0
-3.0,-3.0,-7.0,-11.0,-8.0,-6.0,-5.0,-1.0,1650823415700514.0
-4.0,-9.0,-16.0,-7.0,6.0,-3.0,-3.0,-3.0,1650823415700514.0
0.0,2.0,6.0,4.0,-6.0,3.0,0.0,-1.0,1650823415714496.0
-3.0,2.0,1.0,-2.0,7.0,0.0,3.0,-1.0,1650823415714496.0
-2.0,-3.0,-4.0,-2.0,-6.0,-1.0,-3.0,1.0,1650823415715474.0
9.0,3.0,6.0,1.0,4.0,14.0,2.0,1.0,1650823415715474.0
11.0,3.0,1.0,0.0,3.0,-12.0,-2.0,3.0,1650823415728467.0
-30.0,-10.0,-1.0,0.0,-10.0,-6.0,-5.0,-8.0,1650823415728467.0
5.0,-2.0,-11.0,-11.0,-5.0,-6.0,-4.0,-3.0,1650823415737487.0
-5.0,-2.0,-2.0,-5.0,0.0,-3.0,-3.0,-1.0,1650823415737487.0
-2.0,1.0,3.0,4.0,2.0,7.0,2.0,-1.0,1650823415752384.0
12.0,6.0,4.0,8.0,2.0,0.0,6.0,6.0,1650823415752384.0
-1.0,-2.0,6.0,-1.0,2.0,4.0,-1.0,2.0,1650823415753373.0
-1.0,-5.0,-13.0,-6.0,-3.0,-8.0,-7.0,-4.0,1650823415753373.0
-6.0,-2.0,-6.0,-9.0,-6.0,4.0,-2.0,-3.0,1650823415774467.0
3.0,0.0,0.0,0.0,3.0,-6.0,3.0,4.0,1650823415774467.0
1.0,3.0,4.0,9.0,-2.0,-1.0,-1.0,1.0,1650823415776474.0
4.0,-3.0,-19.0,-12.0,-2.0,-5.0,4.0,1.0,1650823415776474.0
-5.0,0.0,5.0,3.0,4.0,-1.0,0.0,-3.0,1650823415796747.0
5.0,6.0,18.0,13.0,-5.0,1.0,-1.0,0.0,1650823415796747.0
2.0,-6.0,-37.0,-20.0,5.0,3.0,2.0,1.0,1650823415798740.0
2.0,-3.0,3.0,1.0,0.0,-1.0,-1.0,-1.0,1650823415798740.0
-10.0,-8.0,0.0,-7.0,-9.0,-1.0,-3.0,-5.0,1650823415810736.0
-8.0,-2.0,-10.0,-7.0,-2.0,-5.0,-3.0,-1.0,1650823415810736.0
-1.0,3.0,22.0,14.0,1.0,3.0,0.0,-1.0,1650823415819694.0
2.0,6.0,15.0,9.0,-3.0,0.0,1.0,-1.0,1650823415819694.0
-7.0,-2.0,-14.0,-10.0,2.0,0.0,1.0,0.0,1650823415834644.0
2.0,3.0,4.0,-1.0,-4.0,3.0,1.0,-1.0,1650823415834644.0
-3.0,-1.0,4.0,7.0,9.0,-1.0,-2.0,-1.0,1650823415835643.0
-3.0,-1.0,5.0,-6.0,-7.0,1.0,1.0,-1.0,1650823415835643.0
-7.0,-1.0,-5.0,-2.0,-1.0,-4.0,0.0,-3.0,1650823415857582.0
-11.0,-4.0,-4.0,-7.0,-3.0,-2.0,0.0,-5.0,1650823415857582.0
-3.0,0.0,-4.0,-1.0,1.0,2.0,2.0,0.0,1650823415858591.0
-5.0,-6.0,-3.0,2.0,4.0,2.0,-1.0,-1.0,1650823415858591.0
3.0,0.0,-1.0,-2.0,1.0,9.0,1.0,1.0,1650823415871612.0
10.0,0.0,-3.0,3.0,-4.0,-9.0,0.0,2.0,1650823415871612.0
0.0,-2.0,-3.0,-2.0,-5.0,-2.0,-1.0,-2.0,1650823415873541.0
-1.0,2.0,10.0,3.0,0.0,-3.0,0.0,1.0,1650823415873541.0
1.0,-2.0,5.0,-3.0,-8.0,-5.0,-4.0,-1.0,1650823415894484.0
3.0,3.0,0.0,-3.0,0.0,5.0,-1.0,1.0,1650823415894484.0
-1.0,-7.0,-1.0,1.0,4.0,3.0,-1.0,1.0,1650823415896483.0
-1.0,3.0,0.0,6.0,2.0,-1.0,0.0,2.0,1650823415896483.0
2.0,-2.0,-1.0,-3.0,5.0,-3.0,-1.0,-1.0,1650823415916452.0
2.0,-1.0,-7.0,-5.0,-5.0,-1.0,0.0,-1.0,1650823415916452.0
-10.0,1.0,0.0,-3.0,-5.0,-9.0,-5.0,-3.0,1650823415918421.0
1.0,-1.0,-3.0,2.0,3.0,-1.0,1.0,-1.0,1650823415918421.0
0.0,1.0,5.0,8.0,-2.0,-2.0,0.0,-3.0,1650823415931461.0
4.0,2.0,1.0,-2.0,10.0,11.0,0.0,-1.0,1650823415931461.0
7.0,-5.0,-3.0,1.0,1.0,2.0,1.0,2.0,1650823415939365.0
-2.0,0.0,9.0,-4.0,-5.0,-6.0,-5.0,-3.0,1650823415939365.0
1.0,-1.0,-12.0,1.0,-4.0,-6.0,2.0,5.0,1650823415954473.0
1.0,-4.0,-3.0,10.0,1.0,-1.0,1.0,1.0,1650823415954473.0
-5.0,-5.0,-9.0,-28.0,-8.0,-3.0,-4.0,-4.0,1650823415956471.0
0.0,0.0,-1.0,-2.0,-9.0,0.0,-2.0,-1.0,1650823415956471.0
15.0,5.0,10.0,11.0,12.0,6.0,5.0,3.0,1650823415977500.0
4.0,-1.0,2.0,6.0,6.0,2.0,-1.0,0.0,1650823415977500.0
-3.0,0.0,8.0,10.0,7.0,2.0,2.0,1.0,1650823415978498.0
-2.0,-2.0,-5.0,5.0,7.0,-2.0,-1.0,-2.0,1650823415978498.0
-3.0,-7.0,-14.0,-12.0,-19.0,1.0,-7.0,-4.0,1650823415991641.0
4.0,-1.0,-4.0,1.0,7.0,-2.0,-2.0,0.0,1650823415991641.0
5.0,12.0,22.0,13.0,-11.0,-12.0,3.0,3.0,1650823415997652.0
0.0,2.0,-4.0,-2.0,2.0,-1.0,3.0,3.0,1650823415997652.0
-1.0,2.0,3.0,1.0,10.0,0.0,5.0,11.0,1650823416014610.0
-4.0,-3.0,-2.0,-5.0,-5.0,3.0,-1.0,-1.0,1650823416014610.0
-5.0,3.0,1.0,1.0,-3.0,5.0,-4.0,-9.0,1650823416015577.0
2.0,-12.0,-11.0,-4.0,2.0,-3.0,-1.0,-2.0,1650823416015577.0
-8.0,3.0,5.0,10.0,6.0,4.0,-1.0,0.0,1650823416036531.0
-1.0,-3.0,-5.0,-9.0,-11.0,-3.0,-2.0,0.0,1650823416036531.0
1.0,-1.0,0.0,-7.0,-10.0,-5.0,2.0,2.0,1650823416038516.0
4.0,4.0,14.0,2.0,0.0,11.0,2.0,3.0,1650823416038516.0
10.0,2.0,0.0,-2.0,4.0,-10.0,-4.0,-4.0,1650823416051501.0
-3.0,0.0,0.0,3.0,-5.0,-7.0,-2.0,-3.0,1650823416051501.0
4.0,2.0,-4.0,11.0,0.0,0.0,3.0,2.0,1650823416058462.0
-2.0,7.0,2.0,-6.0,1.0,4.0,-4.0,-1.0,1650823416058462.0
-3.0,-6.0,1.0,-3.0,-6.0,-3.0,-2.0,-1.0,1650823416074419.0
3.0,6.0,2.0,-1.0,0.0,3.0,-1.0,-1.0,1650823416074419.0
-12.0,-13.0,-8.0,2.0,8.0,6.0,-1.0,-1.0,1650823416076414.0
1.0,1.0,-5.0,0.0,-4.0,-6.0,-1.0,0.0,1650823416076414.0
-5.0,-6.0,4.0,-9.0,-3.0,-1.0,-3.0,-4.0,1650823416096810.0
-1.0,2.0,6.0,2.0,3.0,0.0,0.0,0.0,1650823416096810.0
4.0,5.0,-3.0,1.0,8.0,6.0,2.0,0.0,1650823416098766.0
0.0,-5.0,-3.0,-1.0,-7.0,-7.0,-1.0,-2.0,1650823416098766.0
-6.0,2.0,3.0,2.0,1.0,1.0,-1.0,-3.0,1650823416111720.0
-5.0,8.0,3.0,14.0,6.0,2.0,1.0,1.0,1650823416111720.0
4.0,-8.0,-11.0,-19.0,-7.0,-3.0,-2.0,-1.0,1650823416117716.0
-7.0,-11.0,-16.0,-17.0,-5.0,-7.0,-5.0,-5.0,1650823416117716.0
1.0,0.0,1.0,7.0,3.0,2.0,2.0,0.0,1650823416134759.0
5.0,2.0,5.0,-2.0,-7.0,3.0,4.0,11.0,1650823416134759.0
2.0,12.0,10.0,12.0,11.0,12.0,2.0,4.0,1650823416135720.0
2.0,-4.0,-2.0,-4.0,-7.0,-10.0,-3.0,-4.0,1650823416135720.0
-17.0,-2.0,1.0,5.0,5.0,4.0,1.0,-3.0,1650823416156731.0
0.0,1.0,-6.0,-3.0,7.0,4.0,0.0,-4.0,1650823416156731.0
3.0,-8.0,-5.0,-3.0,-4.0,-2.0,-1.0,-1.0,1650823416158658.0
-6.0,-5.0,-8.0,-12.0,-7.0,3.0,1.0,-3.0,1650823416158658.0
9.0,3.0,2.0,-2.0,-8.0,-12.0,-13.0,12.0,1650823416171711.0
-1.0,1.0,0.0,4.0,-5.0,0.0,11.0,3.0,1650823416171711.0
4.0,2.0,5.0,4.0,2.0,0.0,-2.0,-3.0,1650823416177670.0
4.0,3.0,14.0,5.0,7.0,5.0,-1.0,-2.0,1650823416177670.0
-3.0,0.0,0.0,-7.0,-8.0,-13.0,-2.0,-13.0,1650823416194561.0
-1.0,-14.0,-12.0,1.0,-4.0,2.0,-4.0,8.0,1650823416194561.0
0.0,11.0,9.0,-6.0,-5.0,-4.0,-3.0,-4.0,1650823416195559.0
-1.0,2.0,3.0,9.0,20.0,10.0,3.0,2.0,1650823416195559.0
3.0,3.0,0.0,4.0,-7.0,9.0,5.0,21.0,1650823416216503.0
2.0,-2.0,-7.0,-17.0,-9.0,-17.0,-10.0,-18.0,1650823416216503.0
-7.0,1.0,5.0,8.0,9.0,9.0,3.0,1.0,1650823416218498.0
-2.0,0.0,-6.0,5.0,10.0,4.0,1.0,-3.0,1650823416218498.0
-4.0,-7.0,-2.0,-5.0,-5.0,1.0,2.0,-2.0,1650823416231511.0
0.0,-4.0,-1.0,-12.0,-4.0,-2.0,-1.0,0.0,1650823416231511.0
-3.0,1.0,-1.0,7.0,-4.0,-4.0,-5.0,-6.0,1650823416238512.0
0.0,2.0,-5.0,-1.0,-3.0,-2.0,2.0,6.0,1650823416238512.0
1.0,-2.0,3.0,-4.0,2.0,-4.0,-1.0,-4.0,1650823416255420.0
-2.0,9.0,9.0,8.0,0.0,0.0,2.0,4.0,1650823416255420.0
0.0,1.0,1.0,3.0,5.0,1.0,-5.0,-12.0,1650823416256421.0
0.0,-6.0,11.0,3.0,-7.0,-4.0,0.0,1.0,1650823416256421.0
-6.0,-6.0,-16.0,-13.0,-4.0,3.0,1.0,-3.0,1650823416276582.0
2.0,-1.0,12.0,8.0,2.0,1.0,-2.0,0.0,1650823416276582.0
1.0,3.0,-7.0,-6.0,24.0,8.0,5.0,3.0,1650823416278510.0
-4.0,2.0,12.0,6.0,-19.0,-11.0,3.0,-2.0,1650823416278510.0
-3.0,-2.0,4.0,2.0,3.0,-4.0,-6.0,-7.0,1650823416290545.0
1.0,4.0,0.0,-2.0,-5.0,0.0,-1.0,0.0,1650823416290545.0
-9.0,-3.0,-3.0,6.0,-6.0,-4.0,0.0,4.0,1650823416299454.0
10.0,2.0,-10.0,-1.0,8.0,8.0,0.0,12.0,1650823416299454.0
-4.0,3.0,2.0,1.0,8.0,5.0,1.0,-11.0,1650823416314531.0
-7.0,-5.0,-8.0,5.0,8.0,16.0,0.0,7.0,1650823416314531.0
2.0,6.0,3.0,-9.0,-17.0,-23.0,0.0,2.0,1650823416315559.0
-1.0,4.0,0.0,-2.0,-5.0,-1.0,-3.0,2.0,1650823416315559.0
-1.0,-2.0,-5.0,2.0,2.0,-1.0,-2.0,-1.0,1650823416336476.0
-2.0,-12.0,-8.0,-2.0,2.0,2.0,-2.0,-1.0,1650823416336476.0
3.0,-5.0,-4.0,0.0,-6.0,3.0,1.0,5.0,1650823416338471.0
-3.0,5.0,-4.0,-18.0,-4.0,-6.0,-3.0,-6.0,1650823416338471.0
2.0,-6.0,-9.0,6.0,-3.0,1.0,1.0,0.0,1650823416350466.0
0.0,7.0,-1.0,-5.0,5.0,3.0,-1.0,-7.0,1650823416350466.0
-1.0,2.0,8.0,0.0,1.0,1.0,4.0,15.0,1650823416359424.0
-7.0,-7.0,-3.0,3.0,-6.0,-7.0,-10.0,-19.0,1650823416359424.0
1.0,0.0,-3.0,-1.0,3.0,2.0,0.0,1.0,1650823416374555.0
-1.0,-4.0,-2.0,-6.0,-7.0,-8.0,-2.0,1.0,1650823416374555.0
4.0,1.0,-6.0,0.0,-1.0,3.0,3.0,4.0,1650823416375552.0
4.0,5.0,7.0,13.0,16.0,8.0,0.0,4.0,1650823416375552.0
-13.0,-11.0,-2.0,-7.0,-11.0,-3.0,1.0,0.0,1650823416396524.0
-1.0,0.0,-3.0,-5.0,-3.0,-5.0,-6.0,-12.0,1650823416396524.0
5.0,1.0,13.0,8.0,5.0,2.0,2.0,-3.0,1650823416398491.0
1.0,-4.0,-21.0,-5.0,-2.0,0.0,3.0,1.0,1650823416398491.0
6.0,7.0,1.0,-9.0,-1.0,0.0,0.0,6.0,1650823416410458.0
-7.0,-5.0,1.0,-3.0,-6.0,-5.0,-1.0,-7.0,1650823416410458.0
-1.0,-2.0,-2.0,-3.0,5.0,1.0,-4.0,1.0,1650823416419436.0
2.0,4.0,17.0,20.0,7.0,2.0,3.0,4.0,1650823416419436.0
-2.0,-8.0,-31.0,-17.0,-18.0,-10.0,-2.0,-6.0,1650823416434422.0
-3.0,-2.0,-1.0,-3.0,3.0,0.0,-1.0,-3.0,1650823416434422.0
-2.0,-3.0,-9.0,-10.0,-4.0,9.0,-2.0,-4.0,1650823416436394.0
-2.0,2.0,10.0,2.0,-2.0,-13.0,-1.0,-2.0,1650823416436394.0
2.0,8.0,10.0,9.0,5.0,9.0,0.0,2.0,1650823416457372.0
1.0,-1.0,-2.0,-1.0,-2.0,-3.0,3.0,9.0,1650823416457372.0
-2.0,-9.0,-9.0,-6.0,1.0,9.0,2.0,10.0,1650823416458331.0
-3.0,-2.0,0.0,-1.0,-7.0,-8.0,-16.0,-56.0,1650823416458331.0
4.0,4.0,4.0,5.0,7.0,2.0,-4.0,-7.0,1650823416470300.0
-3.0,2.0,-3.0,1.0,-2.0,1.0,6.0,-2.0,1650823416470300.0
3.0,0.0,3.0,-1.0,-4.0,1.0,1.0,3.0,1650823416479296.0
-1.0,-1.0,0.0,-1.0,-2.0,2.0,6.0,18.0,1650823416479296.0
4.0,2.0,17.0,10.0,1.0,-1.0,-3.0,4.0,1650823416494388.0
-3.0,-7.0,-21.0,-15.0,4.0,3.0,-2.0,-12.0,1650823416494388.0
-4.0,-4.0,-13.0,-13.0,8.0,-11.0,-2.0,-9.0,1650823416496413.0
0.0,-6.0,-1.0,2.0,-17.0,3.0,2.0,4.0,1650823416496413.0
5.0,12.0,24.0,10.0,16.0,3.0,6.0,7.0,1650823416517330.0
0.0,-2.0,-3.0,2.0,-3.0,-5.0,0.0,16.0,1650823416517330.0
-5.0,-6.0,-8.0,-6.0,-6.0,-2.0,-7.0,-15.0,1650823416518338.0
0.0,-5.0,-1.0,-8.0,-2.0,-5.0,0.0,5.0,1650823416518338.0
-1.0,0.0,-6.0,-4.0,-1.0,3.0,1.0,2.0,1650823416531319.0
2.0,5.0,13.0,8.0,1.0,-2.0,-1.0,-4.0,1650823416531319.0
0.0,0.0,2.0,3.0,-10.0,-9.0,-2.0,2.0,1650823416539317.0
2.0,2.0,4.0,8.0,11.0,12.0,10.0,14.0,1650823416539317.0
-3.0,-6.0,-8.0,-9.0,0.0,-4.0,-11.0,-9.0,1650823416554723.0
18.0,3.0,5.0,1.0,3.0,11.0,-5.0,6.0,1650823416554723.0
-10.0,-2.0,2.0,7.0,-1.0,-6.0,6.0,3.0,1650823416555683.0
0.0,-1.0,-2.0,-2.0,-4.0,-5.0,4.0,3.0,1650823416555683.0
-2.0,-1.0,-5.0,-5.0,12.0,10.0,-6.0,-2.0,1650823416576630.0
0.0,-5.0,0.0,-2.0,-27.0,-11.0,8.0,-5.0,1650823416576630.0
1.0,-2.0,-4.0,0.0,1.0,3.0,-3.0,6.0,1650823416578625.0
-2.0,3.0,2.0,1.0,6.0,3.0,6.0,8.0,1650823416578625.0
1.0,-3.0,2.0,7.0,-8.0,-12.0,0.0,-3.0,1650823416590660.0
-2.0,6.0,15.0,7.0,27.0,9.0,-3.0,-5.0,1650823416590660.0
-1.0,-9.0,-11.0,1.0,-11.0,-3.0,-1.0,-3.0,1650823416599574.0
-5.0,-8.0,-13.0,-20.0,-7.0,0.0,-10.0,-1.0,1650823416599574.0
3.0,4.0,7.0,2.0,-4.0,2.0,2.0,-5.0,1650823416614556.0
-7.0,-11.0,-13.0,3.0,2.0,-4.0,1.0,6.0,1650823416614556.0
4.0,10.0,13.0,5.0,7.0,5.0,4.0,-6.0,1650823416615526.0
4.0,0.0,-5.0,-1.0,-1.0,-1.0,-6.0,18.0,1650823416615526.0
-5.0,-9.0,-22.0,-14.0,-11.0,-2.0,-2.0,-13.0,1650823416637113.0
-6.0,2.0,7.0,-2.0,-5.0,-3.0,-4.0,-5.0,1650823416637113.0
2.0,2.0,-4.0,1.0,1.0,1.0,3.0,1.0,1650823416638109.0
1.0,3.0,2.0,-1.0,3.0,3.0,4.0,1.0,1650823416638109.0
2.0,6.0,16.0,12.0,2.0,4.0,-2.0,-7.0,1650823416650105.0
-2.0,-3.0,-1.0,6.0,1.0,-5.0,-5.0,-12.0,1650823416650105.0
-3.0,-9.0,-24.0,-10.0,-15.0,-12.0,-19.0,-15.0,1650823416659083.0
-3.0,3.0,1.0,-9.0,7.0,2.0,10.0,3.0,1650823416659083.0
-2.0,3.0,5.0,7.0,-8.0,0.0,16.0,11.0,1650823416674148.0
0.0,4.0,8.0,3.0,10.0,9.0,-10.0,-1.0,1650823416674148.0
3.0,7.0,28.0,15.0,13.0,4.0,1.0,-3.0,1650823416676145.0
-6.0,-6.0,-10.0,15.0,-9.0,-9.0,0.0,5.0,1650823416676145.0
-6.0,-7.0,-15.0,-19.0,-2.0,-6.0,-2.0,1.0,1650823416697154.0
-3.0,-1.0,-11.0,-26.0,-5.0,-5.0,-4.0,4.0,1650823416697154.0
-1.0,-1.0,1.0,2.0,-6.0,7.0,3.0,6.0,1650823416698086.0
1.0,3.0,11.0,0.0,4.0,5.0,-3.0,3.0,1650823416698086.0
4.0,8.0,18.0,17.0,10.0,1.0,-1.0,-2.0,1650823416711051.0
-6.0,-9.0,-6.0,-8.0,-11.0,-4.0,0.0,-3.0,1650823416711051.0
-1.0,-5.0,-24.0,-27.0,-5.0,-10.0,-2.0,2.0,1650823416719030.0
-3.0,3.0,6.0,1.0,5.0,3.0,-3.0,-16.0,1650823416719030.0
0.0,-5.0,-15.0,5.0,-8.0,-5.0,3.0,5.0,1650823416742035.0
4.0,9.0,39.0,17.0,9.0,4.0,4.0,6.0,1650823416742035.0
10.0,-10.0,-29.0,-24.0,-5.0,-5.0,13.0,-2.0,1650823416743971.0
-7.0,2.0,5.0,9.0,-19.0,-4.0,-18.0,-10.0,1650823416743971.0
1.0,-1.0,-3.0,-12.0,8.0,11.0,18.0,43.0,1650823416756989.0
3.0,1.0,1.0,17.0,2.0,-6.0,-13.0,-41.0,1650823416756989.0
-4.0,5.0,14.0,8.0,6.0,4.0,-18.0,-21.0,1650823416758923.0
-4.0,-6.0,-10.0,-10.0,-2.0,-6.0,-1.0,-13.0,1650823416758923.0
13.0,-2.0,-7.0,-4.0,-3.0,-2.0,5.0,34.0,1650823416779806.0
-10.0,0.0,-5.0,0.0,-6.0,1.0,9.0,0.0,1650823416779806.0
-5.0,2.0,7.0,13.0,7.0,0.0,-4.0,5.0,1650823416780814.0
1.0,-5.0,3.0,-3.0,3.0,8.0,-5.0,-22.0,1650823416780814.0
3.0,-7.0,-2.0,6.0,1.0,-5.0,-5.0,14.0,1650823416794867.0
1.0,13.0,11.0,22.0,8.0,3.0,6.0,9.0,1650823416794867.0
13.0,-8.0,-23.0,-47.0,-15.0,-7.0,1.0,19.0,1650823416795865.0
-14.0,0.0,-5.0,-4.0,0.0,3.0,2.0,3.0,1650823416795865.0
-6.0,2.0,-11.0,-12.0,-4.0,-7.0,-6.0,-25.0,1650823416816875.0
7.0,8.0,9.0,2.0,2.0,1.0,4.0,17.0,1650823416816875.0
-1.0,7.0,21.0,24.0,8.0,5.0,2.0,7.0,1650823416818834.0
5.0,0.0,-8.0,2.0,4.0,9.0,15.0,14.0,1650823416818834.0
18.0,-7.0,-1.0,7.0,-2.0,-4.0,-17.0,1.0,1650823416839865.0
-13.0,-4.0,-24.0,-29.0,-10.0,-6.0,11.0,-5.0,1650823416839865.0
-3.0,15.0,3.0,9.0,6.0,-7.0,-11.0,8.0,1650823416840861.0
7.0,-34.0,-6.0,-1.0,-6.0,-2.0,5.0,21.0,1650823416840861.0
-2.0,31.0,50.0,32.0,17.0,23.0,43.0,-13.0,1650823416854838.0
-43.0,-32.0,-42.0,-1.0,-13.0,-15.0,-49.0,-3.0,1650823416854838.0
22.0,6.0,-15.0,-38.0,-9.0,-6.0,0.0,10.0,1650823416855821.0
1.0,11.0,6.0,0.0,6.0,-4.0,-9.0,-32.0,1650823416855821.0
-7.0,-6.0,-2.0,0.0,-7.0,0.0,-8.0,-10.0,1650823416877185.0
16.0,8.0,11.0,6.0,11.0,9.0,22.0,16.0,1650823416877185.0
-16.0,-8.0,12.0,13.0,1.0,6.0,9.0,0.0,1650823416878115.0
2.0,-3.0,-9.0,-11.0,-2.0,-5.0,-13.0,-2.0,1650823416878115.0
-13.0,-4.0,-4.0,4.0,-2.0,1.0,10.0,8.0,1650823416899187.0
16.0,2.0,-27.0,-35.0,-14.0,-5.0,-6.0,-17.0,1650823416899187.0
-6.0,2.0,22.0,34.0,5.0,6.0,0.0,-8.0,1650823416901174.0
7.0,4.0,6.0,2.0,2.0,-1.0,6.0,18.0,1650823416901174.0
-1.0,-5.0,-34.0,-29.0,-2.0,-4.0,-10.0,-12.0,1650823416914144.0
14.0,16.0,7.0,12.0,3.0,10.0,8.0,15.0,1650823416914144.0
-34.0,-40.0,-16.0,-14.0,-6.0,-7.0,5.0,-9.0,1650823416920110.0
7.0,12.0,23.0,13.0,-5.0,-12.0,7.0,20.0,1650823416920110.0
-12.0,15.0,3.0,4.0,1.0,-5.0,-27.0,-33.0,1650823416937068.0
-3.0,-9.0,-14.0,-17.0,-7.0,-10.0,-10.0,10.0,1650823416937068.0
14.0,-2.0,9.0,18.0,6.0,12.0,21.0,7.0,1650823416938055.0
3.0,9.0,0.0,-13.0,13.0,19.0,25.0,18.0,1650823416938055.0
-10.0,-27.0,-32.0,-30.0,-22.0,-20.0,-35.0,-25.0,1650823416959003.0
2.0,11.0,22.0,18.0,6.0,-1.0,11.0,0.0,1650823416959003.0
-9.0,16.0,15.0,10.0,2.0,1.0,1.0,-7.0,1650823416966978.0
10.0,-8.0,-6.0,-12.0,-6.0,-5.0,2.0,30.0,1650823416966978.0
3.0,-5.0,17.0,12.0,8.0,4.0,-9.0,-32.0,1650823416974026.0
1.0,-12.0,-19.0,-21.0,0.0,14.0,-7.0,-7.0,1650823416974026.0
-2.0,18.0,4.0,1.0,-10.0,-28.0,-3.0,-3.0,1650823416980940.0
0.0,-27.0,8.0,27.0,-2.0,1.0,-10.0,2.0,1650823416980940.0
-13.0,3.0,-29.0,-27.0,-1.0,6.0,15.0,2.0,1650823416995927.0
13.0,10.0,28.0,24.0,4.0,-5.0,-17.0,15.0,1650823416995927.0
-7.0,4.0,-19.0,-16.0,0.0,1.0,-9.0,-42.0,1650823417004877.0
-13.0,-25.0,-21.0,-9.0,-7.0,-5.0,-7.0,1.0,1650823417004877.0
14.0,0.0,2.0,1.0,-8.0,-4.0,14.0,26.0,1650823417019837.0
6.0,13.0,31.0,21.0,16.0,9.0,-5.0,-51.0,1650823417019837.0
4.0,4.0,-39.0,-42.0,-18.0,-4.0,-4.0,22.0,1650823417020840.0
-13.0,-4.0,6.0,14.0,-3.0,0.0,-4.0,-24.0,1650823417020840.0
-4.0,-8.0,-4.0,3.0,-2.0,-3.0,-10.0,-17.0,1650823417033871.0
10.0,-5.0,2.0,2.0,1.0,-5.0,7.0,44.0,1650823417033871.0
-15.0,13.0,26.0,15.0,7.0,11.0,2.0,-10.0,1650823417040848.0
-12.0,-19.0,-45.0,-16.0,-7.0,4.0,16.0,-30.0,1650823417040848.0
-3.0,2.0,-4.0,-9.0,8.0,-2.0,-35.0,18.0,1650823417056805.0
17.0,8.0,2.0,0.0,-5.0,-6.0,5.0,18.0,1650823417056805.0
4.0,-1.0,26.0,30.0,13.0,6.0,6.0,-2.0,1650823417058756.0
10.0,20.0,4.0,-3.0,-3.0,-5.0,-12.0,18.0,1650823417058756.0
5.0,9.0,7.0,-9.0,-4.0,4.0,29.0,10.0,1650823417086993.0
-9.0,-49.0,-22.0,1.0,1.0,-2.0,2.0,0.0,1650823417086993.0
7.0,24.0,17.0,6.0,-2.0,1.0,-2.0,12.0,1650823417088994.0
-7.0,9.0,26.0,15.0,21.0,9.0,12.0,2.0,1650823417088994.0
-1.0,12.0,-2.0,15.0,-5.0,-7.0,-8.0,-10.0,1650823417092978.0
-17.0,-21.0,-21.0,-37.0,-15.0,-8.0,-2.0,-13.0,1650823417092978.0
15.0,-2.0,-10.0,-22.0,-5.0,-1.0,0.0,7.0,1650823417101954.0
2.0,16.0,13.0,4.0,-1.0,-3.0,-8.0,-11.0,1650823417101954.0
1.0,14.0,22.0,16.0,11.0,5.0,9.0,7.0,1650823417116981.0
7.0,-12.0,11.0,16.0,-6.0,6.0,12.0,7.0,1650823417116981.0
-9.0,-28.0,-17.0,9.0,-4.0,-5.0,-15.0,10.0,1650823417118936.0
2.0,21.0,-2.0,-17.0,-10.0,-7.0,-17.0,-36.0,1650823417118936.0
2.0,-14.0,9.0,5.0,5.0,-2.0,8.0,7.0,1650823417139832.0
11.0,23.0,13.0,17.0,13.0,13.0,29.0,-11.0,1650823417139832.0
-16.0,-17.0,-23.0,-7.0,-4.0,-6.0,-25.0,2.0,1650823417140844.0
5.0,2.0,-19.0,-25.0,-7.0,-3.0,13.0,2.0,1650823417140844.0
-7.0,-3.0,-17.0,-23.0,-5.0,-2.0,-5.0,-3.0,1650823417153797.0
3.0,-42.0,-27.0,-18.0,-7.0,-5.0,-11.0,-5.0,1650823417153797.0
13.0,28.0,51.0,29.0,11.0,11.0,12.0,5.0,1650823417160808.0
-3.0,-10.0,-24.0,8.0,-3.0,-5.0,0.0,16.0,1650823417160808.0
-7.0,4.0,1.0,-10.0,-7.0,-3.0,-8.0,-43.0,1650823417176800.0
-8.0,22.0,-5.0,-2.0,14.0,6.0,2.0,6.0,1650823417176800.0
0.0,-1.0,20.0,6.0,-17.0,-10.0,-15.0,-38.0,1650823417178760.0
-2.0,-16.0,6.0,10.0,6.0,11.0,6.0,20.0,1650823417178760.0
9.0,-10.0,4.0,13.0,3.0,-6.0,-11.0,8.0,1650823417198704.0
-16.0,10.0,7.0,2.0,-5.0,1.0,-7.0,-8.0,1650823417198704.0
8.0,-13.0,-33.0,-32.0,3.0,-6.0,-4.0,18.0,1650823417206688.0
-2.0,21.0,14.0,5.0,4.0,4.0,-8.0,-56.0,1650823417206688.0
4.0,-3.0,7.0,20.0,4.0,2.0,18.0,37.0,1650823417213636.0
-11.0,-2.0,-21.0,-26.0,-8.0,-8.0,-4.0,-19.0,1650823417213636.0
-1.0,-2.0,16.0,11.0,2.0,5.0,4.0,31.0,1650823417220618.0
