EMG_s0,EMG_s1,EMG_s2,EMG_s3,EMG_s4,EMG_s5,EMG_s6,EMG_s7,timestamp
1.0,-15.0,-20.0,2.0,-10.0,-23.0,-12.0,7.0,1650846949341694.0
3.0,-11.0,-7.0,5.0,0.0,-8.0,-6.0,5.0,1650846949341694.0
-1.0,17.0,17.0,-5.0,6.0,20.0,11.0,-5.0,1650846949348675.0
0.0,-6.0,-13.0,-5.0,-4.0,-10.0,-5.0,0.0,1650846949348675.0
0.0,-12.0,-9.0,2.0,-3.0,-11.0,-5.0,4.0,1650846949349672.0
-1.0,9.0,14.0,-2.0,2.0,12.0,6.0,-4.0,1650846949349672.0
1.0,1.0,-7.0,-8.0,-1.0,-3.0,-1.0,-2.0,1650846949350669.0
1.0,-9.0,-13.0,6.0,-1.0,-11.0,-7.0,5.0,1650846949350669.0
-2.0,7.0,8.0,-2.0,3.0,9.0,5.0,-1.0,1650846949353661.0
0.0,8.0,7.0,-2.0,0.0,8.0,5.0,-6.0,1650846949353661.0
2.0,-15.0,-22.0,-2.0,-8.0,-18.0,-10.0,6.0,1650846949367623.0
-1.0,-4.0,-3.0,-1.0,-2.0,-1.0,-1.0,-1.0,1650846949367623.0
-1.0,15.0,19.0,2.0,7.0,15.0,6.0,-6.0,1650846949376600.0
0.0,-5.0,-4.0,6.0,-2.0,-9.0,-5.0,1.0,1650846949376600.0
4.0,-8.0,-13.0,-1.0,-7.0,-10.0,-3.0,7.0,1650846949382603.0
-6.0,6.0,7.0,-7.0,3.0,11.0,4.0,-8.0,1650846949382603.0
2.0,4.0,-1.0,-2.0,1.0,2.0,2.0,3.0,1650846949398779.0
0.0,-10.0,-15.0,-6.0,-4.0,-8.0,-4.0,3.0,1650846949398779.0
-1.0,0.0,8.0,6.0,1.0,4.0,0.0,-2.0,1650846949413755.0
1.0,7.0,10.0,0.0,2.0,5.0,4.0,0.0,1650846949413755.0
1.0,-6.0,-9.0,-2.0,-2.0,-7.0,-4.0,1.0,1650846949413755.0
-2.0,-2.0,-1.0,-3.0,-3.0,-5.0,-3.0,-1.0,1650846949413755.0
1.0,-1.0,-6.0,-2.0,-3.0,-4.0,-2.0,-1.0,1650846949451701.0
2.0,-19.0,-19.0,6.0,-5.0,-20.0,-12.0,8.0,1650846949451701.0
-1.0,8.0,12.0,-4.0,3.0,14.0,6.0,-3.0,1650846949459664.0
-1.0,8.0,8.0,-2.0,3.0,5.0,3.0,-5.0,1650846949459664.0
0.0,-16.0,-17.0,4.0,-8.0,-17.0,-9.0,5.0,1650846949460662.0
-1.0,4.0,9.0,2.0,5.0,10.0,4.0,-2.0,1650846949460662.0
2.0,11.0,6.0,-3.0,4.0,10.0,6.0,-5.0,1650846949461647.0
1.0,-12.0,-17.0,-2.0,-6.0,-15.0,-8.0,4.0,1650846949461647.0
-2.0,0.0,4.0,2.0,2.0,2.0,-1.0,-1.0,1650846949472606.0
-1.0,2.0,1.0,-1.0,1.0,1.0,0.0,-2.0,1650846949472606.0
-1.0,-6.0,-6.0,-4.0,-4.0,-5.0,-3.0,-1.0,1650846949481583.0
-2.0,6.0,6.0,0.0,2.0,8.0,3.0,-3.0,1650846949481583.0
1.0,2.0,2.0,1.0,-1.0,2.0,1.0,-1.0,1650846949487632.0
1.0,-3.0,2.0,1.0,-3.0,-3.0,-1.0,2.0,1650846949487632.0
-2.0,1.0,-5.0,-1.0,-1.0,-3.0,-2.0,-2.0,1650846949502850.0
0.0,-2.0,-3.0,0.0,1.0,-1.0,-1.0,2.0,1650846949502850.0
1.0,-2.0,2.0,1.0,0.0,-1.0,0.0,0.0,1650846949509826.0
-2.0,5.0,0.0,-4.0,-1.0,4.0,3.0,-4.0,1650846949509826.0
2.0,-4.0,-1.0,1.0,-1.0,-4.0,-2.0,2.0,1650846949524783.0
-1.0,-3.0,-4.0,-1.0,-2.0,-1.0,-1.0,0.0,1650846949524783.0
-2.0,3.0,7.0,2.0,2.0,4.0,1.0,-2.0,1650846949532762.0
0.0,4.0,1.0,-2.0,0.0,3.0,0.0,-1.0,1650846949532762.0
-1.0,-4.0,-2.0,3.0,-1.0,-5.0,-2.0,1.0,1650846949548613.0
1.0,-4.0,-5.0,-2.0,-3.0,-3.0,-3.0,-1.0,1650846949548613.0
0.0,4.0,6.0,-1.0,3.0,6.0,1.0,-2.0,1650846949548613.0
-1.0,0.0,-2.0,-2.0,-2.0,-2.0,1.0,-1.0,1650846949548613.0
-1.0,-4.0,-6.0,1.0,-2.0,-7.0,-3.0,2.0,1650846949570364.0
-1.0,2.0,4.0,0.0,1.0,2.0,-1.0,0.0,1650846949570364.0
-1.0,1.0,-2.0,-3.0,0.0,3.0,-2.0,-2.0,1650846949571302.0
0.0,-1.0,-3.0,-2.0,-2.0,-3.0,-1.0,-1.0,1650846949571302.0
0.0,-4.0,-2.0,2.0,-2.0,-2.0,-3.0,-1.0,1650846949593422.0
0.0,1.0,2.0,4.0,-1.0,0.0,1.0,-1.0,1650846949593422.0
0.0,1.0,-3.0,-4.0,-1.0,-2.0,1.0,-2.0,1650846949594352.0
-2.0,-2.0,-6.0,-4.0,-4.0,-2.0,-2.0,2.0,1650846949594352.0
-1.0,0.0,4.0,1.0,3.0,-3.0,2.0,-2.0,1650846949608587.0
0.0,-1.0,-2.0,-1.0,-2.0,-1.0,-1.0,0.0,1650846949608587.0
1.0,0.0,-2.0,0.0,0.0,-1.0,0.0,4.0,1650846949608587.0
-6.0,0.0,4.0,2.0,1.0,3.0,2.0,-5.0,1650846949608587.0
0.0,0.0,-2.0,-1.0,-1.0,0.0,-1.0,0.0,1650846949630820.0
-1.0,-3.0,0.0,3.0,1.0,-2.0,-1.0,0.0,1650846949630820.0
0.0,-1.0,-8.0,-8.0,-2.0,1.0,0.0,0.0,1650846949631790.0
2.0,1.0,6.0,0.0,-4.0,-1.0,0.0,-1.0,1650846949631790.0
-2.0,-2.0,-3.0,1.0,0.0,0.0,-2.0,0.0,1650846949653358.0
0.0,-3.0,2.0,0.0,0.0,-1.0,0.0,1.0,1650846949653358.0
-2.0,0.0,1.0,2.0,1.0,2.0,0.0,-2.0,1650846949654290.0
0.0,-2.0,0.0,-2.0,-1.0,-2.0,-1.0,-1.0,1650846949654290.0
-1.0,-2.0,-2.0,0.0,-3.0,-4.0,-1.0,-1.0,1650846949668316.0
-1.0,1.0,5.0,0.0,-1.0,1.0,0.0,0.0,1650846949668316.0
-2.0,0.0,0.0,-2.0,-2.0,-1.0,0.0,-1.0,1650846949669250.0
-2.0,-3.0,-6.0,0.0,1.0,0.0,-1.0,-2.0,1650846949669250.0
0.0,-1.0,-2.0,1.0,-1.0,1.0,0.0,1.0,1650846949690319.0
-2.0,-2.0,-2.0,-5.0,-3.0,-2.0,0.0,-2.0,1650846949690319.0
0.0,-1.0,-1.0,0.0,0.0,0.0,0.0,0.0,1650846949691308.0
0.0,-2.0,-2.0,0.0,0.0,-2.0,0.0,-2.0,1650846949691308.0
1.0,1.0,-1.0,-4.0,-2.0,1.0,-2.0,-1.0,1650846949713308.0
-2.0,1.0,3.0,0.0,0.0,-1.0,0.0,0.0,1650846949713308.0
-1.0,-3.0,-5.0,-6.0,0.0,-1.0,0.0,-2.0,1650846949714258.0
2.0,-2.0,-1.0,-4.0,-3.0,-1.0,0.0,0.0,1650846949714258.0
-2.0,-4.0,-1.0,-1.0,-2.0,1.0,-1.0,0.0,1650846949728529.0
2.0,11.0,4.0,23.0,0.0,1.0,0.0,-1.0,1650846949728529.0
0.0,-8.0,3.0,11.0,12.0,1.0,0.0,0.0,1650846949729248.0
0.0,0.0,0.0,-3.0,1.0,-1.0,0.0,-1.0,1650846949729248.0
1.0,0.0,-6.0,-11.0,-6.0,-3.0,-1.0,2.0,1650846949750260.0
0.0,-4.0,-13.0,-12.0,-8.0,-3.0,-3.0,-1.0,1650846949750260.0
-2.0,2.0,3.0,-7.0,-5.0,-2.0,-2.0,-2.0,1650846949751194.0
1.0,2.0,-1.0,3.0,2.0,1.0,0.0,1.0,1650846949751194.0
0.0,0.0,3.0,0.0,-1.0,-2.0,-1.0,0.0,1650846949773132.0
-2.0,-3.0,-1.0,-6.0,-1.0,0.0,-2.0,0.0,1650846949773132.0
-2.0,1.0,-4.0,-5.0,-4.0,0.0,0.0,0.0,1650846949774131.0
-3.0,-3.0,-1.0,0.0,0.0,3.0,1.0,1.0,1650846949774131.0
-2.0,0.0,-5.0,-2.0,-4.0,-3.0,0.0,-1.0,1650846949788093.0
1.0,-1.0,1.0,-1.0,3.0,-1.0,3.0,0.0,1650846949788093.0
2.0,4.0,10.0,5.0,2.0,0.0,-2.0,0.0,1650846949789090.0
-3.0,0.0,-6.0,-3.0,-3.0,-1.0,-2.0,1.0,1650846949789090.0
0.0,2.0,3.0,6.0,1.0,0.0,0.0,0.0,1650846949811060.0
0.0,-3.0,0.0,1.0,2.0,1.0,0.0,-1.0,1650846949811060.0
0.0,-3.0,-2.0,0.0,-3.0,-2.0,-2.0,-1.0,1650846949811060.0
0.0,2.0,0.0,-1.0,-2.0,-1.0,-1.0,-1.0,1650846949811060.0
-1.0,-1.0,0.0,4.0,1.0,-3.0,-1.0,-2.0,1650846949833120.0
0.0,-3.0,-4.0,-5.0,0.0,-1.0,-1.0,1.0,1650846949833120.0
-1.0,0.0,-1.0,-1.0,-1.0,-1.0,0.0,-1.0,1650846949834100.0
0.0,0.0,1.0,3.0,0.0,-1.0,-3.0,-3.0,1650846949834100.0
0.0,0.0,-8.0,-7.0,0.0,-3.0,0.0,-1.0,1650846949848109.0
-1.0,0.0,3.0,3.0,-1.0,0.0,0.0,1.0,1650846949848109.0
-1.0,0.0,-10.0,-4.0,-3.0,1.0,1.0,1.0,1650846949849050.0
0.0,0.0,1.0,0.0,-2.0,-1.0,1.0,0.0,1650846949849050.0
-2.0,-1.0,5.0,5.0,1.0,1.0,-2.0,-1.0,1650846949870995.0
-1.0,-2.0,-3.0,-2.0,2.0,1.0,-2.0,-2.0,1650846949870995.0
0.0,0.0,-2.0,0.0,0.0,-3.0,0.0,0.0,1650846949870995.0
-2.0,-1.0,1.0,-2.0,-2.0,-3.0,-1.0,0.0,1650846949870995.0
0.0,-4.0,-2.0,-1.0,1.0,3.0,0.0,-1.0,1650846949893002.0
2.0,1.0,2.0,-4.0,-2.0,0.0,0.0,-1.0,1650846949893002.0
0.0,-4.0,-3.0,3.0,0.0,0.0,-2.0,-1.0,1650846949893929.0
1.0,-2.0,-4.0,-2.0,3.0,-1.0,0.0,0.0,1650846949893929.0
2.0,0.0,0.0,2.0,-1.0,0.0,-1.0,-1.0,1650846949907895.0
1.0,7.0,11.0,4.0,2.0,0.0,-1.0,1.0,1650846949907895.0
2.0,-1.0,2.0,2.0,0.0,-1.0,2.0,0.0,1650846949908891.0
-1.0,-1.0,-4.0,-1.0,2.0,1.0,1.0,-1.0,1650846949908891.0
-1.0,0.0,4.0,3.0,2.0,0.0,-1.0,1.0,1650846949929927.0
-5.0,-10.0,-13.0,-5.0,-3.0,-5.0,-1.0,-2.0,1650846949929927.0
-2.0,0.0,2.0,-5.0,-5.0,-3.0,0.0,0.0,1650846949937938.0
0.0,-1.0,3.0,2.0,-1.0,2.0,-2.0,-2.0,1650846949937938.0
-1.0,1.0,0.0,-1.0,-3.0,-3.0,-1.0,-2.0,1650846949952896.0
0.0,-2.0,-2.0,-2.0,-2.0,-2.0,-2.0,0.0,1650846949952896.0
1.0,-3.0,0.0,0.0,1.0,2.0,0.0,0.0,1650846949953870.0
1.0,-1.0,1.0,0.0,-1.0,0.0,-1.0,-1.0,1650846949953870.0
-1.0,-1.0,-8.0,-1.0,2.0,1.0,-1.0,1.0,1650846949967853.0
-1.0,1.0,3.0,2.0,-2.0,2.0,1.0,0.0,1650846949967853.0
-3.0,-1.0,-1.0,-2.0,-1.0,-3.0,-1.0,-2.0,1650846949968824.0
0.0,1.0,-6.0,-7.0,-7.0,-2.0,0.0,1.0,1650846949968824.0
-1.0,-2.0,-1.0,2.0,1.0,-1.0,1.0,-1.0,1650846949990765.0
0.0,-3.0,1.0,-5.0,1.0,-1.0,-1.0,0.0,1650846949990765.0
-2.0,5.0,-6.0,-11.0,-10.0,-3.0,1.0,-2.0,1650846949991773.0
2.0,6.0,18.0,37.0,28.0,7.0,1.0,2.0,1650846949991773.0
0.0,-7.0,-7.0,-12.0,-10.0,-7.0,-3.0,0.0,1650846950012773.0
-4.0,-3.0,-8.0,-10.0,-7.0,-2.0,0.0,-2.0,1650846950012773.0
0.0,6.0,3.0,4.0,9.0,4.0,0.0,-2.0,1650846950013706.0
-5.0,-11.0,-6.0,-14.0,-12.0,-4.0,2.0,-3.0,1650846950013706.0
5.0,10.0,2.0,10.0,4.0,-1.0,-1.0,0.0,1650846950028664.0
0.0,7.0,1.0,-14.0,-3.0,-2.0,-2.0,0.0,1650846950028664.0
-5.0,-21.0,3.0,14.0,-2.0,-1.0,-3.0,-3.0,1650846950028664.0
0.0,-3.0,-5.0,-9.0,-6.0,-1.0,0.0,2.0,1650846950028664.0
-1.0,-3.0,0.0,2.0,3.0,3.0,3.0,1.0,1650846950050633.0
1.0,3.0,-4.0,-2.0,0.0,-1.0,0.0,-1.0,1650846950050633.0
1.0,6.0,-4.0,-2.0,-3.0,-2.0,-4.0,-1.0,1650846950051602.0
-1.0,5.0,5.0,5.0,0.0,1.0,2.0,-3.0,1650846950051602.0
0.0,-5.0,3.0,-5.0,0.0,-1.0,-7.0,1.0,1650846950073575.0
0.0,-2.0,-2.0,5.0,1.0,3.0,5.0,0.0,1650846950073575.0
2.0,-2.0,-4.0,0.0,1.0,-1.0,4.0,5.0,1650846950074541.0
-1.0,3.0,-7.0,-20.0,-7.0,-4.0,-11.0,-7.0,1650846950074541.0
-7.0,-15.0,2.0,7.0,0.0,1.0,-3.0,-3.0,1650846950087533.0
-1.0,27.0,4.0,6.0,7.0,-2.0,6.0,-1.0,1650846950087533.0
1.0,1.0,-6.0,-9.0,-9.0,-6.0,3.0,-1.0,1650846950095551.0
-2.0,-1.0,1.0,-7.0,-4.0,-2.0,-3.0,2.0,1650846950095551.0
-7.0,-12.0,-12.0,-8.0,-7.0,-8.0,-6.0,-6.0,1650846950110633.0
-6.0,-11.0,-6.0,1.0,2.0,6.0,12.0,2.0,1650846950110633.0
0.0,-1.0,3.0,3.0,6.0,-1.0,-12.0,-10.0,1650846950111563.0
0.0,6.0,4.0,3.0,-2.0,1.0,1.0,0.0,1650846950111563.0
0.0,0.0,-3.0,-4.0,0.0,1.0,-5.0,-2.0,1650846950133345.0
0.0,-7.0,0.0,5.0,0.0,-1.0,-8.0,2.0,1650846950133345.0
1.0,7.0,-4.0,-6.0,-1.0,2.0,6.0,3.0,1650846950134323.0
1.0,-9.0,0.0,3.0,0.0,-2.0,-1.0,0.0,1650846950134323.0
5.0,11.0,6.0,6.0,6.0,5.0,9.0,4.0,1650846950147674.0
3.0,-9.0,-2.0,-2.0,-5.0,-4.0,-9.0,-4.0,1650846950147674.0
-3.0,20.0,7.0,-4.0,1.0,3.0,1.0,3.0,1650846950155683.0
6.0,-26.0,-5.0,2.0,-2.0,-7.0,-9.0,-1.0,1650846950155683.0
-10.0,-4.0,-7.0,-7.0,-4.0,-2.0,7.0,0.0,1650846950170613.0
8.0,5.0,1.0,1.0,-2.0,-1.0,9.0,7.0,1650846950170613.0
-4.0,5.0,1.0,2.0,2.0,1.0,-8.0,-5.0,1650846950171611.0
9.0,-18.0,-6.0,-1.0,4.0,8.0,11.0,7.0,1650846950171611.0
-8.0,4.0,-1.0,-1.0,-6.0,-18.0,-25.0,-16.0,1650846950193557.0
-3.0,-11.0,-3.0,-2.0,-2.0,-3.0,-6.0,-7.0,1650846950193557.0
-9.0,-7.0,-7.0,-11.0,-3.0,1.0,10.0,2.0,1650846950193557.0
1.0,9.0,6.0,11.0,-2.0,-4.0,-4.0,5.0,1650846950193557.0
5.0,0.0,4.0,2.0,2.0,10.0,12.0,6.0,1650846950207552.0
-3.0,1.0,-2.0,-2.0,6.0,2.0,-7.0,-4.0,1650846950207552.0
1.0,-5.0,-3.0,6.0,-1.0,-1.0,-2.0,-1.0,1650846950215494.0
-3.0,-2.0,-13.0,-23.0,-10.0,0.0,3.0,-2.0,1650846950215494.0
-1.0,7.0,19.0,19.0,13.0,6.0,4.0,3.0,1650846950230892.0
-9.0,-20.0,3.0,6.0,-4.0,0.0,6.0,3.0,1650846950230892.0
18.0,18.0,10.0,9.0,7.0,3.0,-4.0,8.0,1650846950231845.0
-4.0,-2.0,-8.0,-11.0,-2.0,-8.0,-22.0,-16.0,1650846950231845.0
18.0,5.0,1.0,1.0,0.0,1.0,24.0,8.0,1650846950252914.0
-23.0,-11.0,-10.0,-10.0,-7.0,3.0,24.0,12.0,1650846950252914.0
11.0,5.0,4.0,14.0,1.0,-6.0,-30.0,-12.0,1650846950253884.0
-1.0,5.0,5.0,5.0,1.0,1.0,20.0,12.0,1650846950253884.0
3.0,0.0,-5.0,-13.0,-2.0,4.0,18.0,7.0,1650846950267846.0
-14.0,1.0,-3.0,-3.0,-1.0,-5.0,-25.0,-24.0,1650846950267846.0
15.0,0.0,8.0,1.0,2.0,4.0,6.0,9.0,1650846950282806.0
1.0,27.0,22.0,29.0,10.0,3.0,-10.0,-5.0,1650846950282806.0
-29.0,-12.0,-13.0,-18.0,-10.0,-9.0,-11.0,-7.0,1650846950290813.0
23.0,0.0,-7.0,-3.0,-1.0,-1.0,2.0,12.0,1650846950290813.0
-5.0,-8.0,-1.0,-6.0,-5.0,1.0,3.0,-6.0,1650846950291783.0
-4.0,-5.0,-8.0,-5.0,4.0,0.0,-2.0,4.0,1650846950291783.0
7.0,4.0,5.0,9.0,4.0,3.0,-1.0,-17.0,1650846950312793.0
2.0,-2.0,-3.0,2.0,-4.0,-3.0,13.0,-3.0,1650846950312793.0
-32.0,-2.0,-11.0,-16.0,-10.0,-5.0,2.0,20.0,1650846950313724.0
1.0,2.0,1.0,-1.0,2.0,1.0,-10.0,-5.0,1650846950313724.0
12.0,-30.0,-16.0,-8.0,-14.0,-5.0,7.0,-5.0,1650846950327790.0
-9.0,15.0,-5.0,-7.0,-1.0,-12.0,-18.0,-15.0,1650846950327790.0
20.0,14.0,24.0,19.0,13.0,7.0,13.0,5.0,1650846950335770.0
-56.0,-17.0,-7.0,-1.0,-3.0,-1.0,3.0,-11.0,1650846950335770.0
9.0,6.0,-11.0,-8.0,-3.0,-2.0,-20.0,5.0,1650846950350758.0
8.0,-1.0,12.0,3.0,-6.0,-6.0,-12.0,-5.0,1650846950350758.0
-17.0,-13.0,-5.0,6.0,3.0,-3.0,7.0,-14.0,1650846950351728.0
6.0,11.0,3.0,-2.0,0.0,5.0,2.0,8.0,1650846950351728.0
11.0,14.0,27.0,10.0,4.0,3.0,-6.0,0.0,1650846950372672.0
-3.0,0.0,4.0,7.0,2.0,1.0,2.0,1.0,1650846950372672.0
-4.0,-12.0,-21.0,-14.0,-1.0,-7.0,-15.0,-15.0,1650846950373682.0
23.0,3.0,-9.0,-10.0,-5.0,4.0,12.0,11.0,1650846950373682.0
-1.0,3.0,-30.0,-26.0,-9.0,-3.0,3.0,4.0,1650846950387632.0
25.0,17.0,53.0,56.0,28.0,15.0,10.0,14.0,1650846950387632.0
-34.0,-16.0,-15.0,-24.0,-17.0,-15.0,-22.0,-18.0,1650846950395678.0
12.0,6.0,9.0,-4.0,-5.0,5.0,24.0,10.0,1650846950395678.0
21.0,6.0,-10.0,35.0,20.0,2.0,-10.0,9.0,1650846950410571.0
-49.0,5.0,33.0,6.0,1.0,-1.0,-11.0,-13.0,1650846950410571.0
11.0,-22.0,-50.0,-11.0,-5.0,3.0,0.0,-6.0,1650846950411568.0
-5.0,15.0,32.0,-17.0,-1.0,4.0,13.0,-4.0,1650846950411568.0
-3.0,3.0,-3.0,22.0,13.0,11.0,14.0,23.0,1650846950432622.0
17.0,-21.0,10.0,-8.0,-11.0,-12.0,-7.0,-4.0,1650846950432622.0
6.0,11.0,15.0,3.0,-3.0,3.0,2.0,4.0,1650846950433591.0
-35.0,-30.0,-17.0,-12.0,-10.0,-6.0,3.0,-16.0,1650846950433591.0
7.0,6.0,-12.0,-4.0,3.0,4.0,-6.0,-6.0,1650846950456558.0
0.0,6.0,-17.0,1.0,5.0,5.0,5.0,7.0,1650846950456558.0
-12.0,-8.0,0.0,-22.0,-9.0,-4.0,5.0,2.0,1650846950456558.0
32.0,9.0,-1.0,13.0,4.0,-4.0,-12.0,2.0,1650846950456558.0
-2.0,-3.0,14.0,-10.0,-7.0,-1.0,-6.0,-9.0,1650846950479227.0
-46.0,-26.0,-61.0,-78.0,-40.0,-16.0,-12.0,-19.0,1650846950479227.0
36.0,28.0,77.0,102.0,66.0,28.0,37.0,43.0,1650846950479759.0
-26.0,-4.0,-24.0,22.0,1.0,-4.0,-17.0,-7.0,1650846950479759.0
-8.0,-15.0,4.0,-21.0,-14.0,-14.0,-34.0,-19.0,1650846950492730.0
24.0,14.0,-17.0,-18.0,-7.0,7.0,14.0,5.0,1650846950492730.0
-35.0,-31.0,-18.0,-43.0,-33.0,-20.0,-10.0,-24.0,1650846950493724.0
-15.0,-3.0,6.0,31.0,8.0,-5.0,-13.0,-15.0,1650846950493724.0
-22.0,8.0,8.0,-3.0,-1.0,4.0,14.0,10.0,1650846950516689.0
5.0,-3.0,-3.0,-15.0,-2.0,-2.0,-17.0,-6.0,1650846950516689.0
13.0,6.0,0.0,-2.0,3.0,4.0,1.0,4.0,1650846950516689.0
12.0,-1.0,2.0,2.0,7.0,3.0,10.0,11.0,1650846950516689.0
-2.0,-6.0,-10.0,-24.0,-17.0,-12.0,-13.0,-12.0,1650846950538634.0
12.0,6.0,3.0,19.0,12.0,4.0,3.0,7.0,1650846950538634.0
-10.0,1.0,-4.0,-2.0,-4.0,-3.0,5.0,0.0,1650846950539602.0
13.0,6.0,-7.0,-24.0,-10.0,-7.0,-8.0,-2.0,1650846950539602.0
11.0,11.0,3.0,-22.0,-8.0,3.0,8.0,3.0,1650846950552588.0
18.0,15.0,36.0,63.0,41.0,29.0,38.0,41.0,1650846950552588.0
8.0,2.0,3.0,58.0,35.0,10.0,13.0,19.0,1650846950553585.0
-2.0,-8.0,21.0,-4.0,-13.0,-12.0,-19.0,-20.0,1650846950553585.0
6.0,13.0,3.0,1.0,-2.0,0.0,8.0,6.0,1650846950576530.0
3.0,-11.0,-7.0,-29.0,-14.0,-6.0,-6.0,-2.0,1650846950576530.0
8.0,4.0,-14.0,-14.0,-14.0,-1.0,-13.0,-3.0,1650846950577535.0
8.0,7.0,1.0,18.0,13.0,4.0,2.0,7.0,1650846950577535.0
5.0,2.0,6.0,13.0,5.0,-2.0,-2.0,-7.0,1650846950598511.0
-12.0,6.0,-2.0,-4.0,-5.0,-4.0,25.0,18.0,1650846950598511.0
5.0,-1.0,0.0,-11.0,-3.0,-2.0,-9.0,-10.0,1650846950599443.0
-7.0,-9.0,-11.0,-10.0,0.0,-2.0,3.0,-2.0,1650846950599443.0
7.0,1.0,9.0,4.0,-2.0,-1.0,-5.0,2.0,1650846950613466.0
10.0,2.0,-10.0,8.0,2.0,-1.0,-13.0,-8.0,1650846950613466.0
0.0,1.0,-2.0,-12.0,-8.0,-4.0,0.0,-5.0,1650846950613466.0
2.0,2.0,-9.0,-23.0,-10.0,-4.0,-3.0,2.0,1650846950613466.0
5.0,-9.0,11.0,-1.0,-11.0,-4.0,-2.0,-5.0,1650846950636370.0
-61.0,0.0,-27.0,23.0,27.0,13.0,3.0,4.0,1650846950636370.0
10.0,-13.0,10.0,-10.0,-7.0,-4.0,0.0,0.0,1650846950637341.0
4.0,0.0,2.0,-17.0,-11.0,-7.0,-13.0,-15.0,1650846950637341.0
-25.0,-9.0,-2.0,8.0,6.0,7.0,8.0,11.0,1650846950658284.0
56.0,10.0,4.0,-23.0,-14.0,0.0,7.0,11.0,1650846950658284.0
-11.0,-7.0,-22.0,-24.0,-18.0,-8.0,-12.0,-12.0,1650846950659282.0
9.0,13.0,1.0,33.0,28.0,18.0,16.0,17.0,1650846950659282.0
-10.0,-4.0,-6.0,-24.0,-10.0,-12.0,-5.0,-7.0,1650846950672246.0
14.0,-6.0,12.0,37.0,7.0,1.0,-6.0,-1.0,1650846950672246.0
-23.0,-1.0,-7.0,-21.0,-7.0,-3.0,-5.0,-10.0,1650846950680292.0
25.0,3.0,10.0,22.0,4.0,3.0,7.0,7.0,1650846950680292.0
-18.0,-2.0,-11.0,3.0,4.0,-1.0,1.0,-3.0,1650846950696251.0
8.0,-3.0,9.0,-2.0,-3.0,-4.0,-10.0,-9.0,1650846950696251.0
3.0,5.0,5.0,4.0,3.0,-1.0,1.0,1.0,1650846950697181.0
-13.0,-1.0,-6.0,-15.0,-10.0,-3.0,2.0,-2.0,1650846950697181.0
1.0,2.0,0.0,-6.0,0.0,0.0,2.0,0.0,1650846950719149.0
11.0,-6.0,-23.0,20.0,-8.0,-8.0,-10.0,-10.0,1650846950719149.0
-8.0,3.0,16.0,-3.0,2.0,4.0,0.0,-2.0,1650846950720119.0
45.0,23.0,7.0,22.0,17.0,12.0,16.0,28.0,1650846950720119.0
-52.0,-63.0,-7.0,-14.0,-10.0,-9.0,-6.0,-21.0,1650846950732115.0
1.0,9.0,14.0,3.0,-11.0,-8.0,-14.0,-17.0,1650846950732115.0
12.0,1.0,-14.0,-6.0,3.0,5.0,4.0,7.0,1650846950741101.0
10.0,5.0,-11.0,-16.0,-7.0,-5.0,3.0,3.0,1650846950741101.0
-30.0,17.0,13.0,24.0,17.0,11.0,3.0,5.0,1650846950756050.0
18.0,-13.0,-14.0,-30.0,-16.0,-6.0,1.0,-3.0,1650846950756050.0
-25.0,-6.0,3.0,18.0,6.0,-2.0,-6.0,-7.0,1650846950758018.0
-18.0,-9.0,0.0,-10.0,-6.0,-2.0,-4.0,-6.0,1650846950758018.0
25.0,12.0,-3.0,11.0,8.0,4.0,5.0,9.0,1650846950779227.0
-19.0,-4.0,3.0,-10.0,-2.0,-1.0,-7.0,-8.0,1650846950779227.0
10.0,11.0,1.0,5.0,2.0,1.0,-1.0,0.0,1650846950780785.0
-12.0,-12.0,-7.0,-7.0,-7.0,-4.0,-7.0,-5.0,1650846950780785.0
17.0,11.0,1.0,-2.0,-4.0,1.0,7.0,8.0,1650846950792726.0
7.0,-6.0,-14.0,-22.0,-10.0,-4.0,-6.0,-4.0,1650846950792726.0
-21.0,-1.0,-7.0,-7.0,2.0,-3.0,-9.0,-12.0,1650846950801808.0
-32.0,6.0,31.0,8.0,-5.0,3.0,13.0,13.0,1650846950801808.0
12.0,-11.0,-9.0,17.0,11.0,2.0,0.0,-3.0,1650846950815770.0
-20.0,1.0,21.0,-36.0,-14.0,-9.0,-18.0,-13.0,1650846950815770.0
26.0,-4.0,-38.0,-22.0,-5.0,-2.0,-9.0,-4.0,1650846950817748.0
-6.0,-5.0,-5.0,21.0,8.0,5.0,11.0,10.0,1650846950817748.0
10.0,15.0,3.0,1.0,2.0,0.0,17.0,9.0,1650846950838832.0
-23.0,-14.0,-18.0,0.0,-3.0,-9.0,-14.0,-6.0,1650846950838832.0
4.0,-9.0,10.0,-1.0,-6.0,2.0,2.0,-6.0,1650846950840817.0
20.0,6.0,5.0,6.0,16.0,0.0,-9.0,-2.0,1650846950840817.0
-27.0,1.0,-6.0,1.0,-1.0,2.0,5.0,3.0,1650846950852792.0
4.0,2.0,6.0,21.0,15.0,7.0,7.0,0.0,1650846950852792.0
-3.0,0.0,11.0,-3.0,-11.0,-2.0,3.0,7.0,1650846950861741.0
16.0,8.0,-18.0,-26.0,-15.0,-8.0,-14.0,-12.0,1650846950861741.0
2.0,5.0,13.0,-1.0,-7.0,-3.0,-5.0,-9.0,1650846950876700.0
28.0,27.0,12.0,66.0,44.0,25.0,26.0,43.0,1650846950876700.0
-18.0,-32.0,26.0,-9.0,-15.0,-13.0,1.0,-5.0,1650846950877698.0
-33.0,-14.0,-29.0,-19.0,-14.0,-6.0,-7.0,-13.0,1650846950877698.0
18.0,-1.0,10.0,12.0,21.0,7.0,-8.0,-4.0,1650846950898641.0
20.0,13.0,-8.0,-42.0,-19.0,-9.0,-6.0,-3.0,1650846950898641.0
54.0,31.0,17.0,75.0,29.0,12.0,20.0,28.0,1650846950900637.0
-10.0,-24.0,-26.0,-27.0,-19.0,-7.0,2.0,-1.0,1650846950900637.0
20.0,2.0,-2.0,-19.0,-9.0,-7.0,-12.0,-6.0,1650846950912672.0
-7.0,3.0,42.0,14.0,9.0,7.0,-3.0,-5.0,1650846950912672.0
19.0,8.0,-46.0,-6.0,-2.0,1.0,7.0,12.0,1650846950921726.0
16.0,6.0,17.0,-3.0,-7.0,-3.0,-2.0,8.0,1650846950921726.0
2.0,11.0,4.0,17.0,9.0,5.0,1.0,-2.0,1650846950936681.0
-26.0,-21.0,-12.0,-27.0,-15.0,-8.0,-3.0,-10.0,1650846950936681.0
4.0,-5.0,-33.0,-35.0,-25.0,-11.0,-2.0,-6.0,1650846950937655.0
-1.0,-8.0,8.0,20.0,11.0,4.0,-10.0,-2.0,1650846950937655.0
28.0,24.0,46.0,0.0,-1.0,4.0,3.0,11.0,1650846950958746.0
-91.0,-49.0,-71.0,-77.0,-30.0,-11.0,-14.0,-40.0,1650846950958746.0
30.0,16.0,63.0,84.0,28.0,10.0,2.0,21.0,1650846950960714.0
12.0,-14.0,-47.0,-17.0,-6.0,-1.0,12.0,10.0,1650846950960714.0
-14.0,-11.0,-18.0,-6.0,-6.0,-4.0,-4.0,-2.0,1650846950972709.0
19.0,5.0,6.0,-29.0,-22.0,-12.0,-6.0,-18.0,1650846950972709.0
-93.0,-9.0,-8.0,12.0,13.0,7.0,-4.0,-13.0,1650846950981747.0
20.0,9.0,29.0,-10.0,1.0,-5.0,-2.0,-7.0,1650846950981747.0
4.0,0.0,-19.0,-6.0,-8.0,-5.0,-11.0,4.0,1650846950996731.0
22.0,15.0,0.0,24.0,9.0,12.0,17.0,23.0,1650846950996731.0
1.0,-10.0,-7.0,-33.0,-6.0,-1.0,0.0,0.0,1650846950997702.0
-27.0,-5.0,18.0,37.0,6.0,-6.0,-12.0,-18.0,1650846950997702.0
-8.0,-9.0,-18.0,-24.0,-18.0,-8.0,-4.0,-4.0,1650846951018757.0
31.0,11.0,3.0,28.0,22.0,9.0,14.0,8.0,1650846951018757.0
-1.0,-11.0,10.0,-22.0,-12.0,-2.0,-10.0,-3.0,1650846951020763.0
23.0,7.0,6.0,-1.0,1.0,1.0,18.0,13.0,1650846951020763.0
-7.0,-15.0,-20.0,-3.0,1.0,2.0,4.0,-8.0,1650846951041735.0
-14.0,4.0,33.0,14.0,2.0,6.0,7.0,19.0,1650846951041735.0
-13.0,-5.0,-38.0,-6.0,5.0,-2.0,-7.0,-14.0,1650846951042694.0
5.0,11.0,-1.0,-33.0,-9.0,0.0,-11.0,-16.0,1650846951042694.0
14.0,-13.0,7.0,11.0,10.0,11.0,10.0,19.0,1650846951056685.0
37.0,24.0,26.0,39.0,-4.0,-14.0,-11.0,-1.0,1650846951056685.0
-22.0,-15.0,-18.0,-39.0,-6.0,0.0,20.0,-2.0,1650846951057655.0
-41.0,-4.0,-1.0,9.0,0.0,3.0,-4.0,0.0,1650846951057655.0
-25.0,-13.0,-14.0,-2.0,-3.0,-1.0,20.0,-2.0,1650846951078716.0
58.0,22.0,16.0,16.0,15.0,10.0,-12.0,-7.0,1650846951078716.0
-20.0,-8.0,-19.0,-38.0,-25.0,-11.0,7.0,23.0,1650846951080714.0
27.0,5.0,-16.0,1.0,10.0,-6.0,-10.0,-13.0,1650846951080714.0
-12.0,6.0,12.0,24.0,3.0,0.0,-10.0,-4.0,1650846951101746.0
32.0,9.0,21.0,20.0,15.0,10.0,8.0,9.0,1650846951101746.0
-15.0,-13.0,-4.0,-26.0,-21.0,-8.0,-4.0,-5.0,1650846951102741.0
12.0,29.0,46.0,52.0,32.0,23.0,16.0,20.0,1650846951102741.0
14.0,-13.0,-28.0,-62.0,-26.0,-11.0,-2.0,-11.0,1650846951116704.0
27.0,-20.0,-6.0,-4.0,-1.0,-7.0,-15.0,12.0,1650846951116704.0
-11.0,5.0,-25.0,14.0,-1.0,-7.0,-6.0,-20.0,1650846951117702.0
-5.0,22.0,35.0,-13.0,-15.0,10.0,46.0,35.0,1650846951117702.0
43.0,3.0,-24.0,31.0,27.0,7.0,-8.0,11.0,1650846951138805.0
-86.0,-18.0,-9.0,-28.0,-23.0,-11.0,-16.0,-32.0,1650846951138805.0
30.0,15.0,25.0,-14.0,-5.0,1.0,-15.0,-6.0,1650846951140800.0
-22.0,-26.0,-36.0,1.0,-6.0,-5.0,-11.0,-10.0,1650846951140800.0
23.0,32.0,80.0,11.0,0.0,12.0,47.0,30.0,1650846951161743.0
-3.0,-32.0,-111.0,-41.0,-11.0,-20.0,-28.0,-3.0,1650846951161743.0
34.0,12.0,39.0,7.0,5.0,9.0,8.0,4.0,1650846951162744.0
-54.0,-10.0,7.0,4.0,5.0,-7.0,-24.0,-22.0,1650846951162744.0
2.0,-20.0,-38.0,-10.0,-8.0,-11.0,-39.0,-32.0,1650846951175734.0
48.0,27.0,11.0,-12.0,2.0,19.0,32.0,32.0,1650846951175734.0
-54.0,8.0,48.0,24.0,2.0,1.0,27.0,11.0,1650846951182754.0
-47.0,-50.0,-29.0,35.0,26.0,-1.0,-33.0,-32.0,1650846951182754.0
3.0,2.0,-4.0,-17.0,-11.0,0.0,19.0,15.0,1650846951198644.0
-71.0,-13.0,36.0,0.0,-2.0,-3.0,-4.0,-18.0,1650846951198644.0
44.0,23.0,-39.0,-26.0,-8.0,-6.0,-14.0,-6.0,1650846951200639.0
1.0,-2.0,39.0,-7.0,-18.0,-3.0,-3.0,-5.0,1650846951200639.0
-51.0,-2.0,-43.0,35.0,21.0,-1.0,-25.0,-13.0,1650846951222848.0
8.0,-41.0,-5.0,8.0,11.0,2.0,25.0,-1.0,1650846951222848.0
58.0,32.0,15.0,-5.0,-9.0,5.0,24.0,26.0,1650846951223838.0
-104.0,-42.0,-16.0,-21.0,-24.0,-21.0,-26.0,-41.0,1650846951223838.0
10.0,1.0,-17.0,7.0,2.0,8.0,17.0,7.0,1650846951235814.0
12.0,-8.0,-10.0,-23.0,-26.0,-17.0,-22.0,-12.0,1650846951235814.0
-24.0,-11.0,10.0,23.0,20.0,1.0,-27.0,-18.0,1650846951242767.0
81.0,27.0,-17.0,-20.0,-3.0,5.0,21.0,26.0,1650846951242767.0
-25.0,4.0,33.0,-2.0,-9.0,-9.0,-3.0,-4.0,1650846951258754.0
-27.0,4.0,-16.0,8.0,13.0,10.0,-1.0,0.0,1650846951258754.0
41.0,-9.0,23.0,9.0,3.0,-2.0,3.0,3.0,1650846951260721.0
-11.0,19.0,10.0,1.0,2.0,-1.0,-8.0,-9.0,1650846951260721.0
43.0,1.0,-3.0,39.0,18.0,9.0,3.0,13.0,1650846951281677.0
2.0,13.0,12.0,20.0,12.0,3.0,9.0,3.0,1650846951281677.0
18.0,-4.0,-10.0,-5.0,2.0,0.0,-10.0,-2.0,1650846951282661.0
36.0,13.0,-9.0,-23.0,-11.0,-3.0,5.0,11.0,1650846951282661.0
-10.0,-7.0,-10.0,-14.0,-6.0,-8.0,-5.0,2.0,1650846951295646.0
-48.0,-2.0,-1.0,-5.0,-1.0,2.0,7.0,-9.0,1650846951295646.0
4.0,5.0,9.0,50.0,16.0,6.0,0.0,-3.0,1650846951302607.0
16.0,-1.0,-5.0,-14.0,-1.0,-1.0,4.0,11.0,1650846951302607.0
-15.0,1.0,38.0,4.0,-6.0,-10.0,-12.0,-9.0,1650846951318591.0
-8.0,-8.0,-7.0,-2.0,-3.0,-2.0,9.0,33.0,1650846951318591.0
11.0,31.0,-3.0,-21.0,-6.0,12.0,-5.0,-66.0,1650846951320559.0
2.0,-12.0,-21.0,1.0,2.0,0.0,7.0,26.0,1650846951320559.0
22.0,5.0,0.0,-3.0,0.0,1.0,-3.0,1.0,1650846951341524.0
17.0,8.0,16.0,7.0,-1.0,-6.0,-4.0,5.0,1650846951341524.0
-20.0,-18.0,-12.0,-1.0,0.0,-6.0,-2.0,8.0,1650846951342520.0
28.0,9.0,0.0,7.0,9.0,11.0,8.0,3.0,1650846951342520.0
-33.0,-2.0,4.0,-11.0,-8.0,-7.0,-6.0,-13.0,1650846951355531.0
26.0,18.0,2.0,4.0,2.0,3.0,2.0,1.0,1650846951355531.0
-13.0,-5.0,27.0,3.0,3.0,-4.0,-6.0,14.0,1650846951362515.0
24.0,14.0,-31.0,-1.0,0.0,-3.0,-5.0,-4.0,1650846951362515.0
-32.0,-35.0,5.0,13.0,-3.0,-12.0,4.0,13.0,1650846951378439.0
15.0,-30.0,-11.0,-22.0,-9.0,14.0,-3.0,-32.0,1650846951378439.0
-11.0,25.0,-11.0,-5.0,-1.0,-1.0,8.0,-4.0,1650846951380419.0
-12.0,5.0,-1.0,-7.0,-4.0,-17.0,-9.0,-23.0,1650846951380419.0
6.0,19.0,18.0,13.0,6.0,19.0,17.0,57.0,1650846951401383.0
24.0,2.0,-2.0,16.0,9.0,-4.0,-9.0,-10.0,1650846951401383.0
-29.0,-14.0,-16.0,-5.0,-3.0,-1.0,-5.0,-2.0,1650846951403338.0
7.0,-18.0,35.0,12.0,1.0,1.0,6.0,1.0,1650846951403338.0
-4.0,18.0,-39.0,-22.0,-7.0,-14.0,-12.0,-22.0,1650846951414890.0
-19.0,-7.0,10.0,5.0,0.0,2.0,2.0,7.0,1650846951414890.0
19.0,-14.0,21.0,12.0,2.0,4.0,11.0,43.0,1650846951424427.0
-1.0,43.0,12.0,4.0,1.0,0.0,-12.0,-38.0,1650846951424427.0
0.0,-25.0,-4.0,0.0,3.0,3.0,-5.0,-14.0,1650846951439201.0
17.0,24.0,-25.0,-13.0,-7.0,-5.0,6.0,24.0,1650846951439201.0
-19.0,-20.0,-23.0,-18.0,-1.0,-7.0,-6.0,-25.0,1650846951440480.0
3.0,-8.0,49.0,20.0,3.0,11.0,10.0,25.0,1650846951440480.0
6.0,8.0,-5.0,-21.0,-5.0,1.0,-4.0,-8.0,1650846951461545.0
-12.0,18.0,41.0,23.0,9.0,2.0,1.0,-9.0,1650846951461545.0
2.0,1.0,4.0,29.0,1.0,-7.0,-2.0,0.0,1650846951462505.0
-7.0,-75.0,-83.0,-27.0,-8.0,6.0,10.0,24.0,1650846951462505.0
-16.0,26.0,20.0,-25.0,-14.0,-5.0,-4.0,-31.0,1650846951475447.0
-16.0,-32.0,-46.0,3.0,0.0,-8.0,-3.0,-1.0,1650846951475447.0
0.0,33.0,54.0,9.0,6.0,5.0,-2.0,2.0,1650846951483774.0
14.0,24.0,0.0,10.0,7.0,3.0,1.0,12.0,1650846951483774.0
6.0,-22.0,-12.0,12.0,3.0,1.0,3.0,-1.0,1650846951498806.0
-12.0,0.0,-1.0,-6.0,1.0,3.0,1.0,-3.0,1650846951498806.0
4.0,0.0,-13.0,-7.0,-4.0,-2.0,0.0,3.0,1650846951500736.0
1.0,-2.0,-21.0,-5.0,0.0,1.0,0.0,-3.0,1650846951500736.0
8.0,25.0,27.0,4.0,1.0,-1.0,-1.0,6.0,1650846951521719.0
-15.0,-28.0,-2.0,-9.0,-7.0,-6.0,-4.0,-16.0,1650846951521719.0
6.0,0.0,-9.0,0.0,-2.0,0.0,-3.0,5.0,1650846951522673.0
9.0,4.0,4.0,-11.0,-3.0,1.0,8.0,10.0,1650846951522673.0
0.0,-4.0,16.0,21.0,4.0,0.0,-3.0,-2.0,1650846951534703.0
4.0,10.0,-10.0,0.0,5.0,6.0,6.0,6.0,1650846951534703.0
-2.0,-26.0,-19.0,-4.0,-2.0,1.0,-1.0,1.0,1650846951543617.0
-8.0,12.0,58.0,2.0,3.0,0.0,-2.0,-4.0,1650846951543617.0
6.0,-2.0,-19.0,-8.0,-1.0,-2.0,-3.0,3.0,1650846951558642.0
2.0,14.0,5.0,3.0,-2.0,-1.0,2.0,-5.0,1650846951558642.0
-1.0,-5.0,-1.0,-10.0,1.0,1.0,-6.0,-2.0,1650846951560582.0
-5.0,25.0,-23.0,2.0,1.0,0.0,-4.0,-17.0,1650846951560582.0
3.0,0.0,-5.0,-13.0,-4.0,0.0,6.0,11.0,1650846951581820.0
3.0,-14.0,-5.0,0.0,-1.0,-5.0,-5.0,-1.0,1650846951581820.0
2.0,13.0,3.0,-5.0,-2.0,5.0,4.0,3.0,1650846951582818.0
1.0,-15.0,-16.0,-2.0,-4.0,-3.0,-3.0,-2.0,1650846951582818.0
0.0,-3.0,12.0,-3.0,-1.0,1.0,-1.0,-3.0,1650846951594786.0
-3.0,21.0,21.0,13.0,6.0,-1.0,3.0,3.0,1650846951594786.0
0.0,-16.0,-12.0,-1.0,1.0,0.0,-1.0,2.0,1650846951603761.0
3.0,-2.0,-6.0,-8.0,-7.0,-2.0,1.0,2.0,1650846951603761.0
-5.0,13.0,-13.0,-6.0,-1.0,0.0,-3.0,-9.0,1650846951618789.0
-1.0,-29.0,23.0,7.0,2.0,4.0,3.0,5.0,1650846951618789.0
-3.0,-9.0,-27.0,-7.0,-4.0,-6.0,-4.0,-2.0,1650846951620716.0
1.0,4.0,3.0,-4.0,0.0,1.0,-1.0,3.0,1650846951620716.0
7.0,25.0,1.0,2.0,1.0,2.0,2.0,-1.0,1650846951641318.0
3.0,-2.0,-11.0,5.0,-4.0,-5.0,-3.0,-3.0,1650846951641318.0
-16.0,-9.0,0.0,0.0,3.0,1.0,3.0,0.0,1650846951643286.0
-7.0,4.0,17.0,0.0,-3.0,0.0,0.0,2.0,1650846951643286.0
-1.0,-20.0,-12.0,-1.0,0.0,1.0,-1.0,-5.0,1650846951655317.0
6.0,-2.0,-35.0,-3.0,2.0,2.0,3.0,10.0,1650846951655317.0
4.0,23.0,78.0,14.0,-2.0,-1.0,-3.0,-3.0,1650846951664230.0
-4.0,-19.0,-39.0,-13.0,-4.0,-2.0,-1.0,-1.0,1650846951664230.0
9.0,-7.0,6.0,-2.0,-1.0,-1.0,-1.0,8.0,1650846951679128.0
-16.0,23.0,15.0,1.0,-1.0,-3.0,1.0,-7.0,1650846951679128.0
-2.0,-16.0,-37.0,-13.0,-4.0,-2.0,-1.0,-14.0,1650846951680126.0
4.0,-5.0,14.0,7.0,3.0,0.0,1.0,25.0,1650846951680126.0
-11.0,8.0,3.0,-1.0,0.0,-2.0,-1.0,-2.0,1650846951701138.0
8.0,-6.0,-6.0,-9.0,-5.0,-1.0,0.0,3.0,1650846951701138.0
0.0,-6.0,-9.0,-4.0,0.0,-1.0,0.0,2.0,1650846951703085.0
1.0,-7.0,-2.0,4.0,-2.0,-2.0,-2.0,-9.0,1650846951703085.0
-4.0,1.0,-4.0,3.0,5.0,2.0,0.0,-8.0,1650846951715101.0
-1.0,10.0,17.0,1.0,-2.0,-1.0,-4.0,1.0,1650846951715101.0
-4.0,-10.0,-13.0,-2.0,-4.0,-1.0,-2.0,-2.0,1650846951724008.0
4.0,-10.0,4.0,2.0,2.0,0.0,0.0,-1.0,1650846951724008.0
2.0,28.0,3.0,0.0,1.0,0.0,0.0,1.0,1650846951738996.0
-1.0,-25.0,-6.0,-5.0,-3.0,-1.0,0.0,-5.0,1650846951738996.0
3.0,9.0,-7.0,6.0,3.0,1.0,2.0,4.0,1650846951739995.0
-3.0,14.0,20.0,-4.0,-4.0,-1.0,-3.0,-4.0,1650846951739995.0
-6.0,-58.0,-28.0,0.0,-1.0,-2.0,-2.0,-3.0,1650846951760909.0
3.0,32.0,15.0,-3.0,0.0,0.0,-1.0,0.0,1650846951760909.0
3.0,1.0,-37.0,-3.0,0.0,-1.0,-3.0,3.0,1650846951762904.0
-1.0,1.0,20.0,8.0,4.0,-2.0,-1.0,-1.0,1650846951762904.0
1.0,5.0,7.0,2.0,2.0,2.0,1.0,-2.0,1650846951774899.0
-1.0,-4.0,-10.0,0.0,-1.0,-1.0,-2.0,0.0,1650846951774899.0
-1.0,-18.0,-8.0,-6.0,-2.0,-1.0,-3.0,1.0,1650846951783889.0
3.0,16.0,6.0,3.0,0.0,0.0,0.0,-4.0,1650846951783889.0
1.0,1.0,17.0,4.0,0.0,2.0,0.0,-7.0,1650846951798882.0
-2.0,-8.0,-21.0,-4.0,-3.0,-1.0,0.0,3.0,1650846951798882.0
0.0,9.0,16.0,-3.0,-4.0,-3.0,-1.0,0.0,1650846951800823.0
-4.0,-15.0,-23.0,-6.0,-2.0,-4.0,-3.0,-2.0,1650846951800823.0
5.0,26.0,8.0,8.0,3.0,1.0,4.0,3.0,1650846951821339.0
-3.0,-28.0,15.0,2.0,1.0,1.0,1.0,1.0,1650846951821339.0
-1.0,21.0,10.0,0.0,-2.0,-2.0,0.0,-4.0,1650846951823306.0
-5.0,-19.0,-21.0,-4.0,-3.0,-5.0,-4.0,-21.0,1650846951823306.0
6.0,-2.0,-6.0,-4.0,-2.0,4.0,8.0,26.0,1650846951835274.0
-2.0,14.0,5.0,1.0,0.0,-1.0,-4.0,-7.0,1650846951835274.0
1.0,-5.0,7.0,2.0,-2.0,2.0,-1.0,3.0,1650846951844250.0
1.0,17.0,4.0,1.0,-1.0,1.0,-2.0,-4.0,1650846951844250.0
-3.0,-11.0,-12.0,-10.0,-4.0,-3.0,-4.0,-7.0,1650846951859219.0
-2.0,2.0,-5.0,-2.0,1.0,-1.0,3.0,1.0,1650846951859219.0
1.0,-6.0,3.0,3.0,4.0,1.0,-1.0,0.0,1650846951860214.0
1.0,10.0,-4.0,2.0,-1.0,2.0,4.0,10.0,1650846951860214.0
-5.0,-17.0,-8.0,-5.0,-3.0,-5.0,-6.0,-4.0,1650846951883168.0
-6.0,8.0,3.0,1.0,-2.0,0.0,-4.0,-4.0,1650846951883168.0
-3.0,-11.0,-8.0,-8.0,-1.0,-1.0,2.0,-1.0,1650846951884145.0
1.0,10.0,6.0,1.0,0.0,-1.0,-2.0,3.0,1650846951884145.0
-2.0,-13.0,-12.0,-4.0,-1.0,-1.0,-1.0,-2.0,1650846951895124.0
3.0,9.0,7.0,4.0,1.0,2.0,2.0,1.0,1650846951895124.0
0.0,2.0,6.0,1.0,0.0,-1.0,0.0,-1.0,1650846951904091.0
1.0,18.0,25.0,7.0,3.0,3.0,2.0,1.0,1650846951904091.0
-5.0,-36.0,-8.0,-2.0,-2.0,-4.0,0.0,-6.0,1650846951918086.0
2.0,6.0,-9.0,-9.0,-2.0,-3.0,0.0,1.0,1650846951918086.0
0.0,4.0,0.0,5.0,1.0,1.0,0.0,1.0,1650846951925068.0
3.0,4.0,-4.0,-4.0,-1.0,1.0,-2.0,3.0,1650846951925068.0
-1.0,3.0,7.0,1.0,-3.0,0.0,-3.0,-4.0,1650846951941052.0
1.0,-5.0,12.0,7.0,5.0,1.0,1.0,0.0,1650846951941052.0
0.0,-1.0,-16.0,-7.0,-4.0,-2.0,0.0,-1.0,1650846951943020.0
-2.0,-16.0,-13.0,-1.0,1.0,-2.0,1.0,-3.0,1650846951943020.0
1.0,7.0,-3.0,-1.0,0.0,0.0,0.0,-4.0,1650846951964054.0
0.0,-5.0,-1.0,-2.0,-2.0,-1.0,-1.0,1.0,1650846951964054.0
2.0,3.0,8.0,0.0,-1.0,0.0,1.0,3.0,1650846951964988.0
-9.0,-8.0,-5.0,0.0,-1.0,-2.0,-2.0,-11.0,1650846951964988.0
5.0,8.0,3.0,1.0,2.0,0.0,0.0,2.0,1650846951978923.0
1.0,2.0,-6.0,-4.0,-3.0,1.0,0.0,1.0,1650846951978923.0
-1.0,-2.0,3.0,2.0,3.0,-1.0,0.0,-1.0,1650846951980021.0
-2.0,-21.0,-12.0,-6.0,-1.0,1.0,-1.0,2.0,1650846951980021.0
3.0,51.0,31.0,10.0,2.0,0.0,-1.0,0.0,1650846952000899.0
-3.0,-15.0,-4.0,-1.0,0.0,-2.0,0.0,-2.0,1650846952000899.0
0.0,-3.0,-19.0,-3.0,-1.0,-2.0,-3.0,-1.0,1650846952002871.0
-3.0,-11.0,-4.0,-2.0,-1.0,1.0,0.0,-3.0,1650846952002871.0
2.0,3.0,-5.0,-6.0,0.0,2.0,-2.0,0.0,1650846952023824.0
2.0,16.0,14.0,4.0,-1.0,-2.0,-2.0,-2.0,1650846952023824.0
-1.0,-9.0,3.0,0.0,-2.0,-1.0,0.0,0.0,1650846952025797.0
-1.0,12.0,-9.0,-1.0,-2.0,-3.0,1.0,2.0,1650846952025797.0
0.0,-8.0,-2.0,0.0,2.0,-1.0,0.0,-3.0,1650846952038783.0
-4.0,0.0,-3.0,-5.0,-3.0,-2.0,1.0,-2.0,1650846952038783.0
2.0,-5.0,4.0,-4.0,-3.0,-1.0,1.0,0.0,1650846952040758.0
5.0,13.0,0.0,8.0,3.0,0.0,0.0,1.0,1650846952040758.0
-5.0,-15.0,-2.0,1.0,-2.0,0.0,-1.0,-2.0,1650846952061744.0
-1.0,0.0,3.0,-2.0,-1.0,-2.0,-4.0,2.0,1650846952061744.0
-3.0,3.0,-7.0,-7.0,-2.0,-1.0,-1.0,-1.0,1650846952062699.0
2.0,2.0,3.0,1.0,0.0,-1.0,0.0,4.0,1650846952062699.0
0.0,3.0,-3.0,2.0,0.0,0.0,0.0,-7.0,1650846952083682.0
-1.0,4.0,-9.0,-3.0,1.0,1.0,0.0,-1.0,1650846952083682.0
0.0,-23.0,0.0,4.0,1.0,-1.0,-2.0,-2.0,1650846952085638.0
-1.0,5.0,9.0,-4.0,-3.0,-1.0,-1.0,2.0,1650846952085638.0
-2.0,1.0,1.0,2.0,0.0,-2.0,-2.0,-1.0,1650846952097644.0
3.0,-4.0,-4.0,-2.0,-2.0,0.0,-2.0,-1.0,1650846952097644.0
-2.0,5.0,5.0,-1.0,-3.0,-1.0,-1.0,-3.0,1650846952104639.0
-1.0,-5.0,2.0,3.0,1.0,-1.0,-1.0,-2.0,1650846952104639.0
-4.0,-17.0,0.0,2.0,1.0,-1.0,-1.0,1.0,1650846952121430.0
3.0,15.0,-8.0,-4.0,0.0,1.0,0.0,1.0,1650846952121430.0
-8.0,2.0,6.0,2.0,-4.0,-4.0,-1.0,-4.0,1650846952122422.0
4.0,-9.0,-9.0,-8.0,-4.0,-3.0,-1.0,-1.0,1650846952122422.0
-8.0,2.0,6.0,1.0,-2.0,-2.0,3.0,2.0,1650846952143410.0
-2.0,-5.0,-2.0,3.0,0.0,0.0,-2.0,-3.0,1650846952143410.0
-2.0,-1.0,-5.0,-1.0,1.0,1.0,3.0,1.0,1650846952145341.0
-1.0,-5.0,2.0,-3.0,-2.0,0.0,-2.0,-3.0,1650846952145341.0
2.0,5.0,-4.0,-3.0,-2.0,-1.0,0.0,0.0,1650846952158408.0
-1.0,-6.0,-3.0,2.0,2.0,-1.0,0.0,0.0,1650846952158408.0
6.0,21.0,6.0,4.0,-1.0,1.0,2.0,5.0,1650846952165433.0
-3.0,-3.0,4.0,-1.0,-2.0,-2.0,-2.0,-2.0,1650846952165433.0
0.0,-3.0,-3.0,1.0,0.0,-1.0,-1.0,1.0,1650846952181019.0
-2.0,3.0,2.0,0.0,-1.0,-1.0,2.0,0.0,1650846952181019.0
0.0,8.0,-3.0,-2.0,0.0,1.0,-2.0,-1.0,1650846952182959.0
-1.0,-14.0,-6.0,-1.0,0.0,2.0,0.0,1.0,1650846952182959.0
0.0,4.0,-1.0,-2.0,-2.0,-2.0,-1.0,-3.0,1650846952204055.0
1.0,5.0,3.0,2.0,0.0,2.0,-1.0,0.0,1650846952204055.0
-8.0,-10.0,-2.0,-4.0,-1.0,-3.0,-2.0,-7.0,1650846952205987.0
0.0,5.0,9.0,6.0,2.0,0.0,0.0,2.0,1650846952205987.0
-3.0,-13.0,-14.0,-11.0,-7.0,-4.0,-3.0,-2.0,1650846952218612.0
2.0,2.0,-1.0,2.0,0.0,0.0,-2.0,2.0,1650846952218612.0
3.0,-8.0,-10.0,-2.0,2.0,1.0,-1.0,-3.0,1650846952224665.0
0.0,-2.0,-5.0,-2.0,3.0,-1.0,2.0,1.0,1650846952224665.0
0.0,15.0,4.0,1.0,-2.0,-1.0,1.0,1.0,1650846952241620.0
-1.0,-24.0,-6.0,-4.0,-6.0,-2.0,-2.0,-1.0,1650846952241620.0
2.0,2.0,-6.0,-3.0,2.0,3.0,1.0,2.0,1650846952242551.0
0.0,6.0,6.0,0.0,-2.0,0.0,-2.0,-6.0,1650846952242551.0
-6.0,1.0,6.0,1.0,-1.0,-1.0,0.0,4.0,1650846952263725.0
-1.0,5.0,1.0,3.0,3.0,0.0,-1.0,-2.0,1650846952263725.0
0.0,0.0,-2.0,-1.0,-1.0,0.0,-2.0,-1.0,1650846952265656.0
0.0,-3.0,-8.0,-4.0,0.0,0.0,0.0,2.0,1650846952265656.0
4.0,-5.0,1.0,0.0,1.0,1.0,1.0,2.0,1650846952277684.0
-1.0,3.0,3.0,-2.0,-2.0,-1.0,0.0,-1.0,1650846952277684.0
-5.0,-3.0,1.0,5.0,4.0,1.0,0.0,-2.0,1650846952284669.0
2.0,3.0,2.0,-1.0,-2.0,-2.0,-3.0,-1.0,1650846952284669.0
3.0,1.0,1.0,1.0,0.0,-1.0,0.0,-1.0,1650846952301830.0
-3.0,-4.0,-10.0,-3.0,-1.0,-2.0,-1.0,-1.0,1650846952301830.0
0.0,-29.0,3.0,3.0,1.0,-1.0,-1.0,-1.0,1650846952302820.0
0.0,7.0,2.0,-1.0,-2.0,-1.0,0.0,-1.0,1650846952302820.0
-1.0,-5.0,-1.0,-2.0,-1.0,1.0,-1.0,-2.0,1650846952323981.0
0.0,31.0,4.0,0.0,2.0,-1.0,0.0,0.0,1650846952323981.0
1.0,-23.0,-9.0,-1.0,-2.0,1.0,-1.0,1.0,1650846952324911.0
-5.0,1.0,-2.0,-2.0,-1.0,-1.0,-1.0,0.0,1650846952324911.0
3.0,-10.0,-6.0,-1.0,-2.0,-2.0,-2.0,-3.0,1650846952337940.0
-1.0,2.0,2.0,0.0,-2.0,0.0,-1.0,-3.0,1650846952337940.0
0.0,8.0,1.0,-2.0,-3.0,0.0,-1.0,3.0,1650846952344858.0
0.0,-2.0,-3.0,-2.0,-1.0,-1.0,0.0,-2.0,1650846952344858.0
1.0,10.0,-1.0,1.0,1.0,-1.0,1.0,4.0,1650846952360969.0
-7.0,-6.0,2.0,-1.0,0.0,-2.0,0.0,-8.0,1650846952360969.0
0.0,-2.0,1.0,-1.0,-2.0,-1.0,1.0,2.0,1650846952362965.0
-2.0,-2.0,5.0,3.0,0.0,-2.0,-1.0,-3.0,1650846952362965.0
0.0,-1.0,-6.0,-4.0,1.0,2.0,3.0,0.0,1650846952383884.0
0.0,-11.0,-2.0,-6.0,-2.0,-3.0,1.0,3.0,1650846952383884.0
4.0,14.0,-4.0,3.0,1.0,-3.0,-2.0,-1.0,1650846952385837.0
-7.0,-4.0,-1.0,1.0,2.0,0.0,2.0,3.0,1650846952385837.0
0.0,3.0,-3.0,-4.0,0.0,0.0,0.0,-1.0,1650846952398585.0
-3.0,1.0,9.0,1.0,-4.0,-1.0,-2.0,0.0,1650846952398585.0
1.0,3.0,-1.0,-1.0,0.0,-1.0,1.0,1.0,1650846952404598.0
0.0,-2.0,-3.0,-2.0,-2.0,0.0,0.0,0.0,1650846952404598.0
-1.0,2.0,8.0,9.0,3.0,2.0,-2.0,0.0,1650846952421747.0
0.0,-9.0,-9.0,-3.0,-1.0,0.0,0.0,-2.0,1650846952421747.0
-3.0,13.0,11.0,-4.0,-2.0,0.0,-1.0,3.0,1650846952422689.0
3.0,-5.0,-14.0,0.0,-2.0,0.0,0.0,-3.0,1650846952422689.0
-1.0,-6.0,0.0,0.0,-2.0,-2.0,-2.0,0.0,1650846952443621.0
-5.0,1.0,2.0,5.0,1.0,0.0,-1.0,-7.0,1650846952443621.0
-1.0,-3.0,-6.0,-3.0,1.0,2.0,2.0,2.0,1650846952445615.0
-3.0,-5.0,1.0,1.0,1.0,-1.0,-1.0,2.0,1650846952445615.0
5.0,21.0,2.0,-2.0,0.0,-1.0,-3.0,-3.0,1650846952457614.0
3.0,-2.0,0.0,1.0,1.0,-1.0,1.0,3.0,1650846952457614.0
1.0,3.0,4.0,0.0,-4.0,0.0,-3.0,-2.0,1650846952466573.0
1.0,-4.0,2.0,-1.0,0.0,0.0,1.0,0.0,1650846952466573.0
-3.0,-9.0,-3.0,2.0,2.0,0.0,0.0,1.0,1650846952481587.0
4.0,5.0,12.0,3.0,1.0,1.0,-2.0,-3.0,1650846952481587.0
-2.0,-4.0,-10.0,-5.0,-3.0,-2.0,-2.0,-3.0,1650846952482517.0
-6.0,11.0,1.0,1.0,-2.0,0.0,-1.0,3.0,1650846952482517.0
-3.0,-18.0,-9.0,-5.0,-4.0,-2.0,-5.0,-2.0,1650846952503835.0
1.0,-2.0,-13.0,-6.0,-1.0,-1.0,-1.0,3.0,1650846952503835.0
1.0,-3.0,-4.0,0.0,-1.0,-1.0,1.0,-1.0,1650846952505829.0
2.0,-3.0,2.0,0.0,-2.0,-1.0,-1.0,-1.0,1650846952505829.0
-2.0,0.0,3.0,1.0,0.0,-2.0,2.0,-2.0,1650846952517854.0
0.0,-4.0,-4.0,1.0,3.0,2.0,2.0,2.0,1650846952517854.0
-3.0,8.0,7.0,1.0,-1.0,-2.0,-4.0,-4.0,1650846952526774.0
2.0,-14.0,0.0,4.0,2.0,0.0,0.0,5.0,1650846952526774.0
2.0,30.0,1.0,-5.0,-2.0,-2.0,2.0,-4.0,1650846952540766.0
1.0,-29.0,-10.0,-1.0,-2.0,-3.0,-2.0,2.0,1650846952540766.0
0.0,2.0,-1.0,0.0,1.0,2.0,1.0,1.0,1650846952542732.0
-1.0,6.0,2.0,1.0,3.0,2.0,0.0,-3.0,1650846952542732.0
-1.0,-4.0,-3.0,0.0,-3.0,-3.0,-3.0,-1.0,1650846952563674.0
-2.0,3.0,-5.0,-6.0,-5.0,-3.0,-3.0,-2.0,1650846952563674.0
-1.0,0.0,4.0,1.0,0.0,-2.0,0.0,-1.0,1650846952565696.0
0.0,-2.0,1.0,-3.0,-1.0,3.0,-1.0,-1.0,1650846952565696.0
1.0,-10.0,-1.0,-2.0,0.0,2.0,0.0,2.0,1650846952586641.0
1.0,-8.0,-4.0,0.0,1.0,1.0,1.0,2.0,1650846952586641.0
4.0,-2.0,13.0,5.0,0.0,-2.0,1.0,0.0,1650846952587622.0
-12.0,0.0,-19.0,-5.0,-3.0,-2.0,-3.0,-8.0,1650846952587622.0
0.0,-1.0,28.0,9.0,0.0,0.0,1.0,-1.0,1650846952600751.0
-1.0,-5.0,-1.0,-2.0,-1.0,-2.0,-2.0,1.0,1650846952600751.0
0.0,17.0,-4.0,-4.0,-3.0,-1.0,0.0,-1.0,1650846952608662.0
3.0,-16.0,-12.0,1.0,0.0,-2.0,2.0,1.0,1650846952608662.0
-2.0,6.0,-2.0,-3.0,-1.0,0.0,0.0,-2.0,1650846952623772.0
-3.0,-15.0,-3.0,-3.0,-1.0,0.0,1.0,2.0,1650846952623772.0
-2.0,-2.0,-2.0,-2.0,-3.0,-3.0,-1.0,-3.0,1650846952625739.0
3.0,13.0,10.0,-1.0,2.0,2.0,0.0,-1.0,1650846952625739.0
-2.0,-8.0,-3.0,3.0,1.0,1.0,0.0,1.0,1650846952637735.0
3.0,15.0,6.0,-1.0,-2.0,0.0,0.0,-2.0,1650846952637735.0
-4.0,-2.0,-6.0,-3.0,-2.0,1.0,-2.0,-3.0,1650846952646684.0
0.0,-10.0,0.0,1.0,-2.0,-2.0,-1.0,3.0,1650846952646684.0
1.0,-5.0,-9.0,2.0,2.0,-1.0,1.0,-5.0,1650846952661671.0
3.0,8.0,-5.0,-4.0,1.0,1.0,-2.0,3.0,1650846952661671.0
-8.0,-12.0,-1.0,-2.0,-3.0,-1.0,4.0,-1.0,1650846952662642.0
3.0,9.0,11.0,1.0,-1.0,-1.0,-4.0,-10.0,1650846952662642.0
-1.0,-1.0,-4.0,-3.0,-2.0,-1.0,-2.0,2.0,1650846952683855.0
1.0,10.0,6.0,5.0,1.0,1.0,0.0,-1.0,1650846952683855.0
0.0,9.0,-12.0,-3.0,1.0,2.0,1.0,3.0,1650846952685852.0
1.0,-25.0,3.0,-2.0,-1.0,-1.0,0.0,0.0,1650846952685852.0
-1.0,-6.0,-2.0,1.0,0.0,-1.0,-2.0,-1.0,1650846952697821.0
3.0,10.0,13.0,2.0,-2.0,-1.0,-1.0,-2.0,1650846952697821.0
-3.0,0.0,-1.0,3.0,1.0,-1.0,1.0,3.0,1650846952706825.0
1.0,12.0,1.0,-2.0,-1.0,1.0,1.0,-1.0,1650846952706825.0
-1.0,-13.0,-8.0,-6.0,-1.0,-1.0,-1.0,0.0,1650846952720907.0
0.0,3.0,-1.0,-2.0,-5.0,-3.0,2.0,1.0,1650846952720907.0
1.0,-2.0,2.0,4.0,7.0,1.0,-3.0,-2.0,1650846952722883.0
-2.0,2.0,-7.0,-5.0,-4.0,-3.0,-4.0,0.0,1650846952722883.0
1.0,1.0,2.0,1.0,1.0,0.0,0.0,0.0,1650846952743814.0
-1.0,6.0,15.0,1.0,0.0,-1.0,-1.0,3.0,1650846952743814.0
-3.0,16.0,-1.0,4.0,1.0,2.0,0.0,-8.0,1650846952745809.0
-4.0,-34.0,-15.0,-3.0,-2.0,-2.0,1.0,0.0,1650846952745809.0
-1.0,5.0,1.0,0.0,2.0,2.0,-1.0,0.0,1650846952757807.0
-1.0,2.0,-4.0,1.0,1.0,0.0,1.0,-2.0,1650846952757807.0
2.0,-11.0,0.0,-3.0,-4.0,-2.0,-1.0,0.0,1650846952766762.0
0.0,8.0,5.0,0.0,0.0,-1.0,-2.0,2.0,1650846952766762.0
-3.0,3.0,-1.0,-3.0,-3.0,-2.0,-2.0,0.0,1650846952781713.0
0.0,-16.0,-2.0,3.0,4.0,-1.0,-1.0,-1.0,1650846952781713.0
2.0,9.0,3.0,2.0,-2.0,-2.0,-1.0,1.0,1650846952782710.0
-1.0,8.0,-2.0,1.0,-1.0,1.0,1.0,0.0,1650846952782710.0
-1.0,-1.0,10.0,-1.0,-2.0,1.0,3.0,1.0,1650846952803660.0
-4.0,-2.0,-11.0,-4.0,-1.0,-1.0,-1.0,-2.0,1650846952803660.0
0.0,-7.0,-2.0,-3.0,-2.0,-3.0,-2.0,1.0,1650846952805648.0
1.0,12.0,-7.0,-4.0,-3.0,-2.0,3.0,2.0,1650846952805648.0
2.0,1.0,11.0,6.0,1.0,-2.0,2.0,0.0,1650846952817757.0
-3.0,2.0,-12.0,0.0,0.0,-1.0,0.0,-1.0,1650846952817757.0
-2.0,-8.0,1.0,1.0,-1.0,-1.0,0.0,-1.0,1650846952826735.0
2.0,9.0,6.0,0.0,-4.0,-2.0,-1.0,-1.0,1650846952826735.0
-2.0,-6.0,-9.0,-5.0,1.0,-2.0,-2.0,-1.0,1650846952841695.0
1.0,13.0,5.0,6.0,1.0,2.0,1.0,1.0,1650846952841695.0
0.0,-30.0,-6.0,-3.0,0.0,-1.0,-2.0,2.0,1650846952842692.0
-6.0,3.0,1.0,-3.0,-3.0,-2.0,-1.0,-6.0,1650846952842692.0
1.0,6.0,-2.0,0.0,0.0,0.0,1.0,2.0,1650846952863641.0
-1.0,-5.0,-5.0,-5.0,-2.0,-1.0,0.0,-2.0,1650846952863641.0
0.0,7.0,1.0,2.0,0.0,1.0,2.0,2.0,1650846952865635.0
1.0,1.0,-2.0,3.0,2.0,1.0,0.0,1.0,1650846952865635.0
-3.0,-7.0,-5.0,-1.0,-1.0,-2.0,0.0,-2.0,1650846952886576.0
-1.0,0.0,1.0,-6.0,-8.0,-3.0,-1.0,-2.0,1650846952886576.0
0.0,-2.0,-5.0,-11.0,-4.0,-1.0,-1.0,0.0,1650846952887573.0
1.0,-4.0,-3.0,-8.0,-1.0,-2.0,-2.0,1.0,1650846952887573.0
0.0,2.0,-7.0,1.0,-11.0,-4.0,-1.0,-1.0,1650846952901604.0
-1.0,-2.0,12.0,32.0,28.0,11.0,4.0,1.0,1650846952901604.0
-1.0,-3.0,-8.0,-19.0,-13.0,-4.0,-2.0,-2.0,1650846952902533.0
0.0,5.0,4.0,9.0,2.0,1.0,1.0,-1.0,1650846952902533.0
-2.0,-7.0,-8.0,-13.0,-6.0,-3.0,-3.0,0.0,1650846952923644.0
-2.0,-1.0,2.0,7.0,-9.0,-7.0,-2.0,0.0,1650846952923644.0
1.0,-1.0,-3.0,-11.0,0.0,2.0,0.0,-1.0,1650846952925631.0
0.0,0.0,0.0,-1.0,3.0,3.0,1.0,-1.0,1650846952925631.0
-3.0,-3.0,-2.0,-6.0,-4.0,-2.0,-3.0,0.0,1650846952946555.0
-2.0,-2.0,-6.0,-7.0,-3.0,-1.0,-1.0,-2.0,1650846952946555.0
1.0,9.0,7.0,13.0,6.0,0.0,-1.0,0.0,1650846952947558.0
0.0,0.0,-2.0,-4.0,-5.0,-3.0,1.0,2.0,1650846952947558.0
-1.0,-2.0,3.0,3.0,2.0,-2.0,-1.0,-1.0,1650846952961543.0
-1.0,-2.0,-1.0,-8.0,-2.0,1.0,-1.0,-1.0,1650846952961543.0
-2.0,-1.0,2.0,12.0,6.0,0.0,-2.0,-1.0,1650846952962524.0
1.0,2.0,1.0,1.0,-1.0,-1.0,-3.0,0.0,1650846952962524.0
1.0,0.0,-3.0,0.0,1.0,1.0,0.0,-1.0,1650846952982527.0
-1.0,0.0,2.0,-1.0,0.0,-2.0,0.0,-1.0,1650846952982527.0
-1.0,-2.0,-4.0,-3.0,-9.0,-2.0,-1.0,-1.0,1650846952991447.0
0.0,2.0,2.0,1.0,4.0,-1.0,1.0,-2.0,1650846952991447.0
-3.0,-2.0,-4.0,-2.0,1.0,2.0,-1.0,0.0,1650846953006423.0
-1.0,-4.0,2.0,5.0,-2.0,-2.0,1.0,-2.0,1650846953006423.0
1.0,3.0,-1.0,3.0,4.0,1.0,-4.0,0.0,1650846953007413.0
-2.0,-3.0,3.0,13.0,-4.0,-1.0,-1.0,-1.0,1650846953007413.0
3.0,0.0,5.0,18.0,13.0,3.0,3.0,1.0,1650846953021385.0
-1.0,-1.0,-2.0,0.0,-7.0,-3.0,-1.0,1.0,1650846953021385.0
-3.0,-1.0,-3.0,-16.0,-5.0,0.0,0.0,0.0,1650846953022383.0
1.0,0.0,-2.0,-7.0,-4.0,0.0,0.0,1.0,1650846953022383.0
-2.0,0.0,-6.0,-13.0,-5.0,0.0,-1.0,-1.0,1650846953043327.0
-1.0,0.0,1.0,5.0,2.0,0.0,0.0,-1.0,1650846953043327.0
-1.0,-5.0,-2.0,0.0,-4.0,-3.0,0.0,-3.0,1650846953045321.0
1.0,-2.0,5.0,8.0,0.0,0.0,-3.0,-1.0,1650846953045321.0
0.0,6.0,3.0,6.0,2.0,0.0,0.0,-1.0,1650846953066334.0
-2.0,-6.0,-8.0,-16.0,-1.0,-1.0,0.0,0.0,1650846953066334.0
-2.0,-1.0,-2.0,4.0,3.0,0.0,0.0,1.0,1650846953068290.0
-1.0,0.0,2.0,-3.0,-1.0,0.0,0.0,-1.0,1650846953068290.0
0.0,-2.0,-2.0,3.0,0.0,0.0,-1.0,0.0,1650846953080243.0
1.0,1.0,-3.0,-5.0,-1.0,-2.0,-1.0,-4.0,1650846953080243.0
3.0,0.0,3.0,2.0,-2.0,1.0,2.0,1.0,1650846953087332.0
-2.0,-4.0,-9.0,-8.0,-2.0,0.0,5.0,0.0,1650846953087332.0
0.0,1.0,0.0,-8.0,-9.0,-1.0,-6.0,-3.0,1650846953103291.0
-3.0,-1.0,1.0,4.0,0.0,-4.0,-9.0,-4.0,1650846953103291.0
0.0,1.0,1.0,0.0,5.0,2.0,4.0,1.0,1650846953105289.0
3.0,5.0,3.0,-2.0,0.0,2.0,1.0,5.0,1650846953105289.0
-1.0,-5.0,-1.0,1.0,-3.0,-3.0,4.0,1.0,1650846953126285.0
2.0,1.0,-2.0,-2.0,1.0,2.0,3.0,0.0,1650846953126285.0
-6.0,-4.0,-1.0,9.0,6.0,2.0,-3.0,-6.0,1650846953128269.0
-1.0,1.0,-1.0,-6.0,-1.0,-2.0,1.0,1.0,1650846953128269.0
3.0,2.0,1.0,1.0,-1.0,-1.0,-2.0,1.0,1650846953141241.0
0.0,-2.0,0.0,-6.0,-3.0,-1.0,-4.0,0.0,1650846953141241.0
1.0,-1.0,-1.0,0.0,-3.0,-2.0,0.0,0.0,1650846953147208.0
-3.0,-1.0,-1.0,0.0,1.0,1.0,-2.0,-1.0,1650846953147208.0
0.0,1.0,3.0,3.0,3.0,2.0,1.0,0.0,1650846953164157.0
-1.0,0.0,0.0,-2.0,-1.0,-2.0,-2.0,-1.0,1650846953164157.0
0.0,-2.0,-2.0,-2.0,-2.0,1.0,3.0,2.0,1650846953165158.0
-2.0,-4.0,-4.0,-2.0,0.0,-3.0,-6.0,-3.0,1650846953165158.0
0.0,1.0,0.0,0.0,-3.0,-2.0,2.0,1.0,1650846953186121.0
-1.0,-2.0,-5.0,-9.0,-1.0,2.0,-2.0,-1.0,1650846953186121.0
0.0,-2.0,6.0,16.0,2.0,-3.0,-1.0,2.0,1650846953188089.0
3.0,5.0,1.0,0.0,3.0,2.0,3.0,2.0,1650846953188089.0
-2.0,-3.0,-1.0,-5.0,-2.0,-2.0,-8.0,-4.0,1650846953201087.0
3.0,2.0,-3.0,-4.0,1.0,5.0,-4.0,0.0,1650846953201087.0
-5.0,-6.0,-4.0,2.0,1.0,-1.0,-1.0,-7.0,1650846953207066.0
-4.0,-2.0,-4.0,-3.0,-6.0,-15.0,13.0,4.0,1650846953207066.0
-1.0,-2.0,-1.0,0.0,-1.0,1.0,1.0,-2.0,1650846953223588.0
0.0,0.0,0.0,0.0,0.0,0.0,-9.0,3.0,1650846953223588.0
0.0,3.0,2.0,-2.0,0.0,3.0,-4.0,-1.0,1650846953225517.0
-1.0,-1.0,1.0,4.0,3.0,5.0,1.0,-4.0,1650846953225517.0
2.0,0.0,-3.0,-2.0,2.0,-1.0,2.0,0.0,1650846953246488.0
-1.0,3.0,1.0,1.0,-1.0,-6.0,-11.0,-5.0,1650846953246488.0
-1.0,-3.0,0.0,-4.0,2.0,1.0,-3.0,0.0,1650846953247458.0
-6.0,-2.0,-1.0,4.0,-3.0,0.0,33.0,-3.0,1650846953247458.0
5.0,0.0,-2.0,0.0,1.0,-1.0,-4.0,5.0,1650846953260450.0
5.0,3.0,3.0,5.0,1.0,25.0,23.0,10.0,1650846953260450.0
-2.0,-1.0,-1.0,-4.0,-4.0,-6.0,-11.0,2.0,1650846953267472.0
-3.0,-4.0,-6.0,-5.0,-5.0,-4.0,-27.0,-10.0,1650846953267472.0
-4.0,-5.0,-5.0,-4.0,1.0,-2.0,3.0,-3.0,1650846953283431.0
-2.0,-4.0,-2.0,-4.0,-6.0,-11.0,-1.0,-2.0,1650846953283431.0
-3.0,2.0,-1.0,-2.0,0.0,0.0,8.0,2.0,1650846953285356.0
6.0,1.0,0.0,1.0,3.0,4.0,-5.0,4.0,1650846953285356.0
-8.0,-4.0,-2.0,-1.0,0.0,-2.0,-8.0,-6.0,1650846953306300.0
2.0,-3.0,-5.0,-1.0,-3.0,-5.0,0.0,2.0,1650846953306300.0
2.0,3.0,3.0,3.0,-2.0,-1.0,-8.0,-2.0,1650846953308303.0
-2.0,-2.0,-1.0,0.0,0.0,0.0,-15.0,-7.0,1650846953308303.0
2.0,3.0,0.0,2.0,2.0,2.0,25.0,11.0,1650846953320772.0
-4.0,-6.0,-4.0,-5.0,-7.0,-11.0,-12.0,-7.0,1650846953320772.0
2.0,-2.0,-3.0,0.0,-4.0,3.0,21.0,3.0,1650846953327779.0
-4.0,4.0,2.0,-2.0,2.0,5.0,-9.0,-4.0,1650846953327779.0
4.0,2.0,6.0,5.0,4.0,0.0,-18.0,-8.0,1650846953343707.0
-7.0,-3.0,-4.0,-1.0,4.0,2.0,20.0,5.0,1650846953343707.0
4.0,-4.0,-4.0,-3.0,-5.0,-6.0,-8.0,0.0,1650846953345703.0
-4.0,0.0,0.0,-1.0,-4.0,-7.0,-4.0,0.0,1650846953345703.0
9.0,3.0,-2.0,-4.0,-3.0,5.0,9.0,4.0,1650846953365650.0
2.0,5.0,8.0,8.0,4.0,-2.0,-4.0,2.0,1650846953365650.0
9.0,2.0,-3.0,1.0,2.0,2.0,-4.0,-3.0,1650846953373686.0
-30.0,-15.0,-6.0,-2.0,-3.0,-7.0,-3.0,-11.0,1650846953373686.0
28.0,17.0,10.0,7.0,-1.0,-8.0,-1.0,19.0,1650846953379677.0
22.0,-6.0,-12.0,-11.0,-1.0,10.0,11.0,-2.0,1650846953379677.0
-39.0,-1.0,-5.0,5.0,0.0,-11.0,0.0,-16.0,1650846953388588.0
9.0,4.0,8.0,3.0,2.0,12.0,5.0,21.0,1650846953388588.0
16.0,8.0,-8.0,-11.0,3.0,6.0,7.0,10.0,1650846953404545.0
-1.0,11.0,5.0,-1.0,-4.0,-10.0,-15.0,-5.0,1650846953404545.0
6.0,-15.0,-17.0,-5.0,3.0,6.0,5.0,4.0,1650846953405556.0
-50.0,-12.0,4.0,6.0,-1.0,-7.0,-19.0,-39.0,1650846953405556.0
-11.0,8.0,30.0,14.0,-1.0,4.0,11.0,16.0,1650846953426141.0
2.0,-9.0,-24.0,-9.0,-5.0,-2.0,1.0,6.0,1650846953426141.0
3.0,14.0,14.0,-11.0,-2.0,3.0,14.0,0.0,1650846953428107.0
4.0,-20.0,-20.0,15.0,0.0,-8.0,-13.0,-9.0,1650846953428107.0
-27.0,-23.0,-23.0,-20.0,-6.0,2.0,-5.0,-17.0,1650846953449171.0
3.0,-2.0,15.0,-9.0,-7.0,-4.0,-3.0,-4.0,1650846953449171.0
-4.0,16.0,32.0,12.0,4.0,4.0,0.0,2.0,1650846953450167.0
20.0,10.0,-18.0,-6.0,3.0,2.0,-4.0,0.0,1650846953450167.0
-4.0,-5.0,-5.0,-1.0,-3.0,-5.0,4.0,3.0,1650846953464129.0
-20.0,-7.0,-13.0,-16.0,-9.0,-4.0,-10.0,-8.0,1650846953464129.0
58.0,8.0,-15.0,-7.0,4.0,3.0,4.0,21.0,1650846953465127.0
-12.0,11.0,46.0,39.0,21.0,9.0,10.0,1.0,1650846953465127.0
46.0,11.0,0.0,-8.0,-8.0,-11.0,-14.0,-1.0,1650846953486138.0
-22.0,-5.0,-1.0,1.0,-5.0,-5.0,4.0,-8.0,1650846953486138.0
19.0,8.0,16.0,-15.0,-11.0,4.0,4.0,11.0,1650846953488065.0
18.0,11.0,-18.0,4.0,1.0,1.0,20.0,17.0,1650846953488065.0
-32.0,-22.0,-13.0,-26.0,0.0,5.0,-10.0,-18.0,1650846953500098.0
16.0,4.0,5.0,32.0,8.0,1.0,7.0,14.0,1650846953500098.0
-23.0,-21.0,-13.0,-4.0,2.0,-16.0,-36.0,-27.0,1650846953509036.0
4.0,-16.0,8.0,-1.0,-24.0,-9.0,12.0,7.0,1650846953509036.0
-29.0,0.0,-19.0,-5.0,14.0,10.0,-1.0,-8.0,1650846953523969.0
53.0,-1.0,-2.0,-15.0,-2.0,8.0,4.0,18.0,1650846953523969.0
0.0,20.0,-19.0,-34.0,-19.0,-5.0,2.0,-9.0,1650846953524987.0
14.0,5.0,11.0,64.0,29.0,16.0,-2.0,18.0,1650846953524987.0
-8.0,9.0,17.0,24.0,9.0,5.0,11.0,0.0,1650846953545910.0
-29.0,1.0,-37.0,-24.0,-8.0,-13.0,-2.0,0.0,1650846953545910.0
37.0,-22.0,12.0,4.0,1.0,-2.0,-10.0,-1.0,1650846953547906.0
11.0,8.0,-29.0,-49.0,-29.0,-14.0,-23.0,-27.0,1650846953547906.0
13.0,5.0,24.0,8.0,3.0,8.0,27.0,22.0,1650846953559903.0
-3.0,15.0,41.0,-11.0,-13.0,-7.0,-11.0,-7.0,1650846953559903.0
-27.0,-20.0,-16.0,39.0,23.0,10.0,12.0,6.0,1650846953568866.0
-17.0,-1.0,4.0,-44.0,-11.0,1.0,3.0,2.0,1650846953568866.0
2.0,-17.0,-15.0,54.0,16.0,-9.0,-17.0,-16.0,1650846953583895.0
-51.0,-24.0,6.0,-20.0,-7.0,-1.0,-1.0,-14.0,1650846953583895.0
-37.0,-5.0,-35.0,-31.0,-17.0,-16.0,-28.0,-29.0,1650846953585823.0
-31.0,11.0,15.0,-38.0,-16.0,-4.0,16.0,16.0,1650846953585823.0
65.0,14.0,11.0,81.0,43.0,17.0,13.0,-2.0,1650846953606773.0
-50.0,-2.0,-3.0,8.0,6.0,4.0,-8.0,-22.0,1650846953606773.0
51.0,4.0,-13.0,8.0,-22.0,-17.0,-3.0,4.0,1650846953607776.0
-86.0,-29.0,-14.0,-21.0,-1.0,8.0,3.0,-4.0,1650846953607776.0
-29.0,5.0,4.0,-55.0,-41.0,-25.0,-32.0,-30.0,1650846953620237.0
6.0,9.0,-10.0,24.0,13.0,4.0,-2.0,4.0,1650846953620237.0
14.0,17.0,19.0,5.0,5.0,-1.0,3.0,14.0,1650846953629213.0
37.0,16.0,8.0,-34.0,7.0,8.0,18.0,12.0,1650846953629213.0
-16.0,-16.0,-14.0,27.0,-6.0,-4.0,2.0,5.0,1650846953644174.0
-16.0,-5.0,23.0,-2.0,-6.0,-9.0,-34.0,-35.0,1650846953644174.0
12.0,3.0,-8.0,14.0,-6.0,1.0,-4.0,15.0,1650846953645181.0
77.0,19.0,17.0,15.0,12.0,6.0,27.0,14.0,1650846953645181.0
-95.0,-30.0,-11.0,-46.0,-19.0,-13.0,-25.0,-35.0,1650846953666128.0
51.0,25.0,-13.0,14.0,1.0,5.0,8.0,4.0,1650846953666128.0
5.0,-10.0,5.0,-3.0,3.0,6.0,4.0,9.0,1650846953668110.0
16.0,3.0,10.0,-2.0,14.0,-2.0,-9.0,6.0,1650846953668110.0
-32.0,3.0,11.0,-3.0,3.0,13.0,13.0,8.0,1650846953680105.0
72.0,-7.0,9.0,-12.0,-14.0,-7.0,23.0,19.0,1650846953680105.0
-20.0,20.0,35.0,5.0,12.0,5.0,5.0,21.0,1650846953689054.0
12.0,-1.0,-9.0,40.0,7.0,13.0,16.0,9.0,1650846953689054.0
56.0,22.0,7.0,-40.0,0.0,-11.0,-23.0,-2.0,1650846953704016.0
-27.0,-3.0,-6.0,26.0,22.0,20.0,32.0,25.0,1650846953704016.0
-28.0,-8.0,12.0,3.0,-7.0,-3.0,-3.0,-16.0,1650846953705012.0
22.0,11.0,11.0,11.0,1.0,-14.0,-23.0,-31.0,1650846953705012.0
19.0,-9.0,-34.0,-39.0,-18.0,3.0,29.0,43.0,1650846953725954.0
-7.0,0.0,7.0,27.0,15.0,0.0,-15.0,-4.0,1650846953725954.0
-67.0,10.0,28.0,-12.0,-8.0,1.0,6.0,-11.0,1650846953727950.0
34.0,-11.0,-1.0,-7.0,11.0,-1.0,-15.0,-12.0,1650846953727950.0
14.0,-10.0,-45.0,-40.0,-26.0,-4.0,-2.0,4.0,1650846953739917.0
55.0,21.0,31.0,71.0,42.0,23.0,5.0,22.0,1650846953739917.0
-6.0,-17.0,-71.0,-41.0,-20.0,0.0,35.0,30.0,1650846953748901.0
-6.0,-11.0,26.0,41.0,8.0,1.0,-8.0,-6.0,1650846953748901.0
3.0,5.0,19.0,-19.0,-4.0,-4.0,-11.0,-12.0,1650846953764855.0
27.0,-3.0,-60.0,4.0,2.0,11.0,14.0,10.0,1650846953764855.0
27.0,2.0,37.0,34.0,15.0,8.0,0.0,6.0,1650846953766847.0
5.0,-8.0,-29.0,-42.0,-17.0,-11.0,-17.0,-10.0,1650846953766847.0
-42.0,-10.0,33.0,33.0,10.0,-3.0,4.0,-4.0,1650846953785798.0
19.0,0.0,-8.0,4.0,0.0,2.0,-5.0,-8.0,1650846953785798.0
-1.0,3.0,-1.0,-13.0,-3.0,-2.0,-9.0,-4.0,1650846953787790.0
-7.0,-6.0,-26.0,-14.0,-22.0,-4.0,4.0,3.0,1650846953787790.0
-82.0,-17.0,41.0,-6.0,-8.0,-7.0,-17.0,-19.0,1650846953808733.0
13.0,15.0,21.0,1.0,9.0,11.0,23.0,8.0,1650846953808733.0
-13.0,-7.0,6.0,7.0,3.0,-5.0,-25.0,-9.0,1650846953810728.0
26.0,21.0,-26.0,-3.0,-2.0,-7.0,-6.0,4.0,1650846953810728.0
9.0,3.0,14.0,-15.0,-15.0,1.0,13.0,5.0,1650846953823714.0
-76.0,-22.0,-29.0,-40.0,-16.0,-20.0,-43.0,-39.0,1650846953823714.0
28.0,3.0,-13.0,-10.0,-2.0,13.0,39.0,23.0,1650846953825709.0
-22.0,0.0,13.0,59.0,31.0,7.0,-3.0,-5.0,1650846953825709.0
37.0,-18.0,20.0,24.0,1.0,-1.0,2.0,5.0,1650846953846652.0
-10.0,-1.0,-4.0,-31.0,-24.0,-17.0,5.0,9.0,1650846953846652.0
47.0,-4.0,-89.0,-29.0,-10.0,-4.0,-28.0,-23.0,1650846953847650.0
-59.0,-1.0,24.0,9.0,24.0,22.0,35.0,26.0,1650846953847650.0
37.0,-3.0,-37.0,-3.0,-17.0,-13.0,-15.0,-5.0,1650846953868597.0
-48.0,3.0,34.0,5.0,7.0,3.0,-9.0,-8.0,1650846953868597.0
-3.0,-5.0,4.0,-53.0,-14.0,-4.0,9.0,-12.0,1650846953870588.0
33.0,-7.0,-11.0,32.0,-6.0,-6.0,-2.0,17.0,1650846953870588.0
-9.0,1.0,-12.0,4.0,-7.0,-11.0,-23.0,-23.0,1650846953883556.0
7.0,7.0,26.0,10.0,7.0,2.0,-11.0,-14.0,1650846953883556.0
54.0,-2.0,-19.0,-1.0,6.0,5.0,11.0,2.0,1650846953885548.0
-77.0,-13.0,1.0,-31.0,-25.0,-15.0,-3.0,1.0,1650846953885548.0
11.0,9.0,-11.0,-5.0,13.0,22.0,25.0,25.0,1650846953906492.0
1.0,4.0,10.0,-9.0,-15.0,-12.0,-11.0,4.0,1650846953906492.0
5.0,-1.0,18.0,23.0,12.0,5.0,-1.0,-3.0,1650846953907503.0
36.0,2.0,17.0,-7.0,-6.0,-3.0,0.0,10.0,1650846953907503.0
31.0,47.0,-7.0,25.0,14.0,-2.0,-10.0,-22.0,1650846953928433.0
-19.0,-19.0,21.0,-1.0,2.0,13.0,38.0,40.0,1650846953928433.0
-15.0,-6.0,10.0,41.0,33.0,11.0,1.0,4.0,1650846953930428.0
26.0,1.0,-22.0,-45.0,-27.0,-14.0,-30.0,-10.0,1650846953930428.0
-30.0,9.0,20.0,30.0,23.0,19.0,30.0,14.0,1650846953943394.0
-48.0,-29.0,6.0,-16.0,-12.0,-11.0,-19.0,-32.0,1650846953943394.0
26.0,22.0,-16.0,-34.0,-11.0,-2.0,11.0,17.0,1650846953945388.0
-27.0,-10.0,-7.0,9.0,4.0,-4.0,-10.0,-19.0,1650846953945388.0
8.0,16.0,36.0,11.0,13.0,7.0,-23.0,-11.0,1650846953966332.0
60.0,8.0,-55.0,-42.0,-21.0,-4.0,6.0,6.0,1650846953966332.0
-3.0,-8.0,33.0,40.0,23.0,15.0,21.0,23.0,1650846953967330.0
-43.0,6.0,15.0,18.0,9.0,3.0,-10.0,-19.0,1650846953967330.0
27.0,-12.0,-41.0,-34.0,-18.0,-9.0,-4.0,6.0,1650846953988273.0
-33.0,-16.0,-13.0,0.0,-5.0,-9.0,-5.0,0.0,1650846953988273.0
-1.0,13.0,24.0,-18.0,-15.0,-10.0,-13.0,-18.0,1650846953990268.0
18.0,1.0,-1.0,-20.0,-18.0,-4.0,6.0,6.0,1650846953990268.0
5.0,-4.0,-35.0,32.0,28.0,0.0,-10.0,-4.0,1650846954003233.0
20.0,15.0,23.0,-19.0,1.0,7.0,22.0,12.0,1650846954003233.0
-19.0,-12.0,25.0,75.0,15.0,-3.0,-32.0,-19.0,1650846954010215.0
41.0,13.0,2.0,-16.0,0.0,6.0,19.0,12.0,1650846954010215.0
-18.0,-27.0,-9.0,-43.0,-29.0,-14.0,-6.0,-1.0,1650846954026176.0
4.0,16.0,-3.0,3.0,19.0,8.0,29.0,8.0,1650846954026176.0
-44.0,-17.0,-19.0,-8.0,4.0,-3.0,-20.0,-3.0,1650846954028167.0
25.0,11.0,20.0,8.0,-6.0,-2.0,-4.0,-16.0,1650846954028167.0
7.0,-13.0,-31.0,-28.0,-12.0,-6.0,-9.0,1.0,1650846954049110.0
-11.0,1.0,-8.0,29.0,13.0,4.0,7.0,12.0,1650846954049110.0
-32.0,4.0,37.0,-15.0,-18.0,-12.0,-21.0,-30.0,1650846954050109.0
-3.0,1.0,-18.0,-14.0,10.0,5.0,23.0,22.0,1650846954050109.0
40.0,9.0,21.0,40.0,15.0,-1.0,-19.0,-11.0,1650846954063075.0
-35.0,-15.0,-23.0,-8.0,-10.0,0.0,1.0,3.0,1650846954063075.0
-27.0,-8.0,5.0,-2.0,-12.0,-3.0,8.0,-1.0,1650846954070058.0
-7.0,-6.0,-9.0,-17.0,-8.0,-2.0,-17.0,-12.0,1650846954070058.0
-14.0,11.0,13.0,3.0,13.0,9.0,19.0,-1.0,1650846954086016.0
21.0,0.0,6.0,-1.0,-2.0,-10.0,-19.0,-10.0,1650846954086016.0
25.0,10.0,5.0,21.0,7.0,4.0,10.0,14.0,1650846954088007.0
-42.0,-13.0,4.0,1.0,11.0,4.0,-8.0,-5.0,1650846954088007.0
-22.0,-13.0,-38.0,-19.0,-18.0,-12.0,-11.0,-7.0,1650846954109196.0
42.0,-9.0,11.0,18.0,6.0,-3.0,-15.0,-21.0,1650846954109196.0
-20.0,10.0,-28.0,-28.0,-14.0,-3.0,16.0,8.0,1650846954110756.0
-6.0,2.0,-2.0,15.0,8.0,1.0,-10.0,-2.0,1650846954110756.0
-3.0,8.0,15.0,11.0,3.0,3.0,28.0,30.0,1650846954122791.0
-16.0,4.0,-14.0,-33.0,-11.0,-7.0,-21.0,-30.0,1650846954122791.0
-3.0,-26.0,-28.0,-13.0,3.0,-9.0,-33.0,-37.0,1650846954129772.0
-10.0,5.0,14.0,-3.0,0.0,-2.0,-9.0,-5.0,1650846954129772.0
11.0,18.0,10.0,31.0,21.0,18.0,38.0,27.0,1650846954146727.0
35.0,-8.0,0.0,-8.0,-14.0,-12.0,-17.0,3.0,1650846954146727.0
-54.0,-5.0,4.0,-1.0,-6.0,-4.0,-5.0,-21.0,1650846954147657.0
39.0,11.0,11.0,14.0,-3.0,-1.0,-8.0,10.0,1650846954147657.0
-26.0,-18.0,-15.0,-42.0,-18.0,-3.0,-1.0,-6.0,1650846954168605.0
26.0,6.0,-26.0,3.0,4.0,3.0,14.0,14.0,1650846954168605.0
0.0,6.0,25.0,-1.0,-8.0,-7.0,-10.0,-8.0,1650846954170596.0
35.0,-3.0,-18.0,17.0,19.0,11.0,20.0,18.0,1650846954170596.0
-1.0,-10.0,30.0,-8.0,2.0,0.0,-8.0,-11.0,1650846954183577.0
8.0,6.0,24.0,44.0,0.0,-3.0,-9.0,13.0,1650846954183577.0
-56.0,-11.0,-6.0,-24.0,-8.0,1.0,2.0,-21.0,1650846954189614.0
-26.0,-16.0,-18.0,-25.0,-15.0,-6.0,14.0,6.0,1650846954189614.0
10.0,3.0,-39.0,-24.0,-18.0,-8.0,-12.0,-3.0,1650846954206566.0
-11.0,0.0,29.0,58.0,38.0,18.0,10.0,4.0,1650846954206566.0
55.0,3.0,0.0,-23.0,-7.0,-2.0,2.0,17.0,1650846954207497.0
23.0,9.0,46.0,19.0,0.0,3.0,-12.0,-2.0,1650846954207497.0
-25.0,7.0,-17.0,7.0,2.0,0.0,6.0,8.0,1650846954229247.0
-6.0,-17.0,-34.0,-67.0,-32.0,-8.0,-6.0,-19.0,1650846954229247.0
40.0,16.0,28.0,70.0,37.0,18.0,0.0,16.0,1650846954230757.0
-45.0,-3.0,4.0,-14.0,-10.0,-6.0,21.0,6.0,1650846954230757.0
-22.0,-20.0,-6.0,-10.0,-7.0,-2.0,-8.0,-12.0,1650846954242793.0
32.0,22.0,27.0,23.0,9.0,3.0,-21.0,-14.0,1650846954242793.0
18.0,-6.0,-24.0,-6.0,-1.0,2.0,34.0,28.0,1650846954249709.0
-31.0,-3.0,4.0,-8.0,-4.0,-2.0,-16.0,-20.0,1650846954249709.0
12.0,11.0,-24.0,28.0,21.0,7.0,-13.0,-1.0,1650846954266665.0
19.0,-11.0,13.0,-9.0,3.0,6.0,15.0,13.0,1650846954266665.0
3.0,1.0,-15.0,-6.0,-13.0,-10.0,-5.0,0.0,1650846954267658.0
43.0,2.0,-3.0,-28.0,-10.0,-3.0,-3.0,6.0,1650846954267658.0
-25.0,4.0,30.0,8.0,-10.0,-2.0,13.0,3.0,1650846954288603.0
-40.0,-21.0,-23.0,20.0,18.0,1.0,-3.0,-8.0,1650846954288603.0
-26.0,-10.0,11.0,18.0,2.0,-8.0,-29.0,-22.0,1650846954290597.0
-3.0,-4.0,-26.0,-20.0,-14.0,-6.0,2.0,1.0,1650846954290597.0
17.0,-4.0,12.0,8.0,-3.0,1.0,32.0,19.0,1650846954303606.0
-42.0,1.0,-5.0,-20.0,-12.0,0.0,-15.0,-13.0,1650846954303606.0
19.0,-2.0,13.0,5.0,8.0,7.0,39.0,23.0,1650846954309614.0
-10.0,0.0,-23.0,-22.0,-10.0,-10.0,-15.0,-14.0,1650846954309614.0
-5.0,1.0,32.0,54.0,18.0,6.0,-22.0,-9.0,1650846954326564.0
9.0,12.0,10.0,-12.0,-11.0,-6.0,26.0,18.0,1650846954326564.0
-21.0,-41.0,-42.0,-1.0,-7.0,-6.0,-9.0,-19.0,1650846954327499.0
36.0,26.0,22.0,23.0,9.0,8.0,8.0,13.0,1650846954327499.0
9.0,9.0,-9.0,-44.0,-16.0,-8.0,6.0,6.0,1650846954348442.0
-31.0,-8.0,-2.0,7.0,-3.0,-8.0,-18.0,-15.0,1650846954348442.0
-6.0,12.0,2.0,1.0,6.0,3.0,-1.0,3.0,1650846954350438.0
26.0,-9.0,-3.0,2.0,-3.0,1.0,-2.0,7.0,1650846954350438.0
3.0,-5.0,-14.0,-32.0,-10.0,-10.0,-19.0,-31.0,1650846954362433.0
22.0,18.0,12.0,8.0,5.0,8.0,11.0,15.0,1650846954362433.0
-31.0,4.0,-14.0,-3.0,2.0,-3.0,-1.0,1.0,1650846954371396.0
13.0,-9.0,-11.0,-14.0,-5.0,-4.0,-3.0,0.0,1650846954371396.0
-7.0,-14.0,21.0,41.0,32.0,11.0,-9.0,-9.0,1650846954386408.0
2.0,1.0,-5.0,-21.0,-12.0,-6.0,-8.0,-4.0,1650846954386408.0
33.0,34.0,16.0,-21.0,-12.0,3.0,-3.0,12.0,1650846954388336.0
-29.0,-14.0,-21.0,19.0,7.0,6.0,22.0,-8.0,1650846954388336.0
39.0,-11.0,9.0,-1.0,-8.0,-7.0,-5.0,5.0,1650846954408283.0
-2.0,3.0,-32.0,-26.0,-12.0,-7.0,-9.0,3.0,1650846954408283.0
3.0,-2.0,25.0,0.0,9.0,5.0,-1.0,-8.0,1650846954410277.0
43.0,28.0,3.0,-13.0,-11.0,-4.0,11.0,21.0,1650846954410277.0
-29.0,-10.0,1.0,8.0,16.0,4.0,-14.0,-13.0,1650846954423323.0
-12.0,-2.0,3.0,5.0,3.0,1.0,-2.0,-10.0,1650846954423323.0
-1.0,22.0,31.0,37.0,7.0,5.0,-4.0,12.0,1650846954431222.0
13.0,-17.0,2.0,32.0,25.0,11.0,6.0,-3.0,1650846954431222.0
-46.0,11.0,-1.0,-17.0,-19.0,-7.0,2.0,-1.0,1650846954446298.0
-15.0,-27.0,-8.0,-12.0,-11.0,-12.0,-24.0,-18.0,1650846954446298.0
21.0,16.0,-13.0,-16.0,-3.0,5.0,15.0,6.0,1650846954448286.0
-91.0,-33.0,-8.0,22.0,9.0,-1.0,-7.0,-22.0,1650846954448286.0
35.0,17.0,-15.0,-9.0,-15.0,-8.0,-12.0,5.0,1650846954469224.0
14.0,-3.0,0.0,-7.0,10.0,10.0,25.0,4.0,1650846954469224.0
-5.0,-3.0,10.0,-6.0,-9.0,-9.0,-22.0,-12.0,1650846954470213.0
-24.0,-1.0,-20.0,17.0,0.0,-4.0,9.0,-4.0,1650846954470213.0
17.0,-3.0,-11.0,-19.0,-5.0,2.0,-7.0,6.0,1650846954482174.0
9.0,3.0,14.0,11.0,-12.0,-8.0,-10.0,3.0,1650846954482174.0
-28.0,-18.0,-25.0,-5.0,15.0,19.0,20.0,-8.0,1650846954491151.0
-9.0,2.0,11.0,11.0,-3.0,-3.0,-21.0,-13.0,1650846954491151.0
-29.0,2.0,6.0,-18.0,-9.0,-10.0,-6.0,-8.0,1650846954506138.0
-5.0,2.0,17.0,15.0,4.0,14.0,6.0,4.0,1650846954506138.0
3.0,14.0,-6.0,-11.0,2.0,-7.0,2.0,22.0,1650846954508132.0
7.0,-3.0,2.0,-3.0,-10.0,-3.0,-5.0,-8.0,1650846954508132.0
0.0,0.0,7.0,41.0,23.0,10.0,12.0,-4.0,1650846954529049.0
4.0,-16.0,-1.0,-15.0,-3.0,-3.0,-8.0,6.0,1650846954529049.0
52.0,20.0,10.0,0.0,-4.0,0.0,8.0,9.0,1650846954530047.0
-43.0,-25.0,-22.0,-53.0,-9.0,-6.0,-27.0,-30.0,1650846954530047.0
-16.0,-2.0,14.0,4.0,-8.0,-5.0,6.0,7.0,1650846954542014.0
-5.0,7.0,6.0,7.0,0.0,-4.0,9.0,2.0,1650846954542014.0
16.0,-12.0,-27.0,-7.0,3.0,0.0,-14.0,-3.0,1650846954551009.0
2.0,0.0,14.0,-8.0,-13.0,-9.0,-1.0,3.0,1650846954551009.0
9.0,16.0,18.0,1.0,-2.0,1.0,5.0,5.0,1650846954565950.0
0.0,-9.0,-24.0,45.0,27.0,10.0,13.0,9.0,1650846954565950.0
-7.0,-5.0,58.0,42.0,-2.0,-2.0,19.0,0.0,1650846954567946.0
47.0,12.0,-26.0,-24.0,-9.0,-4.0,5.0,12.0,1650846954567946.0
-7.0,-2.0,-2.0,-6.0,9.0,3.0,-5.0,-15.0,1650846954589062.0
41.0,27.0,-1.0,-14.0,-8.0,-1.0,10.0,28.0,1650846954589062.0
-51.0,-37.0,-12.0,5.0,-3.0,-11.0,-3.0,-18.0,1650846954590060.0
-5.0,1.0,3.0,5.0,0.0,-6.0,-29.0,-14.0,1650846954590060.0
49.0,5.0,8.0,16.0,25.0,27.0,54.0,46.0,1650846954602896.0
-29.0,6.0,-20.0,-29.0,-27.0,-13.0,-4.0,-8.0,1650846954602896.0
8.0,-11.0,18.0,-11.0,-1.0,0.0,-4.0,-3.0,1650846954611757.0
3.0,-1.0,-51.0,5.0,1.0,-4.0,-13.0,-8.0,1650846954611757.0
0.0,-4.0,0.0,-12.0,0.0,6.0,-19.0,-5.0,1650846954625813.0
25.0,11.0,-8.0,-13.0,-1.0,6.0,35.0,11.0,1650846954625813.0
6.0,-12.0,-9.0,-21.0,-10.0,-8.0,-22.0,-10.0,1650846954627807.0
-57.0,11.0,18.0,18.0,1.0,5.0,8.0,0.0,1650846954627807.0
12.0,-12.0,-11.0,-13.0,-4.0,-14.0,-14.0,-5.0,1650846954647754.0
-10.0,7.0,15.0,-18.0,-2.0,0.0,-8.0,-23.0,1650846954647754.0
17.0,-14.0,-4.0,30.0,13.0,6.0,3.0,10.0,1650846954656730.0
54.0,17.0,-7.0,-13.0,-6.0,-2.0,14.0,24.0,1650846954656730.0
-7.0,-8.0,-5.0,28.0,8.0,3.0,-7.0,-8.0,1650846954662714.0
-27.0,11.0,17.0,-31.0,-10.0,-4.0,-17.0,-14.0,1650846954662714.0
1.0,2.0,1.0,12.0,0.0,0.0,2.0,4.0,1650846954671691.0
20.0,-15.0,-2.0,6.0,10.0,13.0,16.0,4.0,1650846954671691.0
9.0,27.0,26.0,-13.0,-8.0,-6.0,-10.0,-4.0,1650846954686726.0
0.0,-19.0,-20.0,8.0,-2.0,-7.0,1.0,2.0,1650846954686726.0
-1.0,17.0,-7.0,-15.0,-5.0,0.0,-1.0,2.0,1650846954687648.0
8.0,-4.0,-1.0,12.0,5.0,1.0,-1.0,7.0,1650846954687648.0
-7.0,-2.0,1.0,-5.0,-13.0,-6.0,1.0,-3.0,1650846954708619.0
-7.0,-5.0,2.0,8.0,1.0,-1.0,-6.0,-3.0,1650846954708619.0
-9.0,-7.0,-28.0,-6.0,-3.0,-2.0,-1.0,-5.0,1650846954710587.0
-11.0,4.0,29.0,9.0,4.0,-21.0,-16.0,8.0,1650846954710587.0
24.0,23.0,26.0,1.0,3.0,37.0,26.0,-34.0,1650846954722583.0
45.0,-10.0,-30.0,2.0,8.0,20.0,22.0,70.0,1650846954722583.0
-11.0,2.0,21.0,0.0,-4.0,-7.0,-7.0,-14.0,1650846954731541.0
-11.0,4.0,1.0,-5.0,0.0,-3.0,-5.0,-6.0,1650846954731541.0
8.0,-9.0,-15.0,-1.0,-5.0,-16.0,-19.0,-14.0,1650846954746517.0
-5.0,-5.0,18.0,22.0,8.0,-4.0,-4.0,-4.0,1650846954746517.0
-6.0,8.0,-2.0,-1.0,-1.0,-2.0,-4.0,-13.0,1650846954747488.0
6.0,13.0,25.0,20.0,8.0,6.0,-2.0,17.0,1650846954747488.0
-15.0,-50.0,-69.0,-28.0,-6.0,6.0,11.0,-6.0,1650846954769045.0
-11.0,17.0,33.0,4.0,-3.0,-9.0,-11.0,-18.0,1650846954769045.0
5.0,-4.0,-12.0,-6.0,-5.0,-6.0,0.0,12.0,1650846954770008.0
-5.0,7.0,9.0,2.0,3.0,1.0,1.0,-4.0,1650846954770008.0
-9.0,-20.0,-12.0,-2.0,-4.0,-2.0,4.0,17.0,1650846954791891.0
-7.0,-8.0,0.0,2.0,4.0,-1.0,-5.0,-11.0,1650846954791891.0
6.0,5.0,-17.0,-4.0,2.0,3.0,-4.0,-5.0,1650846954793818.0
0.0,-1.0,42.0,19.0,4.0,6.0,9.0,0.0,1650846954793818.0
-14.0,3.0,21.0,-1.0,-2.0,-1.0,0.0,9.0,1650846954805854.0
16.0,13.0,-36.0,-5.0,-5.0,-11.0,-11.0,-6.0,1650846954805854.0
-19.0,-6.0,-2.0,-13.0,-11.0,-15.0,-11.0,-7.0,1650846954812793.0
15.0,2.0,10.0,7.0,4.0,-10.0,-17.0,-8.0,1650846954812793.0
5.0,9.0,32.0,24.0,14.0,57.0,57.0,21.0,1650846954828750.0
20.0,-21.0,-22.0,-15.0,-4.0,-6.0,8.0,57.0,1650846954828750.0
-25.0,6.0,-48.0,-35.0,-9.0,-2.0,-5.0,-35.0,1650846954830738.0
0.0,-14.0,14.0,44.0,8.0,5.0,9.0,9.0,1650846954830738.0
-2.0,15.0,-28.0,-45.0,-23.0,-46.0,-52.0,-57.0,1650846954851661.0
-3.0,9.0,60.0,46.0,11.0,8.0,2.0,1.0,1650846954851661.0
9.0,18.0,-10.0,-43.0,-11.0,1.0,11.0,24.0,1650846954852660.0
6.0,16.0,18.0,13.0,5.0,0.0,-2.0,-6.0,1650846954852660.0
-14.0,-16.0,8.0,24.0,1.0,-11.0,-4.0,18.0,1650846954865624.0
-10.0,3.0,-6.0,-10.0,1.0,7.0,1.0,-26.0,1650846954865624.0
9.0,-5.0,-15.0,0.0,2.0,-2.0,-1.0,5.0,1650846954872673.0
3.0,20.0,-11.0,-15.0,0.0,11.0,10.0,-5.0,1650846954872673.0
-13.0,-6.0,15.0,31.0,2.0,-5.0,0.0,9.0,1650846954888676.0
-13.0,-49.0,-82.0,-61.0,-16.0,-11.0,-9.0,-9.0,1650846954888676.0
7.0,37.0,82.0,15.0,2.0,6.0,6.0,19.0,1650846954890667.0
-10.0,-17.0,18.0,30.0,3.0,6.0,4.0,-19.0,1650846954890667.0
-2.0,-21.0,-53.0,-32.0,-13.0,-16.0,-11.0,4.0,1650846954911616.0
2.0,40.0,41.0,32.0,6.0,-5.0,-8.0,-16.0,1650846954911616.0
-7.0,-52.0,-74.0,-33.0,-2.0,10.0,11.0,17.0,1650846954912584.0
-6.0,-8.0,-17.0,-26.0,2.0,9.0,4.0,-19.0,1650846954912584.0
19.0,13.0,19.0,17.0,-1.0,-11.0,-5.0,29.0,1650846954925111.0
-18.0,31.0,101.0,21.0,-3.0,-5.0,-7.0,-25.0,1650846954925111.0
19.0,9.0,-40.0,-5.0,3.0,8.0,1.0,3.0,1650846954932093.0
-18.0,-35.0,-41.0,-7.0,-2.0,0.0,2.0,-3.0,1650846954932093.0
-2.0,-24.0,-46.0,-23.0,-14.0,-13.0,-8.0,-9.0,1650846954949075.0
-2.0,2.0,29.0,13.0,5.0,5.0,3.0,13.0,1650846954949075.0
5.0,15.0,45.0,27.0,4.0,-2.0,2.0,-12.0,1650846954950045.0
3.0,-9.0,-30.0,-30.0,-7.0,-2.0,-2.0,7.0,1650846954950045.0
0.0,32.0,38.0,7.0,5.0,4.0,7.0,16.0,1650846954971059.0
-9.0,-49.0,-51.0,0.0,-1.0,0.0,2.0,-15.0,1650846954971059.0
-9.0,9.0,0.0,2.0,1.0,-2.0,-7.0,-18.0,1650846954973011.0
7.0,14.0,0.0,-7.0,-5.0,-5.0,-5.0,4.0,1650846954973011.0
1.0,-3.0,23.0,2.0,3.0,4.0,7.0,4.0,1650846954986018.0
-2.0,0.0,-44.0,-20.0,-4.0,-2.0,-2.0,1.0,1650846954986018.0
7.0,-2.0,33.0,13.0,2.0,-1.0,0.0,4.0,1650846954991960.0
-14.0,-9.0,-28.0,4.0,-5.0,-6.0,-6.0,-2.0,1650846954991960.0
6.0,-10.0,-19.0,-25.0,-4.0,-4.0,0.0,8.0,1650846955008887.0
2.0,-18.0,-5.0,-2.0,0.0,1.0,-5.0,-17.0,1650846955008887.0
2.0,35.0,48.0,25.0,4.0,7.0,13.0,32.0,1650846955009885.0
4.0,-13.0,-34.0,-7.0,0.0,2.0,0.0,-10.0,1650846955009885.0
5.0,10.0,-28.0,-19.0,-4.0,-3.0,1.0,3.0,1650846955030856.0
7.0,21.0,39.0,12.0,8.0,1.0,-5.0,-3.0,1650846955030856.0
-2.0,14.0,17.0,30.0,8.0,6.0,0.0,-19.0,1650846955032828.0
-9.0,-41.0,-38.0,-28.0,-13.0,-9.0,-2.0,11.0,1650846955032828.0
-4.0,9.0,4.0,27.0,5.0,-2.0,2.0,-12.0,1650846955044819.0
19.0,25.0,-29.0,-26.0,2.0,7.0,7.0,15.0,1650846955044819.0
2.0,-9.0,2.0,9.0,1.0,0.0,3.0,-18.0,1650846955053778.0
-8.0,16.0,12.0,-9.0,-6.0,-2.0,-1.0,13.0,1650846955053778.0
-10.0,-25.0,-9.0,-1.0,2.0,0.0,-4.0,-17.0,1650846955068728.0
3.0,28.0,53.0,31.0,3.0,3.0,0.0,-2.0,1650846955068728.0
-10.0,-23.0,-25.0,-8.0,-3.0,-2.0,4.0,36.0,1650846955070749.0
-2.0,-18.0,-11.0,1.0,7.0,4.0,-12.0,-59.0,1650846955070749.0
5.0,-11.0,-9.0,2.0,0.0,2.0,6.0,18.0,1650846955091666.0
-5.0,5.0,19.0,7.0,5.0,0.0,-7.0,-23.0,1650846955091666.0
7.0,-10.0,-5.0,-3.0,0.0,-2.0,5.0,19.0,1650846955092664.0
-1.0,-5.0,-42.0,-39.0,-6.0,2.0,9.0,19.0,1650846955092664.0
13.0,42.0,52.0,29.0,3.0,1.0,-8.0,-4.0,1650846955104821.0
-16.0,-47.0,-29.0,8.0,-4.0,-7.0,-6.0,-9.0,1650846955104821.0
-10.0,-46.0,-104.0,-38.0,-13.0,-7.0,-5.0,5.0,1650846955113730.0
1.0,24.0,38.0,0.0,-1.0,1.0,2.0,-6.0,1650846955113730.0
14.0,-18.0,-3.0,-3.0,2.0,-2.0,-5.0,-6.0,1650846955129003.0
-18.0,48.0,6.0,-5.0,-2.0,1.0,-5.0,-25.0,1650846955129003.0
4.0,-14.0,35.0,41.0,4.0,-1.0,-2.0,7.0,1650846955130012.0
13.0,49.0,9.0,-15.0,-3.0,2.0,7.0,27.0,1650846955130012.0
-16.0,-8.0,21.0,-3.0,-4.0,2.0,1.0,-12.0,1650846955150946.0
5.0,-16.0,-9.0,1.0,0.0,-3.0,-5.0,-8.0,1650846955150946.0
-8.0,14.0,11.0,-8.0,-1.0,-2.0,-7.0,-11.0,1650846955152940.0
2.0,-14.0,34.0,18.0,7.0,3.0,-1.0,1.0,1650846955152940.0
5.0,46.0,-27.0,6.0,-1.0,-2.0,-1.0,6.0,1650846955165932.0
-21.0,-36.0,-49.0,-26.0,-5.0,0.0,2.0,3.0,1650846955165932.0
8.0,10.0,11.0,0.0,-2.0,2.0,-2.0,-6.0,1650846955172934.0
1.0,-41.0,42.0,9.0,-3.0,-7.0,-2.0,10.0,1650846955172934.0
11.0,2.0,-18.0,-16.0,-4.0,-2.0,7.0,15.0,1650846955188926.0
4.0,-3.0,-8.0,-2.0,-3.0,0.0,-3.0,-11.0,1650846955188926.0
-6.0,-2.0,-12.0,-1.0,-4.0,-6.0,-6.0,-7.0,1650846955189926.0
-2.0,14.0,-1.0,5.0,-1.0,-3.0,-2.0,-14.0,1650846955189926.0
9.0,2.0,1.0,-14.0,1.0,4.0,-3.0,7.0,1650846955210869.0
-7.0,-41.0,-17.0,9.0,-2.0,-7.0,0.0,17.0,1650846955210869.0
-1.0,6.0,-3.0,-15.0,-3.0,0.0,7.0,8.0,1650846955212864.0
8.0,6.0,-6.0,-4.0,1.0,1.0,-13.0,-32.0,1650846955212864.0
-5.0,1.0,-5.0,-2.0,1.0,0.0,0.0,-1.0,1650846955225339.0
4.0,11.0,-42.0,8.0,4.0,3.0,5.0,9.0,1650846955225339.0
-6.0,0.0,43.0,11.0,2.0,0.0,2.0,0.0,1650846955232352.0
-6.0,3.0,-16.0,-9.0,-7.0,-4.0,2.0,9.0,1650846955232352.0
-4.0,0.0,-5.0,12.0,6.0,3.0,-2.0,-11.0,1650846955248304.0
-2.0,-12.0,-1.0,-13.0,-3.0,1.0,6.0,13.0,1650846955248304.0
7.0,8.0,13.0,7.0,0.0,1.0,-2.0,-8.0,1650846955250273.0
1.0,-21.0,-54.0,-10.0,1.0,2.0,8.0,13.0,1650846955250273.0
-7.0,38.0,97.0,17.0,-1.0,-3.0,-13.0,-24.0,1650846955270286.0
3.0,-6.0,-26.0,-14.0,-7.0,-2.0,4.0,20.0,1650846955270286.0
-2.0,-14.0,-17.0,5.0,3.0,2.0,-7.0,-14.0,1650846955279223.0
-1.0,24.0,29.0,10.0,4.0,3.0,6.0,17.0,1650846955279223.0
-9.0,-24.0,-27.0,-17.0,-5.0,-3.0,2.0,0.0,1650846955285212.0
3.0,16.0,21.0,10.0,4.0,-2.0,-2.0,-9.0,1650846955285212.0
4.0,0.0,13.0,9.0,-1.0,-1.0,6.0,14.0,1650846955294156.0
0.0,1.0,13.0,8.0,4.0,-1.0,4.0,22.0,1650846955294156.0
-3.0,18.0,-34.0,-5.0,-1.0,-2.0,-1.0,-14.0,1650846955309145.0
4.0,-12.0,6.0,0.0,0.0,3.0,6.0,7.0,1650846955309145.0
-4.0,-9.0,-17.0,-6.0,1.0,2.0,-4.0,-14.0,1650846955310122.0
-3.0,10.0,11.0,2.0,0.0,-2.0,0.0,6.0,1650846955310122.0
-2.0,-16.0,-4.0,-5.0,-1.0,0.0,4.0,8.0,1650846955331125.0
1.0,-2.0,15.0,8.0,-1.0,1.0,-3.0,-3.0,1650846955331125.0
1.0,3.0,-42.0,1.0,4.0,0.0,4.0,4.0,1650846955333121.0
0.0,-8.0,25.0,6.0,-5.0,-2.0,-4.0,-1.0,1650846955333121.0
-5.0,-11.0,-16.0,-3.0,1.0,0.0,-8.0,-10.0,1650846955345119.0
-2.0,-9.0,-24.0,-15.0,-3.0,0.0,3.0,0.0,1650846955345119.0
6.0,24.0,33.0,5.0,-3.0,-5.0,-4.0,-5.0,1650846955354074.0
-5.0,-3.0,9.0,4.0,-2.0,0.0,-6.0,-9.0,1650846955354074.0
-4.0,-7.0,-23.0,-9.0,-3.0,0.0,-4.0,-22.0,1650846955369335.0
2.0,6.0,15.0,3.0,3.0,2.0,3.0,9.0,1650846955369335.0
-3.0,2.0,7.0,-7.0,-1.0,-3.0,-2.0,-4.0,1650846955370332.0
-1.0,5.0,16.0,-3.0,-5.0,-5.0,-1.0,-7.0,1650846955370332.0
2.0,-4.0,-31.0,-1.0,1.0,-1.0,6.0,17.0,1650846955390903.0
-2.0,-26.0,-10.0,-2.0,-2.0,-4.0,-2.0,-7.0,1650846955390903.0
-2.0,-10.0,-5.0,-7.0,0.0,0.0,-2.0,-9.0,1650846955392836.0
6.0,13.0,-11.0,-4.0,0.0,1.0,-2.0,-10.0,1650846955392836.0
3.0,-13.0,13.0,3.0,-3.0,-2.0,-2.0,45.0,1650846955404870.0
-2.0,17.0,-1.0,1.0,-1.0,-3.0,-2.0,-8.0,1650846955404870.0
-5.0,-15.0,-41.0,-6.0,-3.0,-3.0,-3.0,-5.0,1650846955413779.0
-1.0,-3.0,3.0,-3.0,0.0,0.0,3.0,3.0,1650846955413779.0
-3.0,-6.0,12.0,0.0,-1.0,2.0,1.0,-1.0,1650846955428772.0
2.0,22.0,-2.0,-3.0,-4.0,-4.0,-15.0,-30.0,1650846955428772.0
1.0,4.0,15.0,0.0,2.0,2.0,1.0,8.0,1650846955430754.0
0.0,6.0,-10.0,0.0,0.0,0.0,0.0,-2.0,1650846955430754.0
2.0,-6.0,1.0,6.0,1.0,-2.0,-5.0,-8.0,1650846955451678.0
0.0,-2.0,7.0,-8.0,-3.0,1.0,4.0,11.0,1650846955451678.0
-10.0,-9.0,1.0,3.0,1.0,-1.0,0.0,-5.0,1650846955452676.0
0.0,-7.0,-11.0,-6.0,-1.0,0.0,-3.0,-2.0,1650846955452676.0
4.0,7.0,-2.0,-1.0,0.0,0.0,2.0,-13.0,1650846955464642.0
10.0,23.0,17.0,7.0,3.0,0.0,10.0,34.0,1650846955464642.0
5.0,8.0,15.0,0.0,-4.0,-2.0,-4.0,-2.0,1650846955473619.0
1.0,1.0,-14.0,1.0,3.0,5.0,4.0,4.0,1650846955473619.0
0.0,-2.0,12.0,1.0,-1.0,-1.0,0.0,2.0,1650846955496585.0
-2.0,-3.0,-10.0,-7.0,-4.0,-1.0,0.0,-3.0,1650846955496585.0
-1.0,-8.0,-4.0,4.0,2.0,-2.0,-3.0,-7.0,1650846955497555.0
4.0,13.0,18.0,4.0,-5.0,-5.0,-1.0,9.0,1650846955497555.0
-5.0,-8.0,-4.0,4.0,6.0,1.0,0.0,-4.0,1650846955510895.0
-3.0,-6.0,0.0,-5.0,-1.0,1.0,1.0,0.0,1650846955510895.0
-1.0,-4.0,4.0,-1.0,-1.0,-1.0,-1.0,3.0,1650846955512834.0
0.0,19.0,-25.0,-2.0,-2.0,0.0,0.0,-2.0,1650846955512834.0
-1.0,-15.0,9.0,4.0,-4.0,-3.0,2.0,-1.0,1650846955524854.0
-2.0,11.0,-1.0,-4.0,1.0,3.0,1.0,-2.0,1650846955524854.0
0.0,-26.0,14.0,-2.0,1.0,-1.0,0.0,0.0,1650846955533766.0
1.0,-2.0,-20.0,-6.0,-2.0,-2.0,0.0,2.0,1650846955533766.0
-1.0,6.0,-1.0,1.0,0.0,0.0,-2.0,-6.0,1650846955548756.0
-1.0,3.0,12.0,3.0,1.0,-2.0,-5.0,0.0,1650846955548756.0
1.0,6.0,-2.0,-5.0,-5.0,-1.0,-1.0,-2.0,1650846955554740.0
-4.0,-9.0,5.0,1.0,0.0,1.0,-2.0,-4.0,1650846955554740.0
0.0,-3.0,-2.0,0.0,0.0,-1.0,0.0,3.0,1650846955572663.0
-2.0,0.0,11.0,6.0,0.0,0.0,-1.0,-7.0,1650846955572663.0
-1.0,5.0,-9.0,-6.0,-5.0,-1.0,-2.0,-1.0,1650846955574657.0
2.0,-3.0,8.0,6.0,4.0,1.0,3.0,2.0,1650846955574657.0
-2.0,3.0,-1.0,-5.0,-1.0,1.0,-2.0,2.0,1650846955584629.0
-2.0,-4.0,-5.0,2.0,0.0,0.0,1.0,-2.0,1650846955584629.0
-3.0,2.0,1.0,-1.0,-2.0,-2.0,-1.0,0.0,1650846955601703.0
0.0,-6.0,-2.0,-2.0,-1.0,-1.0,0.0,-2.0,1650846955601703.0
0.0,-7.0,6.0,3.0,2.0,0.0,0.0,2.0,1650846955608683.0
0.0,0.0,-2.0,-3.0,1.0,-1.0,-2.0,-1.0,1650846955608683.0
-1.0,3.0,4.0,8.0,0.0,0.0,0.0,0.0,1650846955610698.0
-1.0,-5.0,3.0,0.0,-1.0,-3.0,-2.0,-1.0,1650846955610698.0
0.0,3.0,-5.0,0.0,3.0,2.0,0.0,1.0,1650846955631323.0
-3.0,-14.0,-2.0,-1.0,-9.0,-1.0,1.0,-4.0,1650846955631323.0
3.0,18.0,-1.0,2.0,11.0,2.0,1.0,0.0,1650846955633290.0
-1.0,-7.0,-8.0,-9.0,-6.0,-1.0,-2.0,0.0,1650846955633290.0
-2.0,1.0,-4.0,-33.0,-19.0,-5.0,0.0,-3.0,1650846955645285.0
3.0,1.0,9.0,48.0,45.0,16.0,5.0,2.0,1650846955645285.0
-1.0,-6.0,-9.0,-14.0,-12.0,-5.0,-2.0,-2.0,1650846955654233.0
-1.0,0.0,10.0,18.0,8.0,1.0,-1.0,-3.0,1650846955654233.0
-2.0,-2.0,-11.0,-12.0,-6.0,-3.0,-4.0,-1.0,1650846955669215.0
-3.0,-4.0,-2.0,-16.0,-16.0,-8.0,1.0,-1.0,1650846955669215.0
1.0,-1.0,0.0,2.0,5.0,1.0,-2.0,1.0,1650846955670191.0
-3.0,-1.0,2.0,-2.0,8.0,3.0,1.0,0.0,1650846955670191.0
0.0,4.0,3.0,10.0,1.0,-2.0,-3.0,-1.0,1650846955691155.0
-3.0,-1.0,-4.0,-9.0,-5.0,-2.0,-4.0,-3.0,1650846955691155.0
-2.0,-4.0,-1.0,10.0,0.0,0.0,1.0,0.0,1650846955693129.0
-2.0,-4.0,-5.0,-15.0,-11.0,-3.0,-3.0,-1.0,1650846955693129.0
0.0,1.0,2.0,9.0,2.0,-2.0,-2.0,-2.0,1650846955714080.0
0.0,1.0,2.0,-8.0,-8.0,-3.0,-2.0,1.0,1650846955714080.0
2.0,0.0,1.0,-7.0,2.0,4.0,7.0,2.0,1650846955716070.0
1.0,-2.0,-2.0,1.0,0.0,-1.0,4.0,0.0,1650846955716070.0
-1.0,-1.0,0.0,7.0,1.0,-4.0,-5.0,0.0,1650846955729035.0
-1.0,-3.0,-6.0,-4.0,-4.0,-4.0,-4.0,0.0,1650846955729035.0
-1.0,3.0,5.0,-7.0,-5.0,-4.0,-2.0,-3.0,1650846955730032.0
1.0,0.0,-2.0,-5.0,-4.0,-1.0,-5.0,-1.0,1650846955730032.0
0.0,1.0,8.0,36.0,12.0,3.0,7.0,1.0,1650846955751190.0
2.0,-2.0,-2.0,-11.0,-9.0,-4.0,-8.0,-1.0,1650846955751190.0
-3.0,-3.0,-6.0,-5.0,-2.0,4.0,-1.0,-1.0,1650846955753124.0
3.0,1.0,1.0,5.0,1.0,0.0,10.0,5.0,1650846955753124.0
-5.0,-4.0,-3.0,-14.0,-7.0,-5.0,-6.0,-1.0,1650846955774033.0
3.0,2.0,4.0,6.0,2.0,5.0,21.0,6.0,1650846955774033.0
-2.0,-5.0,0.0,3.0,2.0,2.0,-4.0,-1.0,1650846955775020.0
0.0,0.0,-4.0,-5.0,-2.0,-6.0,-12.0,-5.0,1650846955775020.0
2.0,3.0,2.0,-1.0,-4.0,1.0,0.0,-1.0,1650846955789068.0
0.0,0.0,0.0,1.0,1.0,0.0,-5.0,2.0,1650846955789068.0
0.0,-1.0,-2.0,-3.0,2.0,-3.0,3.0,0.0,1650846955790082.0
-6.0,-3.0,3.0,1.0,-4.0,-7.0,-9.0,-5.0,1650846955790082.0
4.0,2.0,0.0,2.0,5.0,8.0,6.0,4.0,1650846955811189.0
-3.0,-3.0,-1.0,-3.0,-3.0,-6.0,-4.0,0.0,1650846955811189.0
1.0,-1.0,1.0,1.0,0.0,1.0,4.0,1.0,1650846955813184.0
1.0,4.0,4.0,0.0,1.0,6.0,-1.0,1.0,1650846955813184.0
0.0,-3.0,-6.0,-7.0,1.0,-1.0,3.0,0.0,1650846955833982.0
-1.0,-1.0,1.0,2.0,1.0,-1.0,-1.0,-2.0,1650846955833982.0
-1.0,-2.0,-1.0,3.0,-3.0,-6.0,-4.0,-4.0,1650846955834960.0
-8.0,-9.0,-5.0,-1.0,-4.0,-3.0,-12.0,-5.0,1650846955834960.0
0.0,5.0,-3.0,-9.0,0.0,-1.0,5.0,2.0,1650846955847953.0
-1.0,3.0,4.0,2.0,-2.0,0.0,-7.0,-3.0,1650846955847953.0
6.0,4.0,-1.0,1.0,5.0,4.0,7.0,6.0,1650846955854975.0
-2.0,0.0,3.0,5.0,-1.0,-2.0,19.0,0.0,1650846955854975.0
-1.0,-5.0,-8.0,-5.0,0.0,2.0,-12.0,-3.0,1650846955870934.0
-8.0,-5.0,-5.0,-7.0,-9.0,-15.0,-13.0,-9.0,1650846955870934.0
4.0,6.0,1.0,3.0,1.0,1.0,-7.0,-2.0,1650846955872860.0
-3.0,-4.0,3.0,5.0,2.0,-2.0,-1.0,2.0,1650846955872860.0
3.0,-2.0,-10.0,-8.0,-4.0,0.0,3.0,4.0,1650846955893841.0
-7.0,-7.0,-1.0,-3.0,3.0,1.0,0.0,-2.0,1650846955893841.0
7.0,4.0,6.0,12.0,4.0,-3.0,-11.0,-6.0,1650846955895837.0
-8.0,0.0,-8.0,-7.0,1.0,12.0,14.0,6.0,1650846955895837.0
4.0,0.0,-1.0,-2.0,0.0,-2.0,4.0,4.0,1650846955908571.0
-7.0,-3.0,-5.0,-2.0,-1.0,0.0,-4.0,-3.0,1650846955908571.0
-2.0,-2.0,-3.0,-2.0,-3.0,1.0,0.0,-4.0,1650846955914846.0
6.0,6.0,6.0,4.0,0.0,-2.0,4.0,3.0,1650846955914846.0
-6.0,-2.0,2.0,3.0,1.0,0.0,-5.0,-6.0,1650846955930786.0
7.0,-2.0,7.0,4.0,1.0,2.0,2.0,5.0,1650846955930786.0
-4.0,-3.0,-5.0,-4.0,0.0,5.0,9.0,3.0,1650846955938698.0
-2.0,-2.0,-1.0,-4.0,-9.0,-14.0,-15.0,-7.0,1650846955938698.0
-7.0,-6.0,-5.0,-10.0,-4.0,1.0,-5.0,-2.0,1650846955953659.0
5.0,2.0,-2.0,3.0,1.0,0.0,1.0,-3.0,1650846955953659.0
-12.0,-5.0,0.0,-2.0,-7.0,-11.0,-7.0,-1.0,1650846955955680.0
5.0,2.0,13.0,8.0,7.0,18.0,11.0,5.0,1650846955955680.0
11.0,6.0,-4.0,0.0,-1.0,-3.0,3.0,9.0,1650846955967648.0
-12.0,-11.0,-12.0,-12.0,-6.0,-3.0,1.0,-7.0,1650846955967648.0
-4.0,-2.0,-6.0,1.0,-2.0,-4.0,-5.0,2.0,1650846955974670.0
9.0,5.0,2.0,-4.0,-1.0,-4.0,-6.0,3.0,1650846955974670.0
-10.0,-5.0,0.0,3.0,-2.0,-6.0,0.0,-6.0,1650846955990893.0
21.0,6.0,-2.0,-1.0,0.0,2.0,3.0,10.0,1650846955990893.0
-35.0,-13.0,-13.0,-12.0,-4.0,-7.0,-3.0,-6.0,1650846955992835.0
17.0,11.0,3.0,2.0,5.0,1.0,-5.0,-1.0,1650846955992835.0
-19.0,2.0,8.0,13.0,5.0,8.0,6.0,-6.0,1650846956013792.0
-21.0,-4.0,1.0,-6.0,-3.0,-3.0,2.0,-1.0,1650846956013792.0
9.0,1.0,-14.0,-15.0,-7.0,2.0,-4.0,-3.0,1650846956015760.0
-8.0,-2.0,-2.0,-1.0,2.0,-2.0,3.0,1.0,1650846956015760.0
7.0,-5.0,1.0,0.0,-7.0,-7.0,0.0,-1.0,1650846956027727.0
14.0,10.0,4.0,10.0,9.0,4.0,-1.0,-1.0,1650846956027727.0
9.0,-1.0,13.0,2.0,1.0,7.0,7.0,4.0,1650846956036705.0
-23.0,-6.0,-9.0,-5.0,-5.0,-4.0,2.0,-8.0,1650846956036705.0
1.0,1.0,-2.0,-6.0,0.0,0.0,-10.0,4.0,1650846956051673.0
-4.0,-2.0,3.0,6.0,0.0,-1.0,1.0,-7.0,1650846956051673.0
8.0,1.0,-2.0,5.0,2.0,-1.0,-4.0,-4.0,1650846956052662.0
0.0,0.0,-6.0,-10.0,-6.0,-9.0,-11.0,-5.0,1650846956052662.0
9.0,2.0,5.0,6.0,0.0,3.0,8.0,4.0,1650846956073672.0
4.0,3.0,4.0,-1.0,-3.0,-1.0,-1.0,4.0,1650846956073672.0
-16.0,-19.0,-8.0,-6.0,-4.0,-5.0,-5.0,-10.0,1650846956075627.0
1.0,-3.0,2.0,-1.0,1.0,2.0,0.0,-3.0,1650846956075627.0
1.0,-2.0,-8.0,-4.0,0.0,1.0,4.0,6.0,1650846956088610.0
14.0,12.0,2.0,-3.0,0.0,2.0,-6.0,-8.0,1650846956088610.0
20.0,12.0,6.0,-1.0,2.0,-1.0,5.0,7.0,1650846956094549.0
-21.0,-6.0,2.0,7.0,3.0,-1.0,-5.0,-2.0,1650846956094549.0
11.0,-1.0,-5.0,-10.0,-10.0,-5.0,-5.0,-1.0,1650846956111531.0
-8.0,-8.0,-11.0,-5.0,0.0,-1.0,4.0,3.0,1650846956111531.0
10.0,7.0,9.0,2.0,-2.0,-1.0,-3.0,1.0,1650846956113498.0
-28.0,-7.0,-6.0,-1.0,3.0,5.0,1.0,-8.0,1650846956113498.0
11.0,10.0,18.0,19.0,9.0,5.0,3.0,5.0,1650846956134084.0
3.0,4.0,2.0,3.0,1.0,-1.0,4.0,7.0,1650846956134084.0
-4.0,-13.0,-17.0,-13.0,-7.0,-5.0,-8.0,-6.0,1650846956135082.0
4.0,-8.0,-5.0,-7.0,-2.0,1.0,1.0,9.0,1650846956135082.0
-4.0,5.0,-7.0,-7.0,-1.0,-2.0,2.0,-10.0,1650846956148045.0
-23.0,-22.0,-6.0,-3.0,-7.0,-9.0,-14.0,-11.0,1650846956148045.0
15.0,16.0,13.0,25.0,6.0,11.0,14.0,12.0,1650846956155094.0
9.0,5.0,7.0,3.0,14.0,2.0,-2.0,2.0,1650846956155094.0
-2.0,3.0,1.0,2.0,1.0,0.0,-1.0,-2.0,1650846956178963.0
9.0,3.0,-4.0,-2.0,7.0,5.0,4.0,10.0,1650846956178963.0
1.0,-3.0,8.0,9.0,0.0,0.0,2.0,3.0,1650846956179974.0
-3.0,-8.0,3.0,2.0,-9.0,-4.0,0.0,-4.0,1650846956179974.0
-1.0,0.0,-10.0,-11.0,-6.0,-6.0,-7.0,-2.0,1650846956193923.0
-5.0,1.0,11.0,8.0,5.0,2.0,0.0,-4.0,1650846956193923.0
4.0,-2.0,-10.0,-7.0,0.0,-1.0,-3.0,0.0,1650846956194941.0
35.0,14.0,4.0,-2.0,4.0,5.0,13.0,17.0,1650846956194941.0
-57.0,-12.0,-1.0,3.0,1.0,-4.0,-8.0,-11.0,1650846956207886.0
-5.0,1.0,-7.0,-1.0,-9.0,-4.0,-4.0,-6.0,1650846956207886.0
-8.0,-3.0,8.0,-13.0,-6.0,-3.0,-1.0,-5.0,1650846956216861.0
11.0,-1.0,3.0,14.0,7.0,4.0,-4.0,0.0,1650846956216861.0
-23.0,-9.0,-18.0,-44.0,-19.0,-10.0,-13.0,-19.0,1650846956230851.0
65.0,12.0,23.0,39.0,20.0,16.0,30.0,50.0,1650846956230851.0
-30.0,-1.0,-34.0,9.0,10.0,3.0,-3.0,-6.0,1650846956232819.0
-4.0,-5.0,15.0,-18.0,-26.0,-14.0,-8.0,-13.0,1650846956232819.0
42.0,15.0,17.0,27.0,26.0,7.0,-2.0,-1.0,1650846956254827.0
-50.0,0.0,-9.0,-33.0,-12.0,0.0,3.0,-7.0,1650846956254827.0
14.0,0.0,12.0,3.0,-7.0,-8.0,4.0,4.0,1650846956255792.0
23.0,-8.0,-4.0,24.0,9.0,1.0,-1.0,14.0,1650846956255792.0
-94.0,-36.0,0.0,11.0,-1.0,-2.0,5.0,-18.0,1650846956267752.0
31.0,6.0,3.0,7.0,2.0,3.0,-10.0,3.0,1650846956267752.0
5.0,-5.0,17.0,8.0,13.0,-1.0,2.0,-3.0,1650846956276701.0
-25.0,0.0,-21.0,-10.0,-8.0,2.0,-11.0,-24.0,1650846956276701.0
34.0,17.0,12.0,-3.0,-4.0,-2.0,-12.0,0.0,1650846956291720.0
-22.0,-17.0,-56.0,-56.0,-32.0,-22.0,-9.0,-3.0,1650846956291720.0
27.0,11.0,70.0,59.0,20.0,8.0,16.0,7.0,1650846956292659.0
-31.0,9.0,15.0,1.0,8.0,10.0,2.0,8.0,1650846956292659.0
10.0,-13.0,-19.0,-44.0,-18.0,-4.0,-7.0,-9.0,1650846956313630.0
40.0,11.0,-41.0,44.0,17.0,0.0,12.0,7.0,1650846956313630.0
53.0,18.0,-20.0,-36.0,-10.0,-4.0,0.0,18.0,1650846956315597.0
5.0,-18.0,24.0,10.0,-12.0,-22.0,-34.0,-40.0,1650846956315597.0
-41.0,-7.0,-1.0,15.0,14.0,3.0,-1.0,0.0,1650846956327565.0
-4.0,2.0,29.0,-65.0,-27.0,-12.0,-26.0,-12.0,1650846956327565.0
62.0,-9.0,-47.0,35.0,17.0,1.0,-3.0,14.0,1650846956336542.0
-56.0,-1.0,-34.0,-32.0,-21.0,-3.0,-12.0,-7.0,1650846956336542.0
40.0,20.0,5.0,-4.0,7.0,11.0,28.0,9.0,1650846956351532.0
47.0,9.0,-20.0,14.0,7.0,8.0,45.0,36.0,1650846956351532.0
-104.0,-59.0,-40.0,-19.0,-16.0,-9.0,-5.0,-21.0,1650846956352499.0
-21.0,2.0,37.0,-33.0,-13.0,-7.0,-43.0,-39.0,1650846956352499.0
25.0,18.0,27.0,65.0,30.0,22.0,1.0,9.0,1650846956373630.0
53.0,-5.0,-53.0,-45.0,-19.0,-15.0,21.0,49.0,1650846956373630.0
14.0,22.0,68.0,51.0,10.0,1.0,-20.0,-15.0,1650846956375557.0
-14.0,-20.0,-80.0,-22.0,-6.0,-10.0,16.0,14.0,1650846956375557.0
-3.0,-2.0,67.0,20.0,-10.0,-15.0,-25.0,-22.0,1650846956387525.0
-6.0,-4.0,9.0,-7.0,24.0,31.0,-19.0,-24.0,1650846956387525.0
-35.0,14.0,45.0,31.0,15.0,-9.0,-4.0,-2.0,1650846956396501.0
77.0,-10.0,-22.0,39.0,2.0,-7.0,1.0,16.0,1650846956396501.0
-8.0,27.0,13.0,9.0,9.0,8.0,3.0,12.0,1650846956411489.0
-68.0,-24.0,36.0,-1.0,-6.0,-10.0,7.0,-17.0,1650846956411489.0
78.0,19.0,-42.0,-48.0,-20.0,1.0,-20.0,8.0,1650846956412459.0
-45.0,9.0,49.0,19.0,24.0,13.0,26.0,0.0,1650846956412459.0
-63.0,-7.0,-8.0,34.0,-3.0,-11.0,-21.0,-6.0,1650846956433470.0
37.0,-18.0,-61.0,12.0,4.0,8.0,48.0,23.0,1650846956433470.0
-14.0,-18.0,-14.0,-80.0,-26.0,-16.0,-22.0,-30.0,1650846956435426.0
44.0,13.0,49.0,44.0,-7.0,-10.0,-4.0,8.0,1650846956435426.0
56.0,-2.0,-45.0,-53.0,7.0,14.0,31.0,37.0,1650846956447365.0
-37.0,25.0,85.0,98.0,36.0,10.0,-32.0,-26.0,1650846956447365.0
-12.0,-17.0,-40.0,-23.0,-16.0,-1.0,41.0,28.0,1650846956456342.0
5.0,-16.0,-42.0,-36.0,-7.0,-5.0,-37.0,-19.0,1650846956456342.0
69.0,5.0,-16.0,-29.0,-18.0,-15.0,15.0,9.0,1650846956471305.0
-53.0,-8.0,-5.0,-18.0,-17.0,0.0,5.0,-28.0,1650846956471305.0
83.0,32.0,35.0,14.0,3.0,6.0,-8.0,20.0,1650846956473296.0
16.0,21.0,11.0,14.0,23.0,14.0,46.0,32.0,1650846956473296.0
-63.0,-38.0,22.0,19.0,6.0,0.0,-21.0,-23.0,1650846956493270.0
-31.0,-4.0,-19.0,18.0,3.0,-11.0,-18.0,-23.0,1650846956493270.0
-66.0,-26.0,-7.0,-38.0,-24.0,-5.0,-9.0,-21.0,1650846956495241.0
51.0,5.0,-75.0,-52.0,-2.0,8.0,24.0,19.0,1650846956495241.0
-27.0,20.0,40.0,59.0,3.0,2.0,0.0,2.0,1650846956517186.0
25.0,1.0,2.0,-19.0,-6.0,-14.0,-32.0,-5.0,1650846956517186.0
-19.0,18.0,19.0,0.0,0.0,21.0,44.0,9.0,1650846956519174.0
-5.0,-23.0,-48.0,-32.0,-4.0,-8.0,-6.0,1.0,1650846956519174.0
66.0,8.0,14.0,20.0,16.0,4.0,10.0,20.0,1650846956531141.0
-47.0,8.0,-16.0,-9.0,-11.0,-2.0,12.0,-5.0,1650846956531141.0
-16.0,-24.0,-22.0,7.0,13.0,5.0,-16.0,-1.0,1650846956533137.0
-56.0,13.0,32.0,-10.0,-12.0,-3.0,-7.0,-24.0,1650846956533137.0
76.0,-10.0,-39.0,-45.0,-12.0,-6.0,-14.0,4.0,1650846956554081.0
0.0,19.0,54.0,53.0,22.0,11.0,-10.0,-1.0,1650846956554081.0
-6.0,-38.0,-17.0,-7.0,5.0,-2.0,5.0,4.0,1650846956555077.0
10.0,18.0,43.0,25.0,9.0,12.0,23.0,8.0,1650846956555077.0
-17.0,-22.0,-48.0,-53.0,-41.0,-28.0,-39.0,-27.0,1650846956567073.0
33.0,1.0,17.0,20.0,20.0,35.0,14.0,-3.0,1650846956567073.0
-90.0,11.0,0.0,-41.0,-19.0,-12.0,26.0,-1.0,1650846956576049.0
92.0,8.0,-9.0,13.0,7.0,-11.0,-13.0,26.0,1650846956576049.0
-36.0,1.0,33.0,49.0,1.0,10.0,-6.0,-27.0,1650846956591048.0
2.0,-14.0,-7.0,-47.0,-13.0,-11.0,-21.0,-11.0,1650846956591048.0
-43.0,11.0,11.0,-20.0,-12.0,2.0,1.0,6.0,1650846956592976.0
45.0,23.0,53.0,58.0,42.0,19.0,31.0,14.0,1650846956592976.0
12.0,-4.0,-41.0,-40.0,-17.0,-9.0,-6.0,8.0,1650846956613920.0
5.0,-5.0,11.0,-26.0,-6.0,-4.0,2.0,-9.0,1650846956613920.0
42.0,34.0,8.0,50.0,24.0,8.0,2.0,17.0,1650846956615920.0
-71.0,-29.0,-3.0,-7.0,-24.0,-18.0,-32.0,-38.0,1650846956615920.0
3.0,11.0,4.0,6.0,8.0,4.0,34.0,24.0,1650846956627882.0
-32.0,-11.0,-18.0,5.0,10.0,4.0,-7.0,-11.0,1650846956627882.0
64.0,10.0,-4.0,-15.0,-17.0,-15.0,-27.0,-12.0,1650846956636859.0
4.0,18.0,36.0,5.0,7.0,1.0,-4.0,11.0,1650846956636859.0
-45.0,-32.0,-42.0,-36.0,1.0,14.0,46.0,-1.0,1650846956650820.0
43.0,14.0,36.0,40.0,-7.0,-21.0,-13.0,7.0,1650846956650820.0
12.0,-7.0,-37.0,-11.0,7.0,10.0,-14.0,-2.0,1650846956652818.0
-81.0,-9.0,-29.0,-3.0,-13.0,-1.0,7.0,-11.0,1650846956652818.0
58.0,14.0,12.0,2.0,13.0,5.0,-3.0,18.0,1650846956673759.0
0.0,-31.0,-31.0,-47.0,-21.0,-16.0,-9.0,-4.0,1650846956673759.0
12.0,20.0,0.0,39.0,-1.0,-8.0,9.0,1.0,1650846956675755.0
-19.0,5.0,11.0,6.0,22.0,12.0,-3.0,11.0,1650846956675755.0
23.0,4.0,7.0,9.0,0.0,-2.0,-6.0,3.0,1650846956696730.0
-67.0,-17.0,3.0,-17.0,-7.0,0.0,-3.0,-9.0,1650846956696730.0
-1.0,-18.0,-3.0,19.0,10.0,-5.0,-15.0,-22.0,1650846956697707.0
36.0,-1.0,-28.0,-22.0,-14.0,0.0,-2.0,9.0,1650846956697707.0
18.0,2.0,16.0,-6.0,-5.0,-8.0,9.0,9.0,1650846956710836.0
-75.0,-7.0,-7.0,-24.0,-15.0,-4.0,-19.0,-24.0,1650846956710836.0
-59.0,-13.0,23.0,38.0,12.0,9.0,4.0,-12.0,1650846956712792.0
26.0,1.0,-10.0,-34.0,-13.0,-15.0,-24.0,-10.0,1650846956712792.0
1.0,13.0,38.0,19.0,19.0,21.0,47.0,22.0,1650846956733814.0
57.0,16.0,-29.0,13.0,1.0,1.0,13.0,32.0,1650846956733814.0
-25.0,-21.0,-14.0,-20.0,-17.0,-10.0,2.0,-16.0,1650846956735840.0
16.0,6.0,9.0,18.0,6.0,3.0,-5.0,-1.0,1650846956735840.0
-88.0,-18.0,-16.0,13.0,4.0,3.0,-13.0,-22.0,1650846956756016.0
17.0,0.0,-2.0,-34.0,-11.0,-14.0,-13.0,-3.0,1650846956756016.0
-51.0,10.0,14.0,-25.0,-10.0,2.0,27.0,14.0,1650846956757967.0
7.0,-16.0,-7.0,17.0,-1.0,-5.0,-19.0,-11.0,1650846956757967.0
-14.0,-8.0,-26.0,-2.0,-11.0,-5.0,-14.0,-2.0,1650846956770926.0
69.0,20.0,22.0,25.0,20.0,6.0,35.0,28.0,1650846956770926.0
-13.0,-8.0,-20.0,-25.0,-8.0,-6.0,-30.0,-23.0,1650846956772923.0
36.0,19.0,42.0,25.0,13.0,12.0,7.0,3.0,1650846956772923.0
-27.0,-16.0,-2.0,-31.0,-18.0,-1.0,2.0,0.0,1650846956794001.0
14.0,9.0,-14.0,15.0,13.0,2.0,18.0,9.0,1650846956794001.0
-37.0,-17.0,6.0,-12.0,-1.0,-12.0,-44.0,-18.0,1650846956795006.0
14.0,14.0,23.0,11.0,3.0,13.0,63.0,28.0,1650846956795006.0
24.0,-13.0,-33.0,-32.0,-9.0,-21.0,-48.0,-11.0,1650846956815915.0
6.0,1.0,27.0,45.0,3.0,2.0,24.0,1.0,1650846956815915.0
37.0,-2.0,-23.0,-20.0,-4.0,4.0,-40.0,-16.0,1650846956817840.0
-70.0,-5.0,-7.0,-12.0,-5.0,5.0,72.0,37.0,1650846956817840.0
21.0,6.0,-12.0,-34.0,-9.0,-11.0,-24.0,-8.0,1650846956830891.0
-1.0,-12.0,19.0,41.0,21.0,0.0,-30.0,-17.0,1650846956830891.0
8.0,24.0,56.0,81.0,26.0,5.0,33.0,20.0,1650846956837808.0
7.0,-24.0,-67.0,-46.0,-18.0,-7.0,-18.0,-22.0,1650846956837808.0
-20.0,5.0,-1.0,16.0,4.0,2.0,17.0,16.0,1650846956853917.0
-3.0,-8.0,4.0,-28.0,-12.0,-6.0,-30.0,-14.0,1650846956853917.0
37.0,-5.0,10.0,16.0,12.0,11.0,10.0,4.0,1650846956855914.0
-61.0,2.0,-3.0,15.0,1.0,0.0,-7.0,-2.0,1650846956855914.0
2.0,8.0,14.0,13.0,6.0,4.0,8.0,-2.0,1650846956875898.0
7.0,3.0,-11.0,-4.0,0.0,-3.0,-16.0,-10.0,1650846956875898.0
32.0,14.0,9.0,15.0,14.0,9.0,27.0,30.0,1650846956877826.0
24.0,-13.0,-4.0,-16.0,-15.0,-5.0,-1.0,-20.0,1650846956877826.0
-54.0,7.0,19.0,20.0,26.0,14.0,37.0,19.0,1650846956890858.0
2.0,-11.0,-20.0,6.0,-7.0,-5.0,-23.0,-8.0,1650846956890858.0
-23.0,-11.0,-52.0,-56.0,-18.0,-9.0,7.0,-3.0,1650846956897839.0
10.0,9.0,53.0,36.0,12.0,6.0,-13.0,-6.0,1650846956897839.0
52.0,26.0,11.0,12.0,0.0,-6.0,-8.0,0.0,1650846956913796.0
-39.0,-1.0,-19.0,-43.0,-5.0,11.0,7.0,4.0,1650846956913796.0
6.0,12.0,44.0,32.0,16.0,1.0,-11.0,-7.0,1650846956915725.0
12.0,-31.0,-58.0,-26.0,-9.0,-3.0,-11.0,5.0,1650846956915725.0
-6.0,-17.0,18.0,1.0,-6.0,-11.0,1.0,-7.0,1650846956935670.0
9.0,17.0,-25.0,-13.0,-2.0,-6.0,-3.0,-9.0,1650846956935670.0
-2.0,-17.0,26.0,-20.0,-20.0,-6.0,-26.0,-7.0,1650846956942719.0
18.0,7.0,6.0,23.0,16.0,5.0,15.0,21.0,1650846956942719.0
3.0,-1.0,-1.0,-1.0,-6.0,3.0,-37.0,-34.0,1650846956950812.0
-57.0,-21.0,-10.0,-16.0,-20.0,-10.0,23.0,-6.0,1650846956950812.0
-39.0,17.0,-4.0,-36.0,-3.0,1.0,24.0,1.0,1650846956957796.0
-26.0,-37.0,-25.0,20.0,-1.0,-12.0,-49.0,-29.0,1650846956957796.0
-3.0,-8.0,-3.0,-3.0,-6.0,-1.0,13.0,12.0,1650846956973751.0
8.0,18.0,26.0,-18.0,-5.0,0.0,-28.0,-7.0,1650846956973751.0
9.0,0.0,-22.0,26.0,2.0,4.0,9.0,-5.0,1650846956975710.0
7.0,8.0,18.0,-23.0,-14.0,-8.0,-5.0,7.0,1650846956975710.0
-23.0,-15.0,-34.0,5.0,2.0,-7.0,-8.0,-10.0,1650846956996622.0
-45.0,3.0,8.0,-2.0,4.0,2.0,-17.0,-10.0,1650846956996622.0
8.0,14.0,10.0,-16.0,-8.0,0.0,59.0,46.0,1650846956998644.0
-3.0,8.0,-6.0,-8.0,-4.0,-2.0,2.0,-11.0,1650846956998644.0
2.0,-15.0,3.0,21.0,13.0,6.0,-7.0,-6.0,1650846957010365.0
56.0,26.0,1.0,1.0,0.0,3.0,-3.0,19.0,1650846957010365.0
-23.0,-34.0,5.0,2.0,-2.0,-13.0,-45.0,-31.0,1650846957017280.0
71.0,17.0,-34.0,-77.0,-15.0,4.0,29.0,15.0,1650846957017280.0
-73.0,12.0,15.0,46.0,8.0,0.0,-8.0,-10.0,1650846957033844.0
10.0,-14.0,12.0,-3.0,-8.0,6.0,55.0,42.0,1650846957033844.0
0.0,4.0,-11.0,38.0,23.0,6.0,-15.0,-14.0,1650846957035810.0
7.0,21.0,5.0,-21.0,-16.0,-8.0,-7.0,-12.0,1650846957035810.0
29.0,-37.0,11.0,-21.0,-14.0,-4.0,-17.0,6.0,1650846957056754.0
4.0,5.0,-21.0,1.0,3.0,6.0,11.0,-16.0,1650846957056754.0
-55.0,-12.0,-10.0,-1.0,-3.0,-3.0,-12.0,-5.0,1650846957057759.0
63.0,25.0,24.0,26.0,11.0,4.0,14.0,26.0,1650846957057759.0
-48.0,-28.0,-62.0,-37.0,-14.0,-6.0,9.0,-7.0,1650846957070716.0
17.0,11.0,2.0,7.0,3.0,-1.0,-9.0,19.0,1650846957070716.0
35.0,6.0,18.0,-9.0,6.0,20.0,21.0,-1.0,1650846957077765.0
-35.0,-15.0,-15.0,5.0,8.0,2.0,1.0,8.0,1650846957077765.0
5.0,21.0,42.0,-5.0,-15.0,-10.0,0.0,-1.0,1650846957093840.0
16.0,-24.0,-55.0,-22.0,-9.0,-10.0,-13.0,-7.0,1650846957093840.0
31.0,2.0,4.0,-13.0,-3.0,-2.0,-33.0,-18.0,1650846957095859.0
-40.0,-10.0,-14.0,-11.0,-6.0,4.0,20.0,7.0,1650846957095859.0
48.0,-3.0,-6.0,57.0,29.0,13.0,51.0,40.0,1650846957115832.0
-42.0,6.0,41.0,-1.0,-14.0,-10.0,-18.0,-31.0,1650846957115832.0
19.0,-4.0,-2.0,-24.0,-16.0,-4.0,6.0,6.0,1650846957117826.0
-39.0,10.0,28.0,52.0,27.0,6.0,-36.0,-19.0,1650846957117826.0
45.0,14.0,-45.0,-54.0,-20.0,6.0,53.0,17.0,1650846957130819.0
-64.0,-16.0,19.0,41.0,12.0,-9.0,4.0,-3.0,1650846957130819.0
23.0,14.0,7.0,-35.0,-11.0,6.0,2.0,-1.0,1650846957137794.0
21.0,-1.0,-44.0,-25.0,-6.0,-3.0,-20.0,10.0,1650846957137794.0
-38.0,7.0,21.0,13.0,3.0,-3.0,1.0,-9.0,1650846957153757.0
0.0,-2.0,19.0,39.0,17.0,10.0,-3.0,-13.0,1650846957153757.0
-8.0,2.0,-11.0,-6.0,-4.0,-7.0,12.0,19.0,1650846957155726.0
19.0,13.0,-13.0,9.0,-7.0,-9.0,-28.0,-21.0,1650846957155726.0
5.0,30.0,34.0,-12.0,2.0,3.0,1.0,11.0,1650846957175850.0
-37.0,-26.0,-24.0,-11.0,-7.0,-4.0,-22.0,-21.0,1650846957175850.0
14.0,1.0,8.0,2.0,-13.0,-7.0,-3.0,13.0,1650846957177778.0
-12.0,27.0,11.0,7.0,12.0,6.0,16.0,-8.0,1650846957177778.0
50.0,-27.0,-64.0,13.0,42.0,33.0,11.0,21.0,1650846957189810.0
17.0,5.0,8.0,0.0,-12.0,-11.0,-21.0,-18.0,1650846957189810.0
-15.0,-14.0,-12.0,15.0,14.0,-3.0,-32.0,-8.0,1650846957198722.0
-42.0,-33.0,10.0,14.0,-16.0,-19.0,38.0,10.0,1650846957198722.0
45.0,41.0,22.0,-24.0,-8.0,2.0,-37.0,-15.0,1650846957213715.0
-14.0,-7.0,-13.0,-11.0,9.0,10.0,23.0,5.0,1650846957213715.0
33.0,-6.0,-16.0,1.0,-1.0,-6.0,0.0,1.0,1650846957215696.0
-11.0,-24.0,-30.0,-24.0,-6.0,0.0,-14.0,-11.0,1650846957215696.0
-28.0,16.0,34.0,22.0,1.0,-10.0,-7.0,-4.0,1650846957236619.0
34.0,-7.0,7.0,-27.0,-10.0,1.0,-3.0,-5.0,1650846957236619.0
16.0,29.0,-9.0,-3.0,-1.0,-2.0,20.0,12.0,1650846957237617.0
6.0,-27.0,43.0,43.0,20.0,16.0,11.0,22.0,1650846957237617.0
3.0,7.0,-1.0,-19.0,-18.0,-9.0,-14.0,-22.0,1650846957249612.0
22.0,-10.0,-21.0,-8.0,8.0,3.0,8.0,22.0,1650846957249612.0
4.0,30.0,13.0,-14.0,-9.0,-4.0,-15.0,-11.0,1650846957258606.0
13.0,-6.0,4.0,-34.0,-21.0,-5.0,-25.0,-5.0,1650846957258606.0
-15.0,12.0,13.0,1.0,6.0,4.0,39.0,6.0,1650846957273522.0
1.0,9.0,13.0,-6.0,-2.0,-2.0,31.0,8.0,1650846957273522.0
36.0,-26.0,-4.0,65.0,12.0,4.0,0.0,16.0,1650846957275516.0
-120.0,-14.0,34.0,42.0,-1.0,-21.0,-75.0,-61.0,1650846957275516.0
40.0,1.0,7.0,-18.0,-15.0,-6.0,44.0,41.0,1650846957296605.0
-22.0,-10.0,-11.0,-4.0,-1.0,-5.0,-50.0,-50.0,1650846957296605.0
38.0,30.0,11.0,-17.0,-10.0,-9.0,-3.0,20.0,1650846957297575.0
21.0,8.0,-3.0,16.0,10.0,20.0,90.0,31.0,1650846957297575.0
-1.0,-26.0,7.0,6.0,3.0,-15.0,-93.0,-29.0,1650846957309667.0
-69.0,-1.0,-9.0,-20.0,-10.0,1.0,37.0,-10.0,1650846957309667.0
21.0,-9.0,23.0,24.0,8.0,8.0,2.0,5.0,1650846957318644.0
-17.0,44.0,-2.0,-37.0,-4.0,-6.0,-47.0,-18.0,1650846957318644.0
-6.0,-12.0,1.0,18.0,-1.0,0.0,12.0,-6.0,1650846957333632.0
62.0,11.0,-8.0,-17.0,-17.0,-5.0,-24.0,9.0,1650846957333632.0
-63.0,-12.0,-6.0,31.0,20.0,1.0,14.0,-3.0,1650846957335599.0
-2.0,7.0,24.0,3.0,-13.0,-3.0,18.0,18.0,1650846957335599.0
4.0,10.0,-16.0,9.0,23.0,8.0,-25.0,-22.0,1650846957356544.0
-20.0,-12.0,-10.0,-21.0,-26.0,-14.0,15.0,27.0,1650846957356544.0
10.0,8.0,29.0,36.0,27.0,3.0,-17.0,-14.0,1650846957357548.0
-42.0,-29.0,-42.0,-59.0,-25.0,-16.0,-36.0,-68.0,1650846957357548.0
26.0,15.0,50.0,90.0,32.0,24.0,49.0,80.0,1650846957369536.0
62.0,12.0,2.0,41.0,8.0,-4.0,20.0,42.0,1650846957369536.0
-25.0,-19.0,-36.0,-29.0,-7.0,8.0,-26.0,-38.0,1650846957378484.0
54.0,25.0,-17.0,-19.0,-11.0,-10.0,51.0,36.0,1650846957378484.0
-64.0,-35.0,-42.0,-59.0,-28.0,-14.0,-46.0,-43.0,1650846957393444.0
26.0,38.0,45.0,41.0,27.0,22.0,6.0,17.0,1650846957393444.0
-13.0,1.0,-59.0,-46.0,-17.0,1.0,51.0,20.0,1650846957395439.0
59.0,-11.0,29.0,44.0,28.0,15.0,4.0,18.0,1650846957395439.0
13.0,13.0,-14.0,-19.0,-14.0,-12.0,-10.0,-12.0,1650846957416306.0
-12.0,-13.0,-12.0,-25.0,-15.0,-11.0,-22.0,-7.0,1650846957416306.0
10.0,8.0,15.0,10.0,13.0,9.0,24.0,8.0,1650846957418273.0
-55.0,-27.0,-29.0,-41.0,-17.0,-4.0,-33.0,-14.0,1650846957418273.0
68.0,37.0,9.0,5.0,0.0,14.0,51.0,40.0,1650846957430919.0
-69.0,-30.0,27.0,34.0,48.0,13.0,-8.0,-17.0,1650846957430919.0
-28.0,-15.0,-3.0,-53.0,-27.0,-16.0,-24.0,-16.0,1650846957438816.0
43.0,-15.0,-53.0,-2.0,7.0,2.0,3.0,12.0,1650846957438816.0
-19.0,-20.0,6.0,-21.0,-27.0,-16.0,-29.0,-20.0,1650846957453926.0
35.0,30.0,-11.0,-10.0,-3.0,-5.0,-8.0,-4.0,1650846957453926.0
-21.0,-3.0,36.0,40.0,16.0,11.0,-1.0,0.0,1650846957455893.0
35.0,10.0,19.0,15.0,11.0,9.0,33.0,27.0,1650846957455893.0
-30.0,2.0,-18.0,4.0,1.0,-9.0,-18.0,-23.0,1650846957476028.0
10.0,-17.0,-2.0,4.0,0.0,0.0,14.0,3.0,1650846957476028.0
-18.0,-13.0,-17.0,-7.0,-3.0,-8.0,-4.0,-3.0,1650846957477956.0
1.0,10.0,13.0,-5.0,-6.0,-6.0,-14.0,2.0,1650846957477956.0
-11.0,-5.0,-2.0,-16.0,-4.0,-1.0,-11.0,-32.0,1650846957489924.0
12.0,2.0,7.0,13.0,7.0,-1.0,21.0,20.0,1650846957489924.0
-8.0,16.0,-1.0,-11.0,-12.0,-8.0,-10.0,-4.0,1650846957498900.0
-1.0,-3.0,7.0,13.0,7.0,20.0,4.0,5.0,1650846957498900.0
9.0,-6.0,5.0,0.0,6.0,0.0,16.0,10.0,1650846957513887.0
-20.0,3.0,-27.0,-23.0,-12.0,-1.0,-18.0,-30.0,1650846957513887.0
0.0,-12.0,-21.0,-8.0,-4.0,-10.0,-17.0,-12.0,1650846957515875.0
-7.0,23.0,47.0,31.0,10.0,-4.0,12.0,0.0,1650846957515875.0
0.0,-3.0,-8.0,-6.0,-1.0,-8.0,-12.0,-3.0,1650846957534945.0
-13.0,-14.0,5.0,5.0,-5.0,-17.0,0.0,34.0,1650846957534945.0
-13.0,-19.0,30.0,1.0,6.0,38.0,32.0,-4.0,1650846957543896.0
12.0,26.0,2.0,-5.0,-2.0,-5.0,-11.0,-18.0,1650846957543896.0
-15.0,-16.0,-23.0,-17.0,-12.0,-8.0,-15.0,-15.0,1650846957549905.0
19.0,15.0,12.0,5.0,6.0,7.0,2.0,13.0,1650846957549905.0
-15.0,1.0,-18.0,10.0,0.0,-17.0,1.0,0.0,1650846957558605.0
6.0,-7.0,48.0,19.0,5.0,17.0,9.0,32.0,1650846957558605.0
16.0,10.0,-28.0,7.0,11.0,-1.0,-4.0,9.0,1650846957573575.0
25.0,-40.0,-47.0,-70.0,-25.0,4.0,16.0,5.0,1650846957573575.0
16.0,-1.0,17.0,18.0,4.0,-3.0,-3.0,-6.0,1650846957575562.0
-26.0,16.0,-13.0,-8.0,-4.0,-15.0,-14.0,-28.0,1650846957575562.0
-11.0,-2.0,10.0,8.0,5.0,0.0,-1.0,1.0,1650846957596617.0
9.0,9.0,8.0,29.0,14.0,8.0,1.0,5.0,1650846957596617.0
-10.0,-5.0,-19.0,-10.0,-10.0,-23.0,-13.0,-14.0,1650846957597624.0
25.0,2.0,-4.0,-5.0,4.0,19.0,8.0,19.0,1650846957597624.0
-8.0,-31.0,-22.0,-34.0,-9.0,-6.0,7.0,3.0,1650846957618557.0
-22.0,9.0,35.0,-7.0,-11.0,-10.0,-12.0,-20.0,1650846957618557.0
4.0,12.0,4.0,-1.0,1.0,2.0,3.0,13.0,1650846957620553.0
-20.0,-8.0,17.0,23.0,9.0,-3.0,-4.0,-17.0,1650846957620553.0
-1.0,-6.0,-4.0,11.0,4.0,4.0,1.0,-3.0,1650846957633546.0
11.0,20.0,-44.0,-18.0,-4.0,-1.0,5.0,-3.0,1650846957633546.0
7.0,-8.0,-27.0,-30.0,-6.0,-3.0,-6.0,-3.0,1650846957647568.0
-5.0,-23.0,-8.0,10.0,1.0,-4.0,0.0,5.0,1650846957647568.0
2.0,2.0,-8.0,-15.0,-6.0,0.0,-9.0,-23.0,1650846957656549.0
-4.0,13.0,67.0,35.0,7.0,6.0,2.0,-5.0,1650846957656549.0
8.0,-30.0,-95.0,-11.0,-3.0,-8.0,1.0,28.0,1650846957657543.0
-3.0,-7.0,-62.0,-35.0,-6.0,2.0,1.0,-12.0,1650846957657543.0
-2.0,-1.0,42.0,-9.0,-10.0,-6.0,-6.0,2.0,1650846957678486.0
-5.0,10.0,4.0,19.0,14.0,7.0,4.0,-5.0,1650846957678486.0
8.0,10.0,48.0,10.0,0.0,2.0,0.0,-2.0,1650846957680480.0
-10.0,-14.0,-25.0,1.0,3.0,-3.0,-4.0,-4.0,1650846957680480.0
11.0,5.0,-3.0,18.0,2.0,1.0,0.0,10.0,1650846957692822.0
-5.0,5.0,1.0,-9.0,2.0,8.0,8.0,5.0,1650846957692822.0
-3.0,9.0,17.0,-4.0,-5.0,0.0,-2.0,-14.0,1650846957699740.0
17.0,6.0,5.0,19.0,4.0,1.0,3.0,10.0,1650846957699740.0
-23.0,-22.0,10.0,-21.0,-7.0,-5.0,-4.0,-15.0,1650846957715829.0
-2.0,16.0,38.0,16.0,-1.0,-1.0,-3.0,4.0,1650846957715829.0
25.0,-14.0,-50.0,-13.0,2.0,2.0,5.0,14.0,1650846957717808.0
-20.0,2.0,30.0,13.0,-3.0,3.0,-2.0,-20.0,1650846957717808.0
-8.0,-3.0,-39.0,-19.0,-2.0,-1.0,-4.0,-7.0,1650846957738761.0
9.0,11.0,-8.0,3.0,-1.0,-5.0,-1.0,-8.0,1650846957738761.0
-28.0,-27.0,-24.0,-6.0,-1.0,3.0,7.0,-4.0,1650846957740765.0
5.0,-16.0,13.0,-5.0,-4.0,-6.0,-5.0,13.0,1650846957740765.0
-4.0,35.0,9.0,11.0,5.0,8.0,8.0,2.0,1650846957752730.0
12.0,20.0,62.0,11.0,7.0,5.0,0.0,10.0,1650846957752730.0
-11.0,-7.0,-1.0,22.0,4.0,-9.0,-10.0,-24.0,1650846957759751.0
12.0,13.0,20.0,-12.0,-3.0,6.0,7.0,16.0,1650846957759751.0
-28.0,-11.0,16.0,5.0,1.0,-3.0,-2.0,-15.0,1650846957776721.0
19.0,-9.0,-19.0,0.0,0.0,3.0,1.0,12.0,1650846957776721.0
-7.0,21.0,27.0,4.0,-2.0,3.0,4.0,2.0,1650846957777651.0
-9.0,-17.0,-22.0,-13.0,-4.0,-7.0,-3.0,-6.0,1650846957777651.0
9.0,-5.0,-1.0,13.0,-4.0,-3.0,-1.0,8.0,1650846957798292.0
-3.0,5.0,-7.0,10.0,13.0,4.0,-2.0,-7.0,1650846957798292.0
5.0,-8.0,-12.0,4.0,6.0,3.0,0.0,7.0,1650846957800287.0
-2.0,17.0,-8.0,-1.0,2.0,-3.0,-2.0,-6.0,1650846957800287.0
7.0,26.0,34.0,12.0,-4.0,-6.0,-2.0,3.0,1650846957813252.0
-10.0,-58.0,-97.0,-46.0,-16.0,-1.0,-1.0,-6.0,1650846957813252.0
15.0,32.0,77.0,17.0,1.0,-3.0,-5.0,2.0,1650846957820234.0
3.0,1.0,22.0,3.0,2.0,-3.0,1.0,7.0,1650846957820234.0
8.0,-5.0,-3.0,0.0,2.0,5.0,-1.0,3.0,1650846957836300.0
-3.0,5.0,13.0,17.0,1.0,0.0,-4.0,-12.0,1650846957836300.0
-14.0,4.0,-20.0,-14.0,-3.0,-6.0,-4.0,-7.0,1650846957838294.0
7.0,0.0,-2.0,-8.0,-1.0,4.0,3.0,4.0,1650846957838294.0
1.0,4.0,-5.0,5.0,1.0,2.0,2.0,-2.0,1650846957859217.0
3.0,3.0,4.0,-16.0,-3.0,1.0,-3.0,6.0,1650846957859217.0
5.0,-7.0,-3.0,6.0,-4.0,-9.0,-4.0,1.0,1650846957860785.0
-9.0,-3.0,11.0,10.0,2.0,-6.0,-4.0,-13.0,1650846957860785.0
-2.0,-11.0,-25.0,-15.0,-1.0,4.0,6.0,9.0,1650846957872747.0
-5.0,-2.0,23.0,10.0,0.0,-5.0,-2.0,-3.0,1650846957872747.0
2.0,6.0,15.0,-6.0,-6.0,4.0,2.0,1.0,1650846957879777.0
-8.0,-13.0,-57.0,-12.0,-7.0,-10.0,-7.0,-8.0,1650846957879777.0
12.0,5.0,41.0,24.0,12.0,6.0,5.0,8.0,1650846957895840.0
1.0,-3.0,-6.0,13.0,-1.0,-6.0,1.0,10.0,1650846957895840.0
9.0,3.0,19.0,-3.0,0.0,2.0,1.0,-3.0,1650846957897835.0
-9.0,11.0,61.0,9.0,0.0,0.0,2.0,4.0,1650846957897835.0
-1.0,2.0,-32.0,-10.0,-7.0,-4.0,-4.0,-3.0,1650846957918830.0
8.0,12.0,-3.0,7.0,3.0,3.0,0.0,-4.0,1650846957918830.0
-10.0,-24.0,-12.0,-9.0,1.0,5.0,3.0,32.0,1650846957920799.0
-5.0,5.0,7.0,0.0,-1.0,-2.0,-3.0,-16.0,1650846957920799.0
2.0,12.0,-13.0,-7.0,0.0,-3.0,1.0,12.0,1650846957932763.0
-1.0,3.0,19.0,10.0,1.0,-3.0,-8.0,-19.0,1650846957932763.0
-1.0,-4.0,-27.0,1.0,2.0,4.0,5.0,-7.0,1650846957939746.0
6.0,15.0,-18.0,-14.0,1.0,2.0,1.0,11.0,1650846957939746.0
-16.0,-34.0,18.0,13.0,-2.0,-1.0,0.0,-9.0,1650846957956714.0
-8.0,-34.0,-28.0,-17.0,-8.0,-9.0,-11.0,-9.0,1650846957956714.0
9.0,30.0,22.0,4.0,0.0,0.0,-3.0,-4.0,1650846957957698.0
3.0,-14.0,-19.0,2.0,1.0,2.0,3.0,8.0,1650846957957698.0
-4.0,10.0,17.0,2.0,0.0,-1.0,2.0,-6.0,1650846957978817.0
6.0,-10.0,-6.0,1.0,3.0,4.0,6.0,11.0,1650846957978817.0
5.0,17.0,-7.0,4.0,1.0,-1.0,-1.0,-7.0,1650846957980813.0
-7.0,-29.0,-19.0,-3.0,-2.0,-1.0,0.0,3.0,1650846957980813.0
8.0,24.0,38.0,4.0,-4.0,-5.0,-5.0,-2.0,1650846957993517.0
-9.0,-7.0,-11.0,-8.0,-5.0,-3.0,0.0,-5.0,1650846957993517.0
-3.0,-7.0,-45.0,-28.0,-9.0,-4.0,-3.0,1.0,1650846957999795.0
5.0,-2.0,26.0,11.0,-2.0,-1.0,-1.0,-9.0,1650846957999795.0
-3.0,-1.0,-40.0,-18.0,-3.0,-2.0,-1.0,2.0,1650846958015820.0
-2.0,5.0,-3.0,7.0,1.0,1.0,1.0,0.0,1650846958015820.0
-3.0,-2.0,58.0,4.0,0.0,-2.0,1.0,-1.0,1650846958017807.0
-7.0,-25.0,-67.0,-39.0,-11.0,-9.0,-8.0,-3.0,1650846958017807.0
5.0,17.0,63.0,18.0,3.0,1.0,1.0,0.0,1650846958038750.0
-3.0,6.0,-13.0,-6.0,-4.0,-1.0,-1.0,1.0,1650846958038750.0
1.0,-3.0,29.0,10.0,3.0,0.0,-1.0,-2.0,1650846958040755.0
-2.0,2.0,-20.0,-6.0,1.0,14.0,6.0,-11.0,1650846958040755.0
8.0,-3.0,-11.0,2.0,3.0,1.0,-3.0,17.0,1650846958053738.0
-7.0,-13.0,-13.0,-13.0,-5.0,-3.0,-2.0,1.0,1650846958053738.0
0.0,-5.0,-6.0,-1.0,-4.0,-8.0,-5.0,-2.0,1650846958059696.0
6.0,20.0,53.0,15.0,0.0,2.0,1.0,2.0,1650846958059696.0
-6.0,-27.0,-52.0,-12.0,-1.0,-2.0,-2.0,-8.0,1650846958076721.0
6.0,32.0,51.0,13.0,2.0,4.0,3.0,-3.0,1650846958076721.0
1.0,-17.0,-31.0,2.0,4.0,2.0,-3.0,2.0,1650846958077655.0
-3.0,-2.0,31.0,5.0,-2.0,-2.0,-1.0,-4.0,1650846958077655.0
7.0,8.0,12.0,1.0,-1.0,-1.0,-2.0,-2.0,1650846958098860.0
-2.0,-7.0,-54.0,-6.0,-4.0,-3.0,-3.0,-11.0,1650846958098860.0
-4.0,-11.0,-13.0,-13.0,0.0,2.0,8.0,21.0,1650846958100826.0
-25.0,2.0,14.0,12.0,0.0,-10.0,-8.0,-37.0,1650846958100826.0
4.0,-17.0,-33.0,-10.0,-4.0,-2.0,2.0,8.0,1650846958112822.0
-2.0,-4.0,15.0,-1.0,1.0,0.0,2.0,3.0,1650846958112822.0
-3.0,25.0,17.0,11.0,1.0,0.0,-3.0,-6.0,1650846958121798.0
13.0,-5.0,-10.0,2.0,4.0,1.0,-1.0,10.0,1650846958121798.0
-6.0,-1.0,-7.0,-8.0,-2.0,-2.0,5.0,-1.0,1650846958135761.0
2.0,-7.0,9.0,-6.0,-2.0,-1.0,0.0,3.0,1650846958135761.0
-6.0,-17.0,-30.0,5.0,-2.0,-4.0,2.0,-5.0,1650846958137728.0
2.0,7.0,13.0,-1.0,2.0,5.0,3.0,13.0,1650846958137728.0
-2.0,-5.0,-5.0,-11.0,-1.0,0.0,-4.0,-10.0,1650846958158739.0
8.0,30.0,9.0,12.0,1.0,-3.0,-1.0,12.0,1650846958158739.0
-3.0,-23.0,7.0,1.0,1.0,4.0,2.0,-3.0,1650846958160667.0
5.0,5.0,-16.0,-4.0,1.0,-2.0,-2.0,2.0,1650846958160667.0
-4.0,-4.0,0.0,1.0,-1.0,-1.0,1.0,-4.0,1650846958172634.0
-2.0,-6.0,-16.0,-5.0,2.0,7.0,-1.0,-1.0,1650846958172634.0
4.0,30.0,40.0,11.0,-2.0,-3.0,2.0,2.0,1650846958181610.0
-1.0,-2.0,-19.0,-2.0,-1.0,-5.0,-4.0,3.0,1650846958181610.0
8.0,2.0,12.0,-8.0,0.0,5.0,0.0,9.0,1650846958196363.0
-20.0,-47.0,4.0,8.0,2.0,-5.0,-3.0,-12.0,1650846958196363.0
5.0,44.0,-9.0,-12.0,-3.0,2.0,1.0,-5.0,1650846958198292.0
2.0,-29.0,4.0,6.0,-1.0,-3.0,-3.0,3.0,1650846958198292.0
10.0,18.0,27.0,6.0,0.0,1.0,0.0,6.0,1650846958218865.0
0.0,-5.0,-8.0,-10.0,-6.0,-3.0,0.0,3.0,1650846958218865.0
-16.0,-18.0,-7.0,-2.0,1.0,-1.0,-1.0,-17.0,1650846958220871.0
-3.0,11.0,2.0,-1.0,3.0,4.0,3.0,9.0,1650846958220871.0
0.0,3.0,0.0,1.0,-2.0,-7.0,-7.0,-12.0,1650846958232801.0
5.0,9.0,4.0,-1.0,1.0,8.0,1.0,4.0,1650846958232801.0
8.0,3.0,8.0,7.0,2.0,2.0,4.0,0.0,1650846958241789.0
1.0,9.0,-7.0,-6.0,-2.0,-3.0,-1.0,1.0,1650846958241789.0
-9.0,-20.0,-10.0,-3.0,-3.0,-2.0,0.0,-1.0,1650846958255740.0
0.0,6.0,-1.0,2.0,1.0,1.0,-3.0,-4.0,1650846958255740.0
-2.0,-14.0,-12.0,-2.0,-3.0,-4.0,-3.0,-9.0,1650846958263717.0
-1.0,-3.0,26.0,3.0,-2.0,-2.0,-1.0,2.0,1650846958263717.0
4.0,17.0,-22.0,-2.0,1.0,-1.0,-1.0,0.0,1650846958278705.0
0.0,1.0,-9.0,-4.0,-2.0,3.0,2.0,3.0,1650846958278705.0
-7.0,17.0,9.0,-6.0,-2.0,-1.0,-6.0,-4.0,1650846958280673.0
-1.0,-52.0,-36.0,-4.0,0.0,5.0,5.0,5.0,1650846958280673.0
-5.0,4.0,0.0,-5.0,-5.0,-2.0,-1.0,-4.0,1650846958292640.0
0.0,6.0,13.0,7.0,-1.0,-6.0,0.0,7.0,1650846958292640.0
7.0,-14.0,-11.0,-1.0,1.0,1.0,-2.0,4.0,1650846958301617.0
-3.0,11.0,-3.0,0.0,1.0,1.0,0.0,-5.0,1650846958301617.0
-6.0,0.0,6.0,-3.0,-3.0,1.0,-1.0,1.0,1650846958316576.0
5.0,20.0,14.0,6.0,1.0,-3.0,0.0,-2.0,1650846958316576.0
2.0,4.0,-4.0,-3.0,-1.0,-1.0,0.0,1.0,1650846958317574.0
-3.0,1.0,-13.0,-6.0,0.0,0.0,-2.0,-18.0,1650846958317574.0
12.0,-15.0,-11.0,12.0,6.0,5.0,4.0,22.0,1650846958338517.0
-5.0,-1.0,7.0,-8.0,-7.0,-6.0,-3.0,-4.0,1650846958338517.0
-1.0,-1.0,7.0,2.0,-1.0,1.0,-4.0,0.0,1650846958340520.0
2.0,14.0,-4.0,-3.0,-1.0,-2.0,-1.0,-3.0,1650846958340520.0
-2.0,-10.0,9.0,3.0,3.0,3.0,0.0,-4.0,1650846958352502.0
-3.0,-2.0,-7.0,-4.0,2.0,-4.0,-2.0,0.0,1650846958352502.0
9.0,-1.0,-16.0,-7.0,2.0,8.0,8.0,13.0,1650846958361457.0
2.0,-22.0,10.0,9.0,-2.0,-6.0,-9.0,-3.0,1650846958361457.0
7.0,19.0,2.0,1.0,0.0,0.0,0.0,7.0,1650846958376420.0
-21.0,-12.0,-3.0,0.0,-3.0,-4.0,0.0,-11.0,1650846958376420.0
3.0,-11.0,-14.0,-6.0,0.0,0.0,2.0,3.0,1650846958377414.0
5.0,38.0,4.0,-3.0,-3.0,-1.0,3.0,4.0,1650846958377414.0
-7.0,-5.0,7.0,4.0,0.0,-1.0,-3.0,-11.0,1650846958399355.0
9.0,-9.0,-5.0,-6.0,-2.0,1.0,2.0,8.0,1650846958399355.0
-1.0,0.0,16.0,9.0,3.0,-2.0,-3.0,-4.0,1650846958400353.0
-3.0,3.0,-17.0,-3.0,-1.0,-1.0,1.0,3.0,1650846958400353.0
-6.0,-9.0,-1.0,-7.0,-3.0,-3.0,0.0,-3.0,1650846958412323.0
1.0,7.0,9.0,7.0,4.0,0.0,-9.0,-9.0,1650846958412323.0
-2.0,-11.0,-11.0,-3.0,-4.0,0.0,1.0,-1.0,1650846958421308.0
3.0,21.0,33.0,8.0,2.0,-1.0,0.0,2.0,1650846958421308.0
1.0,-11.0,-12.0,-4.0,-2.0,-3.0,-1.0,-4.0,1650846958435935.0
-2.0,-6.0,-2.0,-3.0,2.0,3.0,5.0,6.0,1650846958435935.0
3.0,9.0,-8.0,1.0,0.0,-1.0,-5.0,1.0,1650846958437929.0
-1.0,-6.0,11.0,2.0,-1.0,-2.0,2.0,-2.0,1650846958437929.0
-3.0,6.0,-6.0,-2.0,-1.0,-2.0,-2.0,-5.0,1650846958458876.0
4.0,-5.0,-4.0,4.0,2.0,1.0,-1.0,-1.0,1650846958458876.0
-5.0,-10.0,9.0,3.0,0.0,-7.0,-3.0,-5.0,1650846958459871.0
3.0,8.0,-13.0,-10.0,-5.0,2.0,0.0,7.0,1650846958459871.0
-2.0,18.0,17.0,5.0,0.0,-1.0,-2.0,-5.0,1650846958472836.0
2.0,-8.0,-8.0,-4.0,-1.0,-3.0,-3.0,1.0,1650846958472836.0
2.0,1.0,17.0,3.0,2.0,2.0,2.0,10.0,1650846958481812.0
-15.0,-12.0,-24.0,-2.0,-2.0,-2.0,-4.0,-26.0,1650846958481812.0
2.0,-2.0,12.0,1.0,-3.0,-1.0,-1.0,3.0,1650846958495779.0
3.0,13.0,8.0,1.0,1.0,7.0,3.0,7.0,1650846958495779.0
-7.0,15.0,-9.0,-7.0,-3.0,-2.0,0.0,-7.0,1650846958497771.0
-2.0,-24.0,-11.0,-1.0,2.0,0.0,1.0,6.0,1650846958497771.0
-1.0,3.0,17.0,11.0,0.0,1.0,-1.0,-2.0,1650846958518713.0
-6.0,-2.0,-11.0,-5.0,-2.0,-1.0,-2.0,-5.0,1650846958518713.0
6.0,2.0,-6.0,-8.0,-3.0,-6.0,-1.0,1.0,1650846958520708.0
2.0,-5.0,1.0,0.0,0.0,0.0,-3.0,0.0,1650846958520708.0
-4.0,0.0,-8.0,0.0,4.0,1.0,3.0,-2.0,1650846958532365.0
2.0,6.0,2.0,-2.0,0.0,-1.0,3.0,2.0,1650846958532365.0
2.0,-4.0,10.0,6.0,1.0,-1.0,-2.0,-1.0,1650846958541356.0
2.0,6.0,21.0,-4.0,-2.0,0.0,1.0,4.0,1650846958541356.0
-5.0,-13.0,-62.0,-10.0,-4.0,-3.0,-2.0,-1.0,1650846958556302.0
-1.0,-2.0,12.0,3.0,0.0,-1.0,3.0,-2.0,1650846958556302.0
-4.0,-3.0,-11.0,-11.0,-4.0,-5.0,-4.0,-3.0,1650846958558298.0
2.0,5.0,9.0,3.0,3.0,8.0,3.0,4.0,1650846958558298.0
1.0,3.0,7.0,8.0,4.0,3.0,1.0,0.0,1650846958579251.0
4.0,-10.0,-15.0,-6.0,-2.0,0.0,2.0,-1.0,1650846958579251.0
-2.0,-10.0,-14.0,-1.0,-5.0,-6.0,-4.0,1.0,1650846958580239.0
6.0,8.0,11.0,3.0,0.0,-3.0,-1.0,-1.0,1650846958580239.0
-8.0,-7.0,-4.0,-8.0,-4.0,1.0,4.0,2.0,1650846958601182.0
-1.0,2.0,2.0,6.0,-2.0,-4.0,0.0,1.0,1650846958601182.0
1.0,5.0,7.0,-1.0,4.0,3.0,-1.0,-2.0,1650846958603177.0
1.0,-4.0,-7.0,-4.0,-2.0,-2.0,0.0,5.0,1650846958603177.0
-1.0,-3.0,-5.0,-4.0,0.0,-1.0,-2.0,-4.0,1650846958617236.0
0.0,8.0,6.0,4.0,-3.0,-3.0,-1.0,4.0,1650846958617236.0
-4.0,-17.0,1.0,0.0,-1.0,3.0,-1.0,-2.0,1650846958622216.0
3.0,19.0,-6.0,-2.0,0.0,-1.0,-1.0,0.0,1650846958622216.0
0.0,-4.0,0.0,-3.0,2.0,0.0,2.0,-1.0,1650846958639183.0
-1.0,3.0,3.0,0.0,-3.0,-2.0,-4.0,-2.0,1650846958639183.0
0.0,0.0,3.0,1.0,-1.0,-1.0,-2.0,-1.0,1650846958640156.0
0.0,0.0,-2.0,-3.0,-1.0,-2.0,-2.0,-1.0,1650846958640156.0
1.0,15.0,9.0,0.0,-1.0,-2.0,-2.0,1.0,1650846958661130.0
-2.0,-22.0,5.0,1.0,6.0,1.0,0.0,-2.0,1650846958661130.0
-1.0,4.0,-13.0,-3.0,-3.0,1.0,-2.0,-3.0,1650846958663119.0
-3.0,-3.0,1.0,3.0,0.0,-3.0,-2.0,-2.0,1650846958663119.0
2.0,-4.0,13.0,-1.0,0.0,0.0,-1.0,5.0,1650846958676090.0
2.0,14.0,-5.0,-5.0,-5.0,0.0,1.0,-3.0,1650846958676090.0
-2.0,3.0,6.0,1.0,-2.0,-3.0,1.0,1.0,1650846958678073.0
-1.0,-8.0,-9.0,-5.0,2.0,-1.0,2.0,2.0,1650846958678073.0
0.0,-7.0,-3.0,2.0,0.0,1.0,-2.0,-4.0,1650846958699135.0
1.0,6.0,3.0,5.0,3.0,-3.0,-3.0,1.0,1650846958699135.0
0.0,-4.0,-1.0,0.0,-1.0,1.0,0.0,1.0,1650846958700112.0
-1.0,2.0,5.0,2.0,-6.0,-4.0,-1.0,-1.0,1650846958700112.0
1.0,-1.0,3.0,2.0,5.0,2.0,-1.0,-2.0,1650846958721076.0
-3.0,-6.0,-13.0,-13.0,-4.0,0.0,-2.0,-2.0,1650846958721076.0
0.0,7.0,4.0,12.0,2.0,1.0,2.0,-3.0,1650846958723042.0
-1.0,-12.0,-3.0,-3.0,-1.0,0.0,0.0,1.0,1650846958723042.0
1.0,5.0,3.0,-6.0,-3.0,-3.0,1.0,-4.0,1650846958736008.0
0.0,-6.0,-2.0,13.0,6.0,1.0,-1.0,2.0,1650846958736008.0
0.0,-4.0,1.0,-4.0,-5.0,-2.0,2.0,-1.0,1650846958749998.0
-1.0,4.0,-3.0,-2.0,1.0,1.0,-3.0,-1.0,1650846958749998.0
-2.0,-3.0,3.0,2.0,-3.0,-2.0,-4.0,-1.0,1650846958758948.0
-3.0,-2.0,0.0,-7.0,-3.0,0.0,0.0,-3.0,1650846958758948.0
-3.0,1.0,-5.0,-6.0,0.0,1.0,-1.0,-1.0,1650846958759974.0
-1.0,0.0,1.0,7.0,-2.0,-3.0,1.0,1.0,1650846958759974.0
1.0,0.0,5.0,-4.0,-3.0,-4.0,-3.0,-2.0,1650846958781013.0
0.0,1.0,-2.0,-7.0,-2.0,0.0,-2.0,1.0,1650846958781013.0
-3.0,-2.0,-5.0,-6.0,7.0,4.0,5.0,1.0,1650846958783009.0
-3.0,-4.0,-3.0,-6.0,-14.0,-10.0,-6.0,-1.0,1650846958783009.0
2.0,2.0,-3.0,5.0,8.0,4.0,-7.0,-1.0,1650846958803953.0
0.0,2.0,-2.0,-3.0,0.0,0.0,2.0,0.0,1650846958803953.0
-1.0,-2.0,3.0,-2.0,-5.0,-2.0,3.0,1.0,1650846958804949.0
1.0,-4.0,-15.0,-15.0,0.0,2.0,3.0,0.0,1650846958804949.0
-2.0,-1.0,6.0,-3.0,-5.0,-2.0,-3.0,-3.0,1650846958817915.0
-3.0,-2.0,3.0,13.0,3.0,-3.0,-2.0,-6.0,1650846958817915.0
0.0,-1.0,-2.0,-17.0,-2.0,-3.0,-8.0,-3.0,1650846958818919.0
1.0,2.0,2.0,15.0,10.0,4.0,7.0,2.0,1650846958818919.0
3.0,-4.0,-6.0,-5.0,-5.0,-1.0,15.0,6.0,1650846958840853.0
-2.0,-1.0,2.0,-1.0,-2.0,-2.0,-6.0,-1.0,1650846958840853.0
-1.0,0.0,5.0,17.0,5.0,1.0,-4.0,1.0,1650846958841858.0
-1.0,3.0,7.0,-1.0,-1.0,-1.0,-1.0,-1.0,1650846958841858.0
-3.0,-3.0,-2.0,1.0,-1.0,-9.0,-13.0,-7.0,1650846958854816.0
0.0,-1.0,-6.0,-9.0,-2.0,1.0,3.0,-1.0,1650846958854816.0
0.0,3.0,3.0,3.0,-2.0,2.0,17.0,4.0,1650846958862794.0
-3.0,-1.0,0.0,2.0,4.0,1.0,-11.0,-3.0,1650846958862794.0
-3.0,-5.0,-9.0,-7.0,-6.0,-5.0,-5.0,-4.0,1650846958877754.0
-1.0,-2.0,-3.0,-2.0,0.0,-1.0,1.0,-3.0,1650846958877754.0
-1.0,0.0,-2.0,-1.0,3.0,7.0,-8.0,-1.0,1650846958878752.0
-1.0,-1.0,5.0,8.0,3.0,1.0,9.0,0.0,1650846958878752.0
-4.0,-5.0,-3.0,-4.0,0.0,0.0,10.0,0.0,1650846958900695.0
-4.0,-1.0,-1.0,3.0,-4.0,-3.0,-2.0,-1.0,1650846958900695.0
2.0,-2.0,-1.0,-2.0,-4.0,0.0,-6.0,-4.0,1650846958901691.0
3.0,2.0,3.0,-3.0,1.0,2.0,-1.0,1.0,1650846958901691.0
1.0,1.0,-6.0,-3.0,0.0,-2.0,-1.0,3.0,1650846958914658.0
-4.0,-5.0,-2.0,-2.0,-1.0,3.0,10.0,1.0,1650846958914658.0
-4.0,-3.0,3.0,4.0,2.0,-5.0,-14.0,-2.0,1650846958922723.0
2.0,-5.0,-4.0,-6.0,-1.0,-1.0,-2.0,1.0,1650846958922723.0
6.0,10.0,8.0,6.0,3.0,-1.0,-2.0,-1.0,1650846958937677.0
-3.0,-6.0,-6.0,-4.0,-8.0,-12.0,1.0,-10.0,1650846958937677.0
-3.0,-4.0,-10.0,-12.0,-4.0,1.0,3.0,6.0,1650846958938674.0
-3.0,2.0,6.0,14.0,0.0,-5.0,-12.0,-7.0,1650846958938674.0
-3.0,8.0,14.0,12.0,6.0,1.0,-1.0,2.0,1650846958960685.0
1.0,-2.0,-6.0,-7.0,-2.0,11.0,16.0,12.0,1650846958960685.0
7.0,0.0,-1.0,-1.0,-7.0,-14.0,-11.0,-8.0,1650846958961614.0
-25.0,-6.0,-8.0,-9.0,-2.0,0.0,0.0,-23.0,1650846958961614.0
14.0,-2.0,-4.0,-3.0,-5.0,-11.0,-12.0,21.0,1650846958982878.0
15.0,10.0,6.0,5.0,5.0,9.0,1.0,2.0,1650846958982878.0
-4.0,3.0,-2.0,-2.0,-3.0,-2.0,7.0,-1.0,1650846958990844.0
5.0,3.0,10.0,5.0,4.0,5.0,-14.0,2.0,1650846958990844.0
-7.0,-5.0,-1.0,-3.0,-1.0,-1.0,23.0,-3.0,1650846958998516.0
3.0,6.0,2.0,4.0,7.0,10.0,3.0,10.0,1650846958998516.0
5.0,-7.0,-4.0,-5.0,-4.0,-7.0,-13.0,-1.0,1650846958998849.0
0.0,2.0,2.0,2.0,4.0,-2.0,9.0,9.0,1650846958998849.0
6.0,1.0,-4.0,-3.0,2.0,8.0,-6.0,-5.0,1650846959021018.0
21.0,6.0,6.0,5.0,1.0,-1.0,7.0,13.0,1650846959021018.0
-20.0,-7.0,-5.0,1.0,-2.0,1.0,-1.0,-10.0,1650846959021018.0
-5.0,5.0,10.0,6.0,0.0,-1.0,-9.0,-5.0,1650846959021018.0
-13.0,-17.0,-8.0,-4.0,-4.0,-2.0,-2.0,-3.0,1650846959044127.0
-2.0,-11.0,-4.0,0.0,-2.0,-6.0,-15.0,-9.0,1650846959044127.0
6.0,10.0,6.0,9.0,11.0,6.0,12.0,9.0,1650846959044127.0
44.0,16.0,-1.0,-7.0,-7.0,1.0,26.0,19.0,1650846959044127.0
-22.0,-6.0,-3.0,3.0,0.0,4.0,-7.0,-10.0,1650846959058082.0
-26.0,-15.0,-1.0,2.0,3.0,6.0,3.0,-4.0,1650846959058082.0
-1.0,1.0,5.0,5.0,2.0,-5.0,-11.0,-6.0,1650846959059081.0
1.0,2.0,-6.0,-2.0,4.0,1.0,2.0,1.0,1650846959059081.0
32.0,18.0,6.0,3.0,1.0,3.0,10.0,9.0,1650846959080351.0
-19.0,-6.0,-4.0,-4.0,-6.0,-10.0,-5.0,0.0,1650846959080351.0
4.0,1.0,9.0,4.0,4.0,7.0,4.0,-2.0,1650846959081281.0
5.0,-1.0,-13.0,-10.0,-6.0,-9.0,-6.0,-3.0,1650846959081281.0
-1.0,-10.0,-3.0,-2.0,1.0,1.0,4.0,5.0,1650846959103443.0
5.0,8.0,7.0,0.0,1.0,5.0,-7.0,0.0,1650846959103443.0
6.0,4.0,1.0,8.0,2.0,5.0,13.0,4.0,1650846959103443.0
-40.0,-13.0,-13.0,-16.0,-7.0,-8.0,-10.0,-12.0,1650846959103443.0
-13.0,0.0,-8.0,-3.0,-3.0,-2.0,-3.0,-5.0,1650846959118362.0
1.0,2.0,-3.0,-2.0,1.0,-8.0,-9.0,-9.0,1650846959118362.0
4.0,-1.0,9.0,7.0,2.0,1.0,12.0,8.0,1650846959118362.0
0.0,0.0,0.0,11.0,7.0,15.0,9.0,3.0,1650846959118362.0
-4.0,-1.0,-2.0,1.0,-1.0,-1.0,-3.0,0.0,1650846959140757.0
-17.0,2.0,16.0,-2.0,2.0,11.0,18.0,19.0,1650846959140757.0
-18.0,-12.0,-7.0,-11.0,-12.0,-17.0,-9.0,-9.0,1650846959141687.0
7.0,2.0,5.0,20.0,4.0,-7.0,-3.0,5.0,1650846959141687.0
26.0,7.0,-9.0,-1.0,4.0,15.0,-2.0,-14.0,1650846959163540.0
-29.0,-2.0,4.0,-2.0,-3.0,-4.0,-11.0,-4.0,1650846959163540.0
12.0,2.0,-1.0,0.0,4.0,9.0,28.0,21.0,1650846959163773.0
-6.0,-9.0,-8.0,-14.0,-14.0,-13.0,-12.0,-4.0,1650846959163773.0
1.0,6.0,9.0,3.0,1.0,-2.0,-4.0,-1.0,1650846959177903.0
17.0,-2.0,-11.0,9.0,6.0,2.0,-6.0,-4.0,1650846959177903.0
0.0,4.0,3.0,5.0,-1.0,6.0,3.0,-2.0,1650846959178833.0
0.0,-1.0,5.0,6.0,5.0,4.0,10.0,3.0,1650846959178833.0
-5.0,-4.0,7.0,2.0,-5.0,-1.0,-8.0,-8.0,1650846959200947.0
26.0,6.0,-14.0,-14.0,3.0,2.0,1.0,-3.0,1650846959200947.0
0.0,12.0,20.0,23.0,6.0,-2.0,-7.0,2.0,1650846959201879.0
-1.0,-21.0,-23.0,-14.0,-10.0,-5.0,0.0,4.0,1650846959201879.0
23.0,9.0,7.0,-1.0,-4.0,-9.0,-5.0,0.0,1650846959223083.0
-43.0,2.0,0.0,2.0,-3.0,-6.0,0.0,-3.0,1650846959223083.0
0.0,-8.0,-18.0,-24.0,-11.0,-3.0,-7.0,-5.0,1650846959224080.0
0.0,5.0,6.0,17.0,3.0,6.0,10.0,5.0,1650846959224080.0
-9.0,-5.0,-6.0,-12.0,-9.0,-4.0,-4.0,-6.0,1650846959238537.0
6.0,-21.0,-10.0,-6.0,-10.0,-14.0,-12.0,1.0,1650846959238537.0
0.0,12.0,9.0,-13.0,-6.0,-2.0,-6.0,-8.0,1650846959239084.0
29.0,1.0,1.0,20.0,12.0,3.0,7.0,14.0,1650846959239084.0
-37.0,-13.0,-5.0,-8.0,4.0,10.0,11.0,-5.0,1650846959260894.0
2.0,5.0,6.0,11.0,5.0,-1.0,-4.0,-8.0,1650846959260894.0
18.0,1.0,-9.0,-14.0,-7.0,-2.0,-6.0,-3.0,1650846959261850.0
-15.0,-11.0,-4.0,-21.0,-5.0,-1.0,-4.0,5.0,1650846959261850.0
31.0,14.0,2.0,12.0,6.0,0.0,-1.0,6.0,1650846959274789.0
4.0,13.0,9.0,-7.0,-10.0,-14.0,-2.0,-6.0,1650846959274789.0
-4.0,-4.0,-7.0,9.0,10.0,10.0,-6.0,-2.0,1650846959283540.0
-17.0,5.0,1.0,-14.0,-10.0,-2.0,2.0,-9.0,1650846959283540.0
-57.0,-15.0,-10.0,1.0,2.0,-3.0,0.0,8.0,1650846959297817.0
47.0,10.0,4.0,-5.0,-5.0,-3.0,7.0,2.0,1650846959297817.0
-14.0,-17.0,-25.0,-20.0,-2.0,-1.0,3.0,-2.0,1650846959298745.0
41.0,25.0,28.0,63.0,36.0,12.0,1.0,12.0,1650846959298745.0
-41.0,1.0,19.0,-1.0,2.0,8.0,-4.0,-12.0,1650846959320282.0
-21.0,-10.0,-17.0,-34.0,-17.0,-9.0,-3.0,-4.0,1650846959320282.0
11.0,9.0,16.0,58.0,19.0,1.0,3.0,10.0,1650846959321279.0
-11.0,-14.0,-22.0,-44.0,-17.0,-4.0,-6.0,-15.0,1650846959321279.0
48.0,6.0,-11.0,-2.0,1.0,0.0,3.0,11.0,1650846959335270.0
5.0,0.0,4.0,3.0,-3.0,-2.0,2.0,3.0,1650846959335270.0
0.0,-13.0,-14.0,-22.0,-10.0,-5.0,-10.0,-4.0,1650846959343222.0
-42.0,-10.0,-3.0,-18.0,-6.0,-14.0,-15.0,-19.0,1650846959343222.0
88.0,24.0,9.0,-2.0,-10.0,-1.0,10.0,32.0,1650846959358208.0
-39.0,-9.0,9.0,66.0,32.0,9.0,14.0,-2.0,1650846959358208.0
-7.0,3.0,0.0,1.0,10.0,2.0,-3.0,-4.0,1650846959359179.0
3.0,3.0,13.0,2.0,0.0,-2.0,-8.0,0.0,1650846959359179.0
35.0,6.0,-7.0,-16.0,-12.0,1.0,19.0,12.0,1650846959380893.0
-1.0,2.0,-4.0,-13.0,-8.0,-3.0,-7.0,9.0,1650846959380893.0
-25.0,-12.0,8.0,13.0,-5.0,-10.0,-15.0,-20.0,1650846959381824.0
13.0,9.0,1.0,29.0,34.0,22.0,10.0,12.0,1650846959381824.0
-80.0,-36.0,-20.0,-34.0,-27.0,-17.0,-22.0,-34.0,1650846959403765.0
44.0,2.0,-1.0,-1.0,-5.0,3.0,-3.0,10.0,1650846959403765.0
-9.0,3.0,-22.0,-52.0,-15.0,-1.0,-1.0,1.0,1650846959404763.0
-6.0,-16.0,-3.0,-8.0,-23.0,-10.0,-2.0,-20.0,1650846959404763.0
15.0,8.0,-3.0,8.0,29.0,10.0,11.0,21.0,1650846959417727.0
2.0,4.0,-6.0,-28.0,-26.0,-12.0,5.0,-7.0,1650846959417727.0
0.0,-6.0,12.0,21.0,20.0,14.0,-7.0,-7.0,1650846959418724.0
22.0,-1.0,-4.0,-44.0,-28.0,-9.0,1.0,6.0,1650846959418724.0
24.0,0.0,-4.0,18.0,2.0,-12.0,-13.0,-2.0,1650846959440693.0
-52.0,-10.0,-3.0,15.0,24.0,19.0,-1.0,-15.0,1650846959440693.0
56.0,28.0,-3.0,-26.0,-21.0,-5.0,12.0,30.0,1650846959441678.0
-66.0,-36.0,1.0,30.0,6.0,-3.0,-10.0,-29.0,1650846959441678.0
-10.0,2.0,8.0,14.0,9.0,12.0,-6.0,-3.0,1650846959463847.0
3.0,7.0,1.0,-21.0,-16.0,-16.0,-13.0,-5.0,1650846959463847.0
-3.0,-18.0,-9.0,-1.0,-7.0,-2.0,11.0,5.0,1650846959464847.0
36.0,12.0,4.0,-21.0,5.0,11.0,0.0,3.0,1650846959464847.0
-62.0,-4.0,16.0,27.0,15.0,5.0,25.0,11.0,1650846959477879.0
46.0,1.0,-11.0,-14.0,-11.0,-1.0,16.0,14.0,1650846959477879.0
-27.0,0.0,2.0,-19.0,-14.0,-2.0,-12.0,-16.0,1650846959478809.0
-42.0,-5.0,-12.0,29.0,31.0,1.0,6.0,3.0,1650846959478809.0
48.0,-19.0,-22.0,-21.0,-13.0,3.0,-5.0,4.0,1650846959500750.0
15.0,29.0,41.0,49.0,17.0,5.0,-4.0,5.0,1650846959500750.0
-60.0,-24.0,-46.0,-42.0,-7.0,1.0,1.0,-11.0,1650846959501748.0
7.0,17.0,33.0,30.0,-3.0,-6.0,-14.0,-1.0,1650846959501748.0
13.0,11.0,19.0,12.0,1.0,10.0,10.0,-5.0,1650846959523717.0
35.0,-11.0,-18.0,-26.0,-4.0,3.0,16.0,29.0,1650846959523717.0
-60.0,-2.0,18.0,41.0,8.0,-13.0,-25.0,-29.0,1650846959524687.0
13.0,0.0,-8.0,-16.0,-14.0,-1.0,12.0,12.0,1650846959524687.0
-15.0,-1.0,-22.0,-39.0,-20.0,-17.0,-27.0,-16.0,1650846959537679.0
17.0,15.0,27.0,48.0,23.0,15.0,14.0,3.0,1650846959537679.0
15.0,-10.0,5.0,-20.0,8.0,0.0,5.0,12.0,1650846959538649.0
1.0,14.0,-17.0,-41.0,-18.0,-4.0,4.0,3.0,1650846959538649.0
-11.0,-10.0,46.0,78.0,19.0,-1.0,8.0,-3.0,1650846959560591.0
-58.0,-10.0,-50.0,-53.0,-15.0,-4.0,-14.0,-27.0,1650846959560591.0
-10.0,-15.0,-14.0,-2.0,-7.0,-4.0,0.0,-8.0,1650846959561589.0
19.0,8.0,24.0,-6.0,6.0,-10.0,-2.0,14.0,1650846959561589.0
-3.0,2.0,-4.0,7.0,-3.0,-1.0,10.0,-14.0,1650846959583813.0
-7.0,8.0,23.0,56.0,29.0,9.0,-19.0,0.0,1650846959583813.0
49.0,3.0,-17.0,-17.0,-5.0,-4.0,17.0,5.0,1650846959583813.0
2.0,-15.0,-40.0,-13.0,-10.0,-12.0,-20.0,-7.0,1650846959583813.0
-72.0,9.0,26.0,-11.0,-4.0,-3.0,-16.0,-22.0,1650846959599798.0
11.0,2.0,-7.0,6.0,6.0,11.0,-14.0,-13.0,1650846959599798.0
29.0,6.0,-6.0,24.0,5.0,0.0,49.0,34.0,1650846959600773.0
30.0,13.0,46.0,81.0,61.0,24.0,6.0,8.0,1650846959600773.0
-54.0,-18.0,-19.0,-32.0,-12.0,1.0,-4.0,-4.0,1650846959620714.0
-24.0,13.0,43.0,8.0,7.0,9.0,-30.0,-28.0,1650846959620714.0
15.0,29.0,-31.0,-27.0,-15.0,-1.0,15.0,34.0,1650846959621712.0
-42.0,-39.0,-12.0,8.0,-11.0,-14.0,6.0,-19.0,1650846959621712.0
25.0,5.0,-3.0,22.0,4.0,-10.0,-18.0,1.0,1650846959644655.0
-23.0,-32.0,-23.0,-36.0,-11.0,1.0,9.0,-15.0,1650846959644655.0
32.0,12.0,27.0,20.0,-9.0,-9.0,-31.0,-25.0,1650846959645649.0
-19.0,-5.0,-11.0,-39.0,-24.0,14.0,41.0,27.0,1650846959645649.0
-39.0,-18.0,-48.0,-24.0,14.0,-2.0,-7.0,-11.0,1650846959657616.0
35.0,5.0,18.0,1.0,-10.0,-21.0,-12.0,5.0,1650846959657616.0
-29.0,-12.0,-11.0,10.0,8.0,-1.0,0.0,-2.0,1650846959658613.0
44.0,18.0,2.0,-28.0,-2.0,16.0,1.0,10.0,1650846959658613.0
1.0,-14.0,-9.0,-18.0,-22.0,-20.0,7.0,14.0,1650846959680768.0
17.0,-1.0,11.0,0.0,8.0,11.0,16.0,11.0,1650846959680768.0
-16.0,22.0,24.0,30.0,12.0,4.0,-36.0,-22.0,1650846959681761.0
30.0,-7.0,18.0,-12.0,-14.0,-1.0,4.0,-8.0,1650846959681761.0
-19.0,9.0,-14.0,25.0,15.0,9.0,-15.0,-6.0,1650846959703753.0
33.0,-17.0,-39.0,-13.0,7.0,-8.0,35.0,33.0,1650846959703753.0
13.0,-1.0,47.0,37.0,11.0,4.0,-14.0,-1.0,1650846959704750.0
-22.0,22.0,-9.0,3.0,-6.0,-8.0,-11.0,-12.0,1650846959704750.0
17.0,6.0,19.0,-5.0,-3.0,13.0,7.0,-5.0,1650846959717718.0
17.0,-3.0,-17.0,-6.0,-12.0,-6.0,-15.0,1.0,1650846959717718.0
-8.0,-8.0,17.0,26.0,11.0,5.0,7.0,-4.0,1650846959718713.0
-12.0,16.0,59.0,23.0,7.0,-9.0,-6.0,5.0,1650846959718713.0
59.0,-6.0,-59.0,-45.0,-14.0,13.0,36.0,22.0,1650846959740654.0
-62.0,14.0,66.0,73.0,45.0,9.0,-13.0,-19.0,1650846959740654.0
15.0,-13.0,-40.0,-38.0,-10.0,8.0,29.0,15.0,1650846959741651.0
-37.0,-8.0,-27.0,-59.0,-32.0,-33.0,-51.0,-35.0,1650846959741651.0
8.0,4.0,48.0,61.0,16.0,6.0,8.0,8.0,1650846959763593.0
