EMG_s0,EMG_s1,EMG_s2,EMG_s3,EMG_s4,EMG_s5,EMG_s6,EMG_s7,timestamp
-2.0,9.0,-6.0,-3.0,2.0,-8.0,-2.0,3.0,1650849136224106.0
-3.0,-13.0,-2.0,-35.0,-11.0,-9.0,-5.0,-8.0,1650849136224106.0
0.0,-3.0,1.0,-5.0,-10.0,10.0,8.0,-2.0,1650849136225107.0
1.0,-3.0,0.0,-5.0,2.0,-3.0,-1.0,0.0,1650849136225107.0
1.0,-4.0,1.0,-7.0,1.0,-3.0,1.0,-4.0,1650849136226101.0
0.0,1.0,-1.0,10.0,1.0,-6.0,-2.0,-1.0,1650849136226101.0
-2.0,3.0,-2.0,3.0,-6.0,-5.0,-6.0,1.0,1650849136227099.0
-2.0,1.0,-1.0,-2.0,1.0,-2.0,-1.0,-2.0,1650849136227099.0
-2.0,-3.0,-1.0,1.0,-2.0,-1.0,0.0,-3.0,1650849136237072.0
0.0,6.0,0.0,14.0,2.0,3.0,-2.0,-1.0,1650849136237072.0
0.0,2.0,-1.0,0.0,0.0,-3.0,0.0,-3.0,1650849136246049.0
0.0,-2.0,-1.0,-3.0,-7.0,-13.0,-1.0,0.0,1650849136246049.0
-1.0,2.0,0.0,6.0,9.0,16.0,1.0,2.0,1650849136254027.0
0.0,0.0,-1.0,0.0,0.0,4.0,6.0,3.0,1650849136254027.0
0.0,-3.0,-3.0,-2.0,2.0,-16.0,0.0,0.0,1650849136267992.0
-1.0,5.0,2.0,8.0,12.0,29.0,5.0,2.0,1650849136267992.0
1.0,-4.0,1.0,0.0,-5.0,-8.0,-3.0,-2.0,1650849136278974.0
-1.0,1.0,-1.0,-1.0,-2.0,-5.0,-2.0,0.0,1650849136278974.0
-1.0,1.0,-1.0,-1.0,-9.0,-3.0,-1.0,-1.0,1650849136291048.0
0.0,-1.0,-1.0,4.0,-6.0,-33.0,-4.0,-2.0,1650849136291048.0
0.0,-1.0,-1.0,1.0,15.0,47.0,4.0,0.0,1650849136299013.0
0.0,0.0,0.0,0.0,1.0,-4.0,0.0,0.0,1650849136299013.0
0.0,-2.0,-2.0,-1.0,-4.0,-6.0,-3.0,-2.0,1650849136312045.0
-1.0,0.0,0.0,-4.0,0.0,3.0,-1.0,-1.0,1650849136312045.0
0.0,5.0,-1.0,13.0,7.0,3.0,1.0,2.0,1650849136353896.0
1.0,0.0,1.0,-2.0,3.0,4.0,3.0,1.0,1650849136353896.0
0.0,-4.0,-2.0,-9.0,1.0,13.0,1.0,-1.0,1650849136353896.0
-3.0,0.0,-2.0,2.0,-9.0,-19.0,-5.0,-1.0,1650849136353896.0
-3.0,0.0,0.0,2.0,0.0,17.0,0.0,-1.0,1650849136354876.0
1.0,-4.0,1.0,-8.0,8.0,-3.0,1.0,-3.0,1650849136354876.0
-1.0,-1.0,0.0,5.0,-1.0,-8.0,-3.0,-1.0,1650849136358877.0
0.0,5.0,-2.0,2.0,-3.0,4.0,0.0,-1.0,1650849136358877.0
0.0,-3.0,-2.0,-10.0,-16.0,-13.0,-1.0,-2.0,1650849136364848.0
0.0,1.0,2.0,4.0,12.0,9.0,3.0,2.0,1650849136364848.0
-1.0,2.0,-1.0,4.0,-1.0,-7.0,-3.0,0.0,1650849136373832.0
-1.0,-2.0,-1.0,-3.0,7.0,7.0,-2.0,-2.0,1650849136373832.0
0.0,-4.0,2.0,-5.0,-5.0,2.0,8.0,2.0,1650849136379835.0
-1.0,0.0,-1.0,4.0,-12.0,2.0,-2.0,0.0,1650849136379835.0
0.0,1.0,0.0,-2.0,7.0,-13.0,-1.0,2.0,1650849136396589.0
1.0,-3.0,1.0,-2.0,-1.0,10.0,1.0,1.0,1650849136396589.0
1.0,1.0,-2.0,2.0,10.0,3.0,-1.0,-2.0,1650849136402570.0
-2.0,1.0,-3.0,1.0,-6.0,-14.0,-2.0,0.0,1650849136402570.0
-1.0,0.0,2.0,-1.0,2.0,15.0,0.0,0.0,1650849136425932.0
-1.0,0.0,0.0,-5.0,-6.0,-22.0,-1.0,-1.0,1650849136425932.0
-1.0,1.0,0.0,0.0,2.0,16.0,-1.0,-1.0,1650849136425932.0
-1.0,-1.0,-3.0,-3.0,-2.0,-8.0,-1.0,-2.0,1650849136425932.0
-1.0,-1.0,-1.0,-3.0,-20.0,-7.0,-3.0,-2.0,1650849136447950.0
2.0,0.0,2.0,6.0,17.0,13.0,5.0,3.0,1650849136447950.0
-1.0,-3.0,-1.0,-5.0,-3.0,-9.0,-4.0,-2.0,1650849136448885.0
1.0,-1.0,0.0,-2.0,-6.0,-10.0,-3.0,-1.0,1650849136448885.0
-1.0,0.0,-1.0,3.0,3.0,4.0,0.0,-1.0,1650849136462915.0
-2.0,-2.0,0.0,-2.0,-5.0,4.0,0.0,1.0,1650849136462915.0
0.0,-1.0,-2.0,-1.0,-6.0,-32.0,-5.0,-3.0,1650849136463845.0
-1.0,0.0,-3.0,0.0,4.0,31.0,-3.0,0.0,1650849136463845.0
-1.0,-2.0,-2.0,1.0,2.0,5.0,5.0,0.0,1650849136485979.0
1.0,-1.0,0.0,-2.0,1.0,-2.0,-1.0,-2.0,1650849136485979.0
0.0,-1.0,1.0,1.0,-2.0,1.0,0.0,0.0,1650849136485979.0
-2.0,1.0,0.0,0.0,-5.0,-6.0,-5.0,-2.0,1650849136485979.0
-1.0,-1.0,0.0,2.0,7.0,2.0,0.0,0.0,1650849136500798.0
-2.0,-1.0,-2.0,4.0,6.0,-3.0,0.0,-1.0,1650849136500798.0
-1.0,-1.0,-3.0,-3.0,-3.0,-5.0,-2.0,0.0,1650849136500798.0
0.0,-1.0,0.0,-1.0,-7.0,-3.0,1.0,-2.0,1650849136500798.0
1.0,0.0,-3.0,0.0,-7.0,-18.0,-3.0,0.0,1650849136522731.0
1.0,1.0,1.0,2.0,7.0,23.0,5.0,0.0,1650849136522731.0
-1.0,-1.0,1.0,-1.0,3.0,10.0,-2.0,0.0,1650849136523729.0
-1.0,-2.0,-1.0,-3.0,-4.0,-6.0,1.0,0.0,1650849136523729.0
1.0,0.0,1.0,0.0,0.0,3.0,-1.0,0.0,1650849136545938.0
-1.0,-2.0,0.0,3.0,6.0,-9.0,-4.0,0.0,1650849136545938.0
0.0,-1.0,-2.0,0.0,-1.0,-1.0,-2.0,0.0,1650849136545938.0
-3.0,-2.0,0.0,-4.0,-7.0,-12.0,-2.0,-2.0,1650849136545938.0
0.0,1.0,0.0,-1.0,-12.0,3.0,-2.0,-2.0,1650849136560898.0
3.0,-1.0,2.0,7.0,15.0,11.0,5.0,2.0,1650849136560898.0
0.0,0.0,1.0,-2.0,2.0,3.0,2.0,1.0,1650849136560898.0
-1.0,-3.0,-1.0,1.0,-3.0,-4.0,-1.0,-1.0,1650849136560898.0
-1.0,-1.0,1.0,-5.0,-9.0,-27.0,-6.0,-3.0,1650849136582793.0
-1.0,0.0,-2.0,-4.0,-8.0,27.0,4.0,1.0,1650849136582793.0
0.0,0.0,-1.0,1.0,2.0,0.0,-2.0,-2.0,1650849136583771.0
-1.0,1.0,0.0,4.0,5.0,0.0,0.0,2.0,1650849136583771.0
-2.0,-1.0,-2.0,0.0,3.0,0.0,0.0,-1.0,1650849136605778.0
-1.0,-1.0,-1.0,-5.0,-11.0,-24.0,-7.0,-2.0,1650849136605778.0
2.0,-1.0,0.0,1.0,2.0,20.0,3.0,2.0,1650849136606708.0
1.0,-2.0,-1.0,-3.0,-4.0,-2.0,0.0,0.0,1650849136606708.0
-1.0,1.0,1.0,0.0,1.0,5.0,-1.0,-1.0,1650849136620740.0
-1.0,-1.0,-1.0,-1.0,1.0,5.0,-1.0,-1.0,1650849136620740.0
-2.0,-3.0,-2.0,-2.0,-2.0,-9.0,-1.0,-2.0,1650849136621688.0
-1.0,-2.0,-1.0,-1.0,2.0,2.0,0.0,-1.0,1650849136621688.0
0.0,-2.0,-3.0,0.0,-2.0,3.0,2.0,1.0,1650849136642639.0
0.0,-2.0,0.0,-3.0,-12.0,-13.0,-5.0,-3.0,1650849136642639.0
0.0,1.0,0.0,-1.0,7.0,1.0,0.0,2.0,1650849136643610.0
-2.0,0.0,0.0,0.0,2.0,8.0,4.0,-1.0,1650849136643610.0
-2.0,-1.0,0.0,0.0,-1.0,0.0,0.0,-1.0,1650849136665550.0
-2.0,0.0,-2.0,-2.0,-2.0,-1.0,-2.0,-2.0,1650849136665550.0
-1.0,-2.0,-1.0,-2.0,-7.0,-8.0,-4.0,-3.0,1650849136666548.0
0.0,0.0,0.0,1.0,2.0,-3.0,0.0,1.0,1650849136666548.0
-1.0,0.0,-2.0,3.0,10.0,11.0,3.0,2.0,1650849136680538.0
0.0,-2.0,1.0,-4.0,-6.0,-5.0,-2.0,-1.0,1650849136680538.0
-2.0,0.0,-3.0,0.0,0.0,-2.0,-2.0,-1.0,1650849136681509.0
0.0,1.0,0.0,0.0,-3.0,-13.0,-3.0,-2.0,1650849136681509.0
2.0,0.0,2.0,0.0,0.0,9.0,9.0,1.0,1650849136703519.0
-1.0,0.0,-1.0,-1.0,1.0,5.0,-1.0,-2.0,1650849136703519.0
0.0,0.0,0.0,1.0,4.0,6.0,4.0,2.0,1650849136710430.0
0.0,-2.0,-1.0,-3.0,-7.0,-7.0,-3.0,0.0,1650849136710430.0
0.0,-1.0,0.0,-2.0,-1.0,-4.0,-4.0,-2.0,1650849136725528.0
-2.0,-1.0,-3.0,0.0,-2.0,-11.0,0.0,0.0,1650849136725528.0
0.0,0.0,-1.0,2.0,-2.0,-5.0,0.0,-1.0,1650849136726506.0
0.0,1.0,0.0,-2.0,4.0,1.0,0.0,-1.0,1650849136726506.0
-2.0,0.0,-1.0,-2.0,4.0,-9.0,-4.0,-1.0,1650849136739497.0
0.0,1.0,1.0,-1.0,-4.0,24.0,4.0,-1.0,1650849136739497.0
0.0,2.0,1.0,-1.0,-8.0,-8.0,-1.0,1.0,1650849136747476.0
0.0,0.0,-1.0,6.0,20.0,17.0,3.0,3.0,1650849136747476.0
-2.0,-1.0,-1.0,-1.0,-6.0,-10.0,-2.0,0.0,1650849136764558.0
-2.0,0.0,-3.0,-4.0,-5.0,-12.0,-4.0,-3.0,1650849136764558.0
-1.0,0.0,0.0,0.0,2.0,5.0,-1.0,-1.0,1650849136765544.0
-2.0,-2.0,-1.0,-1.0,-11.0,-19.0,-3.0,-2.0,1650849136765544.0
0.0,1.0,1.0,4.0,3.0,19.0,9.0,0.0,1650849136785359.0
0.0,-1.0,0.0,3.0,9.0,10.0,0.0,0.0,1650849136785359.0
-1.0,-3.0,-1.0,-4.0,-3.0,-4.0,0.0,-2.0,1650849136786288.0
-1.0,-1.0,-2.0,-3.0,0.0,-6.0,-2.0,1.0,1650849136786288.0
-1.0,-2.0,-2.0,-4.0,-10.0,-19.0,-6.0,-1.0,1650849136800254.0
1.0,1.0,2.0,2.0,-3.0,2.0,2.0,0.0,1650849136800254.0
0.0,1.0,0.0,5.0,13.0,12.0,2.0,1.0,1650849136815210.0
0.0,-3.0,0.0,-3.0,5.0,9.0,1.0,0.0,1650849136815210.0
0.0,-3.0,0.0,-4.0,-5.0,-4.0,-4.0,-2.0,1650849136823216.0
-1.0,-2.0,-1.0,-5.0,-11.0,-18.0,-2.0,0.0,1650849136823216.0
-2.0,-2.0,-4.0,-2.0,-4.0,-18.0,-6.0,-2.0,1650849136824207.0
-2.0,1.0,-1.0,1.0,-6.0,4.0,-3.0,0.0,1650849136824207.0
1.0,0.0,1.0,8.0,19.0,54.0,11.0,4.0,1650849136845947.0
-1.0,-2.0,-1.0,-4.0,-1.0,-11.0,-4.0,-3.0,1650849136845947.0
0.0,-1.0,-1.0,-5.0,-7.0,-6.0,-2.0,-1.0,1650849136845947.0
-1.0,-2.0,-1.0,1.0,-10.0,-12.0,-3.0,-2.0,1650849136845947.0
0.0,-1.0,-1.0,-3.0,0.0,-13.0,-7.0,-2.0,1650849136859880.0
-3.0,0.0,0.0,-2.0,2.0,3.0,0.0,1.0,1650849136859880.0
0.0,-2.0,0.0,-1.0,-4.0,0.0,0.0,0.0,1650849136866861.0
-1.0,-1.0,0.0,2.0,-1.0,-2.0,0.0,-1.0,1650849136866861.0
-3.0,-1.0,1.0,-1.0,6.0,-8.0,-5.0,-2.0,1650849136882850.0
0.0,0.0,-2.0,-1.0,5.0,24.0,7.0,2.0,1650849136882850.0
0.0,0.0,-1.0,0.0,-7.0,-14.0,-1.0,-1.0,1650849136883816.0
2.0,0.0,0.0,1.0,7.0,13.0,2.0,0.0,1650849136883816.0
-1.0,-2.0,0.0,-6.0,-5.0,-9.0,1.0,-1.0,1650849136905785.0
-1.0,-1.0,0.0,-3.0,-2.0,-15.0,-4.0,-2.0,1650849136905785.0
-3.0,1.0,-2.0,1.0,-3.0,-10.0,-4.0,-2.0,1650849136906754.0
0.0,2.0,2.0,-1.0,1.0,21.0,4.0,1.0,1650849136906754.0
1.0,1.0,0.0,3.0,7.0,23.0,9.0,2.0,1650849136919787.0
-2.0,-1.0,-1.0,4.0,2.0,-7.0,-2.0,-1.0,1650849136919787.0
0.0,-1.0,-3.0,-3.0,-1.0,-3.0,-1.0,-1.0,1650849136927697.0
-3.0,-3.0,-2.0,-3.0,-2.0,-12.0,-1.0,-3.0,1650849136927697.0
-1.0,0.0,-1.0,-1.0,-6.0,-9.0,-6.0,-2.0,1650849136942657.0
0.0,-1.0,-1.0,0.0,-1.0,-4.0,2.0,1.0,1650849136942657.0
-1.0,-2.0,0.0,0.0,-2.0,5.0,1.0,0.0,1650849136943655.0
1.0,0.0,-2.0,1.0,2.0,1.0,-1.0,-1.0,1650849136943655.0
-1.0,0.0,0.0,-4.0,-6.0,-4.0,-1.0,1.0,1650849136965624.0
-1.0,-1.0,-2.0,-1.0,5.0,-4.0,-1.0,-1.0,1650849136965624.0
1.0,-1.0,-1.0,-3.0,1.0,-6.0,-4.0,0.0,1650849136966595.0
1.0,0.0,-1.0,-1.0,0.0,17.0,2.0,0.0,1650849136966595.0
2.0,0.0,-2.0,0.0,0.0,5.0,-1.0,-1.0,1650849136979559.0
0.0,-3.0,1.0,-3.0,-9.0,-24.0,-6.0,-3.0,1650849136979559.0
-1.0,2.0,0.0,0.0,8.0,31.0,3.0,0.0,1650849136987605.0
1.0,-1.0,0.0,-3.0,-10.0,-16.0,-1.0,-2.0,1650849136987605.0
-1.0,-1.0,-1.0,0.0,-1.0,-28.0,-8.0,-1.0,1650849137004492.0
0.0,3.0,1.0,4.0,11.0,47.0,11.0,3.0,1650849137004492.0
0.0,-2.0,2.0,-1.0,-3.0,-6.0,3.0,0.0,1650849137005490.0
-1.0,-2.0,0.0,0.0,4.0,1.0,1.0,2.0,1650849137005490.0
-1.0,-1.0,1.0,-1.0,-2.0,-8.0,-1.0,-1.0,1650849137025603.0
-1.0,-1.0,-3.0,-2.0,-8.0,-18.0,-6.0,-1.0,1650849137025603.0
-1.0,0.0,-2.0,0.0,4.0,2.0,-1.0,0.0,1650849137026603.0
-1.0,-1.0,-2.0,-5.0,-3.0,-1.0,-1.0,-2.0,1650849137026603.0
-2.0,-2.0,-1.0,1.0,-4.0,-12.0,-5.0,-3.0,1650849137039567.0
-1.0,-1.0,1.0,4.0,12.0,21.0,1.0,0.0,1650849137039567.0
1.0,0.0,1.0,-1.0,-5.0,9.0,2.0,0.0,1650849137047577.0
-1.0,0.0,-1.0,-4.0,-5.0,-30.0,-8.0,-2.0,1650849137047577.0
1.0,0.0,-3.0,3.0,5.0,25.0,0.0,1.0,1650849137062552.0
1.0,-3.0,-4.0,-1.0,-9.0,-14.0,3.0,1.0,1650849137062552.0
0.0,-1.0,-1.0,1.0,0.0,-7.0,-2.0,-3.0,1650849137063519.0
1.0,-1.0,0.0,0.0,-1.0,3.0,0.0,2.0,1650849137063519.0
-2.0,-2.0,0.0,-5.0,-3.0,-16.0,-5.0,-1.0,1650849137085462.0
1.0,-1.0,1.0,0.0,1.0,12.0,1.0,0.0,1650849137085462.0
-1.0,-2.0,-1.0,0.0,-9.0,-4.0,0.0,-1.0,1650849137086459.0
0.0,2.0,-1.0,3.0,10.0,7.0,2.0,0.0,1650849137086459.0
1.0,-2.0,-1.0,0.0,4.0,4.0,2.0,0.0,1650849137107551.0
0.0,-2.0,-1.0,-3.0,-9.0,-12.0,-4.0,-1.0,1650849137107551.0
-1.0,1.0,-1.0,0.0,1.0,-8.0,-2.0,1.0,1650849137108525.0
-2.0,-1.0,-1.0,0.0,-1.0,1.0,-1.0,-1.0,1650849137108525.0
-1.0,1.0,0.0,-1.0,3.0,16.0,2.0,1.0,1650849137122595.0
-1.0,0.0,-1.0,1.0,-3.0,-4.0,1.0,0.0,1650849137122595.0
0.0,-3.0,0.0,-3.0,-6.0,-22.0,-6.0,-2.0,1650849137123563.0
-2.0,-1.0,1.0,5.0,8.0,30.0,3.0,2.0,1650849137123563.0
-1.0,1.0,-3.0,-2.0,-1.0,-4.0,6.0,0.0,1650849137145866.0
-2.0,0.0,-1.0,-3.0,-6.0,-13.0,-4.0,-3.0,1650849137145866.0
-1.0,-2.0,3.0,4.0,4.0,-2.0,0.0,-1.0,1650849137145866.0
-1.0,-2.0,-3.0,3.0,5.0,9.0,-3.0,-2.0,1650849137145866.0
1.0,1.0,1.0,-1.0,-12.0,-4.0,3.0,1.0,1650849137167808.0
0.0,0.0,-1.0,-7.0,-2.0,-12.0,-3.0,-2.0,1650849137167808.0
-1.0,1.0,-1.0,2.0,0.0,9.0,1.0,0.0,1650849137175814.0
1.0,-1.0,1.0,3.0,2.0,-7.0,0.0,1.0,1650849137175814.0
1.0,-1.0,-1.0,-4.0,3.0,8.0,1.0,0.0,1650849137182795.0
-1.0,-1.0,0.0,0.0,-3.0,-4.0,0.0,-2.0,1650849137182795.0
-1.0,-1.0,0.0,4.0,7.0,4.0,-1.0,0.0,1650849137183765.0
-4.0,-2.0,-3.0,-7.0,-4.0,-17.0,-4.0,-2.0,1650849137183765.0
-1.0,0.0,-1.0,-3.0,-8.0,-2.0,-2.0,-4.0,1650849137205795.0
0.0,-1.0,3.0,4.0,3.0,26.0,7.0,1.0,1650849137205795.0
1.0,0.0,0.0,2.0,6.0,6.0,2.0,1.0,1650849137205795.0
-1.0,-1.0,-2.0,-4.0,-5.0,-16.0,-3.0,-2.0,1650849137205795.0
0.0,1.0,-2.0,-4.0,-6.0,2.0,-4.0,-2.0,1650849137227766.0
1.0,1.0,0.0,-2.0,-2.0,-16.0,-7.0,-2.0,1650849137227766.0
-2.0,-1.0,2.0,0.0,-4.0,8.0,3.0,1.0,1650849137228736.0
0.0,1.0,1.0,2.0,3.0,-6.0,3.0,-1.0,1650849137228736.0
0.0,-3.0,1.0,4.0,8.0,0.0,-8.0,-2.0,1650849137242698.0
1.0,1.0,-2.0,-5.0,-14.0,-13.0,-2.0,1.0,1650849137242698.0
0.0,0.0,-4.0,-8.0,0.0,15.0,5.0,2.0,1650849137243697.0
1.0,0.0,2.0,1.0,-2.0,-4.0,0.0,1.0,1650849137243697.0
-2.0,0.0,-7.0,10.0,11.0,2.0,0.0,0.0,1650849137265752.0
0.0,-1.0,-5.0,-15.0,-4.0,-3.0,-2.0,-1.0,1650849137265752.0
-1.0,2.0,-2.0,4.0,-7.0,-9.0,-2.0,-2.0,1650849137266722.0
-1.0,1.0,8.0,7.0,3.0,9.0,2.0,0.0,1650849137266722.0
-1.0,-5.0,-5.0,-7.0,-11.0,-19.0,-3.0,-2.0,1650849137287733.0
-2.0,-2.0,-1.0,4.0,2.0,12.0,-1.0,0.0,1650849137287733.0
1.0,0.0,-5.0,-2.0,3.0,-1.0,1.0,2.0,1650849137288666.0
1.0,0.0,3.0,4.0,5.0,8.0,1.0,-1.0,1650849137288666.0
0.0,2.0,3.0,-7.0,-10.0,-24.0,-5.0,0.0,1650849137303492.0
0.0,0.0,14.0,1.0,2.0,35.0,10.0,2.0,1650849137303492.0
0.0,-4.0,-21.0,-2.0,3.0,-12.0,-6.0,-3.0,1650849137303492.0
0.0,1.0,3.0,1.0,1.0,26.0,3.0,-1.0,1650849137303492.0
-1.0,-7.0,6.0,3.0,-2.0,-20.0,-2.0,-1.0,1650849137324466.0
0.0,8.0,-8.0,-8.0,-14.0,-15.0,-4.0,-2.0,1650849137324466.0
-1.0,4.0,17.0,-3.0,-4.0,3.0,-3.0,-2.0,1650849137333444.0
1.0,-1.0,-8.0,3.0,-3.0,-8.0,-1.0,-1.0,1650849137333444.0
0.0,0.0,10.0,-4.0,2.0,6.0,-1.0,1.0,1650849137348374.0
-1.0,-5.0,-6.0,12.0,8.0,7.0,2.0,2.0,1650849137348374.0
0.0,0.0,5.0,12.0,10.0,7.0,2.0,4.0,1650849137348374.0
-1.0,-3.0,-9.0,-16.0,-5.0,-7.0,-2.0,-1.0,1650849137348374.0
2.0,1.0,2.0,2.0,-6.0,8.0,3.0,0.0,1650849137371322.0
-2.0,-4.0,-3.0,-6.0,5.0,-4.0,-4.0,-4.0,1650849137371322.0
-3.0,-1.0,-13.0,-4.0,-4.0,-11.0,-4.0,-3.0,1650849137372323.0
0.0,0.0,2.0,1.0,-13.0,1.0,-1.0,-2.0,1650849137372323.0
0.0,4.0,1.0,2.0,3.0,-4.0,1.0,1.0,1650849137385276.0
1.0,-2.0,5.0,3.0,11.0,13.0,2.0,2.0,1650849137385276.0
0.0,-2.0,2.0,-6.0,0.0,5.0,2.0,-1.0,1650849137400263.0
-4.0,-6.0,1.0,-7.0,-3.0,-3.0,-4.0,-3.0,1650849137400263.0
-2.0,3.0,-2.0,0.0,-11.0,-24.0,-5.0,-1.0,1650849137408281.0
-1.0,2.0,4.0,9.0,7.0,17.0,0.0,1.0,1650849137408281.0
1.0,-1.0,0.0,-1.0,9.0,19.0,4.0,1.0,1650849137409226.0
2.0,0.0,8.0,-1.0,-5.0,-5.0,3.0,1.0,1650849137409226.0
0.0,1.0,-8.0,4.0,11.0,5.0,2.0,-1.0,1650849137431303.0
-1.0,-2.0,10.0,3.0,-9.0,-27.0,-8.0,-3.0,1650849137431303.0
-1.0,-3.0,1.0,-3.0,-6.0,1.0,-1.0,-2.0,1650849137431303.0
-3.0,-1.0,-9.0,2.0,0.0,-5.0,-2.0,0.0,1650849137431303.0
-1.0,2.0,12.0,12.0,4.0,23.0,4.0,1.0,1650849137445284.0
0.0,-2.0,-11.0,-16.0,-4.0,-5.0,0.0,0.0,1650849137445284.0
-1.0,-5.0,-5.0,5.0,7.0,6.0,3.0,-3.0,1650849137453247.0
-1.0,0.0,0.0,-3.0,-13.0,-12.0,-2.0,-1.0,1650849137453247.0
-1.0,-3.0,-2.0,-4.0,8.0,7.0,-1.0,-1.0,1650849137468205.0
0.0,-2.0,4.0,2.0,-12.0,-27.0,-6.0,-3.0,1650849137468205.0
0.0,2.0,3.0,-1.0,8.0,20.0,0.0,1.0,1650849137469202.0
1.0,1.0,-8.0,2.0,11.0,2.0,2.0,-1.0,1650849137469202.0
-2.0,-2.0,10.0,-6.0,-2.0,4.0,0.0,-3.0,1650849137490213.0
-1.0,-3.0,-1.0,2.0,-8.0,-18.0,-2.0,-4.0,1650849137490213.0
-1.0,0.0,-10.0,-10.0,-17.0,-26.0,-9.0,-3.0,1650849137491144.0
2.0,-1.0,-6.0,6.0,12.0,14.0,1.0,1.0,1650849137491144.0
2.0,1.0,-5.0,-2.0,1.0,31.0,18.0,6.0,1650849137505173.0
0.0,0.0,-4.0,2.0,15.0,-5.0,-3.0,-1.0,1650849137505173.0
1.0,-2.0,6.0,0.0,-11.0,-12.0,-3.0,-1.0,1650849137513085.0
-3.0,-1.0,-3.0,-9.0,-12.0,-18.0,-6.0,-1.0,1650849137513085.0
1.0,1.0,-4.0,-11.0,-5.0,8.0,-2.0,0.0,1650849137529065.0
-1.0,-1.0,-10.0,8.0,5.0,3.0,2.0,1.0,1650849137529065.0
0.0,-1.0,12.0,10.0,-15.0,-19.0,0.0,-2.0,1650849137529065.0
1.0,1.0,4.0,3.0,19.0,37.0,10.0,3.0,1650849137529065.0
1.0,-3.0,-4.0,-1.0,-4.0,-12.0,-7.0,-1.0,1650849137550016.0
-1.0,0.0,-4.0,-9.0,2.0,6.0,-2.0,1.0,1650849137550016.0
-1.0,-3.0,-19.0,-11.0,-2.0,-7.0,-4.0,-2.0,1650849137550992.0
-1.0,0.0,9.0,-1.0,-9.0,-9.0,-1.0,1.0,1650849137550992.0
-3.0,-4.0,-17.0,-2.0,-8.0,-5.0,-2.0,-4.0,1650849137564974.0
0.0,1.0,12.0,1.0,5.0,2.0,1.0,0.0,1650849137564974.0
-2.0,1.0,5.0,8.0,10.0,22.0,6.0,2.0,1650849137572992.0
1.0,0.0,-4.0,-1.0,0.0,-16.0,-3.0,-3.0,1650849137572992.0
0.0,0.0,-1.0,-3.0,8.0,24.0,0.0,-2.0,1650849137587955.0
-1.0,-2.0,-3.0,-3.0,-12.0,-24.0,-1.0,-1.0,1650849137587955.0
2.0,2.0,4.0,5.0,12.0,12.0,0.0,-1.0,1650849137588883.0
0.0,-1.0,2.0,-3.0,0.0,9.0,2.0,0.0,1650849137588883.0
0.0,-1.0,-1.0,3.0,-1.0,-20.0,-4.0,-1.0,1650849137610823.0
-1.0,0.0,-4.0,-1.0,-3.0,2.0,-2.0,-3.0,1650849137610823.0
-2.0,-1.0,0.0,-7.0,-9.0,-16.0,-3.0,0.0,1650849137611826.0
0.0,0.0,1.0,9.0,4.0,16.0,-1.0,-2.0,1650849137611826.0
0.0,1.0,-1.0,2.0,4.0,-8.0,-1.0,1.0,1650849137633925.0
0.0,0.0,-3.0,-5.0,-6.0,6.0,-1.0,2.0,1650849137633925.0
-3.0,-2.0,2.0,-5.0,-2.0,-16.0,-1.0,-1.0,1650849137634895.0
-4.0,-2.0,-1.0,3.0,-3.0,-2.0,-3.0,-1.0,1650849137634895.0
0.0,-2.0,-8.0,-2.0,-4.0,-1.0,1.0,1.0,1650849137647859.0
2.0,4.0,4.0,4.0,12.0,16.0,4.0,3.0,1650849137647859.0
0.0,-4.0,-3.0,-11.0,-8.0,-19.0,-5.0,-1.0,1650849137648858.0
-1.0,1.0,-6.0,-8.0,-7.0,0.0,-4.0,-1.0,1650849137648858.0
-2.0,0.0,10.0,5.0,-4.0,-10.0,-2.0,-1.0,1650849137670866.0
1.0,-1.0,1.0,4.0,13.0,15.0,10.0,2.0,1650849137670866.0
1.0,2.0,-3.0,0.0,1.0,6.0,2.0,-1.0,1650849137670866.0
0.0,-2.0,-3.0,-3.0,-11.0,-18.0,-2.0,-1.0,1650849137670866.0
1.0,-1.0,-3.0,0.0,8.0,11.0,1.0,-1.0,1650849137693765.0
0.0,0.0,-2.0,-1.0,-5.0,-7.0,-4.0,-2.0,1650849137693765.0
-2.0,-1.0,5.0,3.0,0.0,6.0,0.0,1.0,1650849137694735.0
0.0,-1.0,-6.0,-3.0,0.0,-2.0,0.0,-1.0,1650849137694735.0
-2.0,-2.0,-1.0,2.0,-4.0,-17.0,-5.0,-3.0,1650849137715678.0
-1.0,0.0,10.0,-4.0,-5.0,14.0,1.0,0.0,1650849137715678.0
1.0,2.0,-15.0,4.0,6.0,7.0,4.0,-1.0,1650849137716676.0
0.0,-3.0,5.0,0.0,-8.0,-4.0,-1.0,0.0,1650849137716676.0
0.0,-1.0,1.0,1.0,7.0,3.0,3.0,1.0,1650849137730639.0
0.0,-1.0,-10.0,-15.0,-3.0,-2.0,-6.0,-2.0,1650849137730639.0
0.0,1.0,11.0,9.0,-7.0,-9.0,-3.0,-3.0,1650849137731657.0
-2.0,0.0,1.0,-5.0,-7.0,-5.0,0.0,-1.0,1650849137731657.0
-2.0,-1.0,-14.0,1.0,4.0,22.0,4.0,0.0,1650849137754138.0
0.0,-1.0,6.0,3.0,0.0,-7.0,1.0,1.0,1650849137754138.0
-1.0,1.0,5.0,-10.0,-2.0,0.0,-2.0,1.0,1650849137754138.0
-1.0,2.0,-3.0,3.0,0.0,-5.0,-2.0,-1.0,1650849137754138.0
-2.0,-3.0,-8.0,-8.0,-3.0,0.0,-1.0,-1.0,1650849137768131.0
-2.0,0.0,-10.0,-1.0,-5.0,-2.0,-2.0,1.0,1650849137768131.0
1.0,-1.0,1.0,-2.0,-3.0,-13.0,-2.0,1.0,1650849137769100.0
0.0,2.0,11.0,12.0,11.0,21.0,-1.0,-1.0,1650849137769100.0
-2.0,-4.0,-5.0,-12.0,-14.0,-13.0,-5.0,-2.0,1650849137791040.0
0.0,0.0,5.0,10.0,1.0,17.0,4.0,-1.0,1650849137791040.0
-3.0,-2.0,-1.0,-1.0,1.0,-4.0,0.0,-3.0,1650849137791040.0
-2.0,0.0,-6.0,-9.0,7.0,6.0,0.0,0.0,1650849137791040.0
2.0,2.0,4.0,13.0,10.0,-4.0,0.0,0.0,1650849137814127.0
0.0,-3.0,0.0,9.0,-8.0,-14.0,-5.0,-2.0,1650849137814127.0
1.0,0.0,10.0,3.0,4.0,9.0,0.0,0.0,1650849137814127.0
1.0,-2.0,-12.0,-14.0,-11.0,0.0,1.0,2.0,1650849137814127.0
-4.0,-6.0,5.0,-1.0,5.0,0.0,0.0,-3.0,1650849137836042.0
-1.0,2.0,14.0,-1.0,-2.0,-5.0,0.0,1.0,1650849137836042.0
-1.0,-2.0,-11.0,5.0,5.0,8.0,1.0,2.0,1650849137837039.0
-1.0,0.0,-1.0,4.0,4.0,-4.0,-3.0,-1.0,1650849137837039.0
1.0,2.0,9.0,-1.0,-6.0,-3.0,-1.0,1.0,1650849137851032.0
-4.0,-3.0,-5.0,-3.0,-3.0,-8.0,-1.0,-3.0,1650849137851032.0
-2.0,-2.0,-5.0,-7.0,-8.0,-7.0,-6.0,-2.0,1650849137851032.0
-1.0,-1.0,-2.0,4.0,-2.0,-12.0,2.0,-1.0,1650849137851032.0
0.0,2.0,-1.0,0.0,11.0,28.0,2.0,1.0,1650849137873993.0
2.0,-1.0,-6.0,1.0,7.0,-11.0,-2.0,-1.0,1650849137873993.0
1.0,1.0,2.0,7.0,7.0,37.0,7.0,3.0,1650849137874961.0
-1.0,-1.0,-1.0,-6.0,-7.0,-13.0,-4.0,0.0,1650849137874961.0
0.0,0.0,5.0,-1.0,-12.0,-21.0,-4.0,-2.0,1650849137887927.0
-2.0,0.0,-3.0,-2.0,-1.0,-4.0,-2.0,-1.0,1650849137887927.0
-2.0,-1.0,-4.0,-5.0,4.0,-7.0,-2.0,-2.0,1650849137888930.0
0.0,-1.0,-3.0,5.0,3.0,-1.0,1.0,0.0,1650849137888930.0
-1.0,0.0,3.0,2.0,-3.0,0.0,-2.0,0.0,1650849137910864.0
1.0,1.0,2.0,0.0,-7.0,11.0,1.0,0.0,1650849137910864.0
-2.0,-3.0,-7.0,3.0,0.0,-6.0,-1.0,-2.0,1650849137910864.0
0.0,0.0,-2.0,-14.0,7.0,12.0,5.0,-1.0,1650849137910864.0
3.0,2.0,-14.0,11.0,8.0,-6.0,1.0,1.0,1650849137940812.0
-1.0,1.0,6.0,5.0,-2.0,-3.0,-2.0,-2.0,1650849137940812.0
-4.0,-3.0,5.0,-19.0,-20.0,-12.0,-3.0,-2.0,1650849137941782.0
-5.0,-3.0,-3.0,4.0,-7.0,-27.0,-3.0,-4.0,1650849137941782.0
1.0,2.0,-4.0,-1.0,16.0,46.0,3.0,0.0,1650849137955744.0
2.0,-1.0,-3.0,-7.0,-2.0,3.0,8.0,4.0,1650849137955744.0
-1.0,-2.0,5.0,7.0,7.0,-3.0,-3.0,-2.0,1650849137956742.0
1.0,1.0,-8.0,-5.0,-4.0,-6.0,-3.0,-1.0,1650849137956742.0
-2.0,-1.0,1.0,-9.0,-12.0,-25.0,-4.0,0.0,1650849137970705.0
0.0,-1.0,-7.0,-3.0,-1.0,-5.0,-4.0,-3.0,1650849137970705.0
1.0,3.0,6.0,7.0,6.0,21.0,2.0,2.0,1650849137971712.0
2.0,-1.0,8.0,1.0,-7.0,-3.0,1.0,1.0,1650849137971712.0
0.0,-2.0,-4.0,4.0,1.0,-1.0,0.0,-1.0,1650849137993643.0
0.0,-2.0,-9.0,-15.0,1.0,3.0,1.0,0.0,1650849137993643.0
0.0,2.0,-2.0,3.0,-5.0,-11.0,0.0,0.0,1650849137994640.0
2.0,-1.0,5.0,6.0,4.0,8.0,0.0,0.0,1650849137994640.0
-1.0,-3.0,4.0,-6.0,-6.0,-3.0,-1.0,-2.0,1650849138007606.0
-1.0,0.0,3.0,1.0,-2.0,-4.0,-2.0,-1.0,1650849138007606.0
-2.0,-2.0,-2.0,-6.0,-4.0,-1.0,-1.0,0.0,1650849138008617.0
2.0,2.0,-2.0,5.0,9.0,13.0,5.0,4.0,1650849138008617.0
1.0,2.0,0.0,-12.0,-7.0,-11.0,-1.0,1.0,1650849138030544.0
-1.0,-4.0,-1.0,9.0,6.0,3.0,-1.0,-1.0,1650849138030544.0
-2.0,-1.0,-4.0,-1.0,-2.0,-3.0,-2.0,-5.0,1650849138031542.0
-4.0,-3.0,-1.0,1.0,0.0,3.0,-2.0,-2.0,1650849138031542.0
-3.0,-2.0,2.0,-8.0,-9.0,-12.0,-1.0,-1.0,1650849138053484.0
2.0,1.0,-5.0,-4.0,5.0,25.0,-3.0,2.0,1650849138053484.0
1.0,1.0,1.0,-3.0,1.0,6.0,5.0,2.0,1650849138054481.0
-3.0,-3.0,7.0,-3.0,-5.0,-10.0,-2.0,-2.0,1650849138054481.0
-1.0,-1.0,-3.0,2.0,4.0,1.0,-1.0,1.0,1650849138068443.0
-3.0,0.0,-1.0,3.0,-1.0,-14.0,-4.0,-1.0,1650849138068443.0
0.0,0.0,-4.0,-3.0,-2.0,-4.0,0.0,0.0,1650849138068443.0
-1.0,1.0,-5.0,-3.0,-8.0,-6.0,-2.0,0.0,1650849138068443.0
-1.0,0.0,9.0,12.0,5.0,9.0,1.0,0.0,1650849138091382.0
-1.0,-2.0,2.0,0.0,4.0,-1.0,3.0,0.0,1650849138091382.0
0.0,-2.0,0.0,-3.0,0.0,3.0,1.0,2.0,1650849138091382.0
2.0,-1.0,-5.0,-12.0,0.0,-2.0,0.0,-2.0,1650849138091382.0
-2.0,1.0,-4.0,2.0,-6.0,-6.0,-3.0,-1.0,1650849138113347.0
0.0,1.0,0.0,4.0,-1.0,-1.0,1.0,0.0,1650849138113347.0
2.0,1.0,7.0,9.0,16.0,6.0,1.0,1.0,1650849138114353.0
0.0,-1.0,-4.0,-9.0,-16.0,-19.0,-4.0,0.0,1650849138114353.0
1.0,1.0,1.0,2.0,3.0,15.0,4.0,2.0,1650849138127310.0
-2.0,-1.0,-16.0,-8.0,6.0,-1.0,0.0,0.0,1650849138127310.0
1.0,-3.0,0.0,1.0,-9.0,1.0,0.0,-2.0,1650849138135288.0
0.0,0.0,8.0,8.0,9.0,8.0,0.0,0.0,1650849138135288.0
0.0,-1.0,2.0,-9.0,-8.0,-10.0,-4.0,-3.0,1650849138150248.0
-1.0,-3.0,-5.0,-3.0,-5.0,-9.0,-2.0,0.0,1650849138150248.0
-2.0,-2.0,4.0,2.0,-3.0,-4.0,-4.0,0.0,1650849138151458.0
-1.0,1.0,2.0,7.0,11.0,8.0,1.0,1.0,1650849138151458.0
-1.0,-3.0,0.0,-2.0,-6.0,-14.0,-3.0,0.0,1650849138173378.0
1.0,1.0,5.0,0.0,-1.0,15.0,-1.0,-2.0,1650849138173378.0
0.0,-1.0,-8.0,-7.0,3.0,-9.0,-1.0,1.0,1650849138174380.0
0.0,-1.0,3.0,-3.0,-8.0,-4.0,-2.0,-1.0,1650849138174380.0
-1.0,-1.0,-4.0,-2.0,8.0,2.0,0.0,-1.0,1650849138188337.0
-1.0,0.0,5.0,4.0,1.0,3.0,3.0,1.0,1650849138188337.0
-3.0,0.0,-6.0,-4.0,-3.0,-2.0,-3.0,-1.0,1650849138188337.0
0.0,1.0,3.0,4.0,3.0,7.0,0.0,-1.0,1650849138188337.0
0.0,-4.0,0.0,2.0,-6.0,-12.0,-2.0,-3.0,1650849138210891.0
-1.0,-2.0,0.0,-2.0,-6.0,-7.0,-2.0,0.0,1650849138210891.0
1.0,-1.0,-2.0,-2.0,-1.0,4.0,0.0,2.0,1650849138210891.0
-1.0,-2.0,-3.0,-4.0,-4.0,-18.0,-4.0,-2.0,1650849138210891.0
0.0,3.0,2.0,7.0,16.0,35.0,7.0,2.0,1650849138233931.0
1.0,-1.0,5.0,-2.0,2.0,-2.0,1.0,0.0,1650849138233931.0
-1.0,0.0,-11.0,-5.0,-12.0,-29.0,-5.0,-1.0,1650849138234934.0
-1.0,-2.0,0.0,2.0,5.0,29.0,1.0,-2.0,1650849138234934.0
0.0,-1.0,4.0,-1.0,-5.0,-12.0,2.0,1.0,1650849138246877.0
0.0,1.0,3.0,-1.0,4.0,-10.0,-3.0,-2.0,1650849138246877.0
-2.0,-5.0,-1.0,-1.0,-4.0,10.0,-3.0,-2.0,1650849138255885.0
0.0,-1.0,-5.0,-1.0,2.0,-6.0,2.0,0.0,1650849138255885.0
-2.0,-3.0,-3.0,-4.0,-8.0,-7.0,-2.0,0.0,1650849138270832.0
-1.0,0.0,1.0,3.0,3.0,8.0,-1.0,-1.0,1650849138270832.0
1.0,1.0,1.0,2.0,-10.0,-13.0,-3.0,-1.0,1650849138270832.0
1.0,-1.0,3.0,3.0,17.0,13.0,3.0,2.0,1650849138270832.0
0.0,-2.0,-11.0,-6.0,-3.0,4.0,0.0,-1.0,1650849138293780.0
-2.0,0.0,1.0,3.0,-5.0,-13.0,-3.0,-1.0,1650849138293780.0
-1.0,-1.0,0.0,-6.0,-9.0,-11.0,-2.0,0.0,1650849138294749.0
-2.0,-3.0,-3.0,-3.0,-2.0,9.0,-1.0,-1.0,1650849138294749.0
2.0,1.0,4.0,5.0,10.0,9.0,6.0,4.0,1650849138307734.0
-1.0,-1.0,-3.0,3.0,-13.0,-3.0,3.0,-1.0,1650849138307734.0
2.0,3.0,10.0,10.0,25.0,19.0,5.0,0.0,1650849138315692.0
-1.0,-1.0,-7.0,-7.0,-5.0,-12.0,-2.0,0.0,1650849138315692.0
-1.0,-2.0,-2.0,-7.0,-10.0,-18.0,-5.0,-3.0,1650849138330672.0
0.0,-1.0,-6.0,-6.0,-5.0,-8.0,-3.0,-2.0,1650849138330672.0
-2.0,-1.0,3.0,1.0,-2.0,11.0,-1.0,0.0,1650849138331669.0
-2.0,-2.0,1.0,-2.0,0.0,5.0,1.0,0.0,1650849138331669.0
-1.0,-1.0,4.0,3.0,0.0,1.0,0.0,-2.0,1650849138353604.0
1.0,-2.0,-6.0,-1.0,8.0,9.0,3.0,1.0,1650849138353604.0
1.0,0.0,-3.0,-3.0,4.0,-10.0,-3.0,0.0,1650849138354589.0
0.0,-1.0,3.0,2.0,-7.0,-4.0,-1.0,-1.0,1650849138354589.0
-1.0,-5.0,-3.0,-6.0,-5.0,2.0,0.0,0.0,1650849138367553.0
-1.0,3.0,0.0,-4.0,-7.0,-14.0,-3.0,-1.0,1650849138367553.0
0.0,0.0,-4.0,0.0,0.0,-14.0,-3.0,-1.0,1650849138375564.0
-1.0,1.0,6.0,7.0,0.0,20.0,3.0,0.0,1650849138375564.0
3.0,2.0,6.0,9.0,13.0,14.0,5.0,2.0,1650849138390518.0
1.0,0.0,2.0,1.0,6.0,6.0,5.0,1.0,1650849138390518.0
-2.0,0.0,-8.0,-5.0,-5.0,-4.0,-1.0,0.0,1650849138391520.0
-1.0,0.0,-2.0,-4.0,-9.0,-13.0,-3.0,-1.0,1650849138391520.0
-3.0,-1.0,0.0,-3.0,-6.0,-16.0,-8.0,-3.0,1650849138413465.0
0.0,-2.0,-1.0,1.0,-4.0,0.0,-2.0,-1.0,1650849138413465.0
0.0,-2.0,-1.0,0.0,4.0,14.0,4.0,-1.0,1650849138414427.0
1.0,0.0,-5.0,-4.0,-1.0,-8.0,-1.0,-1.0,1650849138414427.0
0.0,0.0,-2.0,1.0,1.0,3.0,0.0,0.0,1650849138427430.0
-1.0,-1.0,4.0,1.0,0.0,1.0,-1.0,1.0,1650849138427430.0
1.0,-2.0,5.0,-2.0,-1.0,3.0,3.0,0.0,1650849138435371.0
-1.0,-1.0,-5.0,-1.0,-5.0,-2.0,0.0,0.0,1650849138435371.0
1.0,0.0,-1.0,1.0,-3.0,-2.0,-1.0,-1.0,1650849138450352.0
0.0,-1.0,-5.0,-2.0,-3.0,0.0,0.0,-2.0,1650849138450352.0
-1.0,1.0,3.0,3.0,2.0,2.0,-1.0,-2.0,1650849138451329.0
1.0,-1.0,2.0,1.0,6.0,2.0,0.0,0.0,1650849138451329.0
0.0,-1.0,-1.0,-6.0,-2.0,-4.0,0.0,-1.0,1650849138474128.0
-3.0,-2.0,-3.0,-1.0,-4.0,-5.0,-3.0,-2.0,1650849138474128.0
1.0,1.0,2.0,-2.0,-6.0,2.0,3.0,0.0,1650849138474128.0
0.0,1.0,-1.0,9.0,1.0,-19.0,-1.0,-3.0,1650849138474128.0
1.0,1.0,-3.0,-4.0,6.0,30.0,4.0,1.0,1650849138487098.0
1.0,0.0,-2.0,-1.0,7.0,-18.0,-3.0,-1.0,1650849138487098.0
1.0,-1.0,-1.0,4.0,0.0,36.0,2.0,0.0,1650849138495968.0
-1.0,0.0,1.0,-6.0,1.0,-9.0,3.0,-1.0,1650849138495968.0
-1.0,0.0,-2.0,0.0,-14.0,-22.0,-4.0,-2.0,1650849138510819.0
-3.0,-1.0,0.0,-2.0,-1.0,1.0,-1.0,0.0,1650849138510819.0
1.0,0.0,-4.0,-3.0,-1.0,-11.0,-4.0,-2.0,1650849138510819.0
-3.0,-3.0,-2.0,-3.0,-4.0,-2.0,-1.0,1.0,1650849138510819.0
-3.0,0.0,-2.0,2.0,0.0,3.0,-2.0,-1.0,1650849138533829.0
0.0,-1.0,2.0,-4.0,0.0,2.0,-1.0,0.0,1650849138533829.0
-2.0,2.0,2.0,3.0,0.0,-5.0,2.0,2.0,1650849138534828.0
1.0,1.0,-1.0,2.0,4.0,10.0,0.0,0.0,1650849138534828.0
0.0,-3.0,-2.0,-4.0,2.0,-9.0,-1.0,-2.0,1650849138555809.0
0.0,-1.0,-2.0,-1.0,-1.0,8.0,-2.0,-1.0,1650849138555809.0
-1.0,-1.0,-2.0,-1.0,-1.0,-7.0,-1.0,-1.0,1650849138556768.0
-2.0,-1.0,0.0,1.0,-7.0,-7.0,-2.0,-3.0,1650849138556768.0
-2.0,0.0,-1.0,1.0,-3.0,-13.0,-2.0,-1.0,1650849138570730.0
3.0,3.0,0.0,-3.0,8.0,51.0,16.0,4.0,1650849138570730.0
1.0,0.0,-2.0,0.0,14.0,15.0,7.0,3.0,1650849138570730.0
-2.0,-1.0,8.0,5.0,5.0,-7.0,-2.0,-3.0,1650849138570730.0
0.0,-1.0,2.0,-3.0,-8.0,-20.0,-4.0,-2.0,1650849138593702.0
-4.0,-2.0,-4.0,-4.0,-13.0,-18.0,-9.0,-2.0,1650849138593702.0
-1.0,-2.0,-5.0,-4.0,-10.0,-9.0,-3.0,-2.0,1650849138594667.0
0.0,-1.0,-7.0,-6.0,0.0,6.0,0.0,-1.0,1650849138594667.0
-2.0,1.0,3.0,4.0,3.0,5.0,-1.0,0.0,1650849138616617.0
0.0,-1.0,-2.0,2.0,5.0,0.0,-1.0,-2.0,1650849138616617.0
-1.0,-2.0,-3.0,-11.0,-4.0,-3.0,-1.0,-2.0,1650849138616617.0
1.0,0.0,7.0,6.0,-4.0,-1.0,-2.0,1.0,1650849138616617.0
1.0,-1.0,2.0,4.0,3.0,9.0,2.0,1.0,1650849138630605.0
1.0,-1.0,0.0,-2.0,0.0,-4.0,-1.0,-1.0,1650849138630605.0
-1.0,-3.0,-8.0,-1.0,1.0,-6.0,-1.0,-2.0,1650849138631588.0
0.0,0.0,-1.0,0.0,-3.0,-7.0,-1.0,-2.0,1650849138631588.0
-1.0,0.0,-2.0,-5.0,-7.0,-7.0,1.0,1.0,1650849138653508.0
2.0,3.0,0.0,6.0,19.0,60.0,14.0,6.0,1650849138653508.0
2.0,0.0,13.0,6.0,6.0,-4.0,-1.0,0.0,1650849138654508.0
0.0,-3.0,-4.0,-11.0,-8.0,-2.0,-3.0,-3.0,1650849138654508.0
-3.0,-8.0,-6.0,-5.0,-7.0,-17.0,-5.0,-4.0,1650849138676480.0
0.0,4.0,0.0,-2.0,-11.0,-24.0,-8.0,-2.0,1650849138676480.0
-7.0,-8.0,-7.0,0.0,-1.0,0.0,-3.0,-3.0,1650849138677446.0
-12.0,-2.0,-1.0,4.0,3.0,4.0,-1.0,-5.0,1650849138677446.0
-13.0,3.0,-3.0,-5.0,-2.0,1.0,-1.0,-5.0,1650849138690443.0
33.0,37.0,3.0,4.0,9.0,5.0,15.0,24.0,1650849138690443.0
6.0,-6.0,4.0,-11.0,5.0,-4.0,3.0,5.0,1650849138691408.0
2.0,-8.0,22.0,18.0,-9.0,-1.0,-4.0,-2.0,1650849138691408.0
5.0,4.0,1.0,6.0,7.0,11.0,6.0,2.0,1650849138714366.0
-29.0,-4.0,6.0,4.0,-4.0,-10.0,-6.0,-13.0,1650849138714366.0
-1.0,-5.0,-13.0,-9.0,-5.0,-7.0,-4.0,-3.0,1650849138715364.0
31.0,5.0,-13.0,-16.0,5.0,4.0,11.0,16.0,1650849138715364.0
-4.0,1.0,-2.0,0.0,-4.0,-1.0,-2.0,-2.0,1650849138736323.0
-5.0,-19.0,8.0,0.0,-3.0,-6.0,-3.0,-1.0,1650849138736323.0
-9.0,15.0,-3.0,3.0,-2.0,-13.0,-10.0,-8.0,1650849138737286.0
-37.0,-28.0,-7.0,-1.0,-3.0,7.0,-5.0,-11.0,1650849138737286.0
6.0,8.0,4.0,0.0,9.0,20.0,2.0,1.0,1650849138750283.0
21.0,-12.0,-3.0,4.0,-3.0,-2.0,0.0,-3.0,1650849138750283.0
-22.0,1.0,8.0,6.0,8.0,-2.0,-4.0,-3.0,1650849138751248.0
11.0,18.0,-8.0,-3.0,-3.0,5.0,6.0,2.0,1650849138751248.0
-3.0,-16.0,-6.0,-5.0,-5.0,-8.0,-4.0,-4.0,1650849138773222.0
-2.0,9.0,3.0,-6.0,-4.0,-15.0,-5.0,2.0,1650849138773222.0
30.0,20.0,-11.0,9.0,7.0,12.0,2.0,9.0,1650849138774187.0
10.0,-12.0,0.0,-6.0,0.0,0.0,-1.0,5.0,1650849138774187.0
17.0,8.0,-8.0,-5.0,-1.0,-7.0,0.0,8.0,1650849138796148.0
-34.0,-10.0,12.0,15.0,-16.0,-28.0,1.0,-19.0,1650849138796148.0
-47.0,-19.0,-6.0,-10.0,7.0,38.0,-2.0,-6.0,1650849138797138.0
43.0,10.0,-1.0,9.0,2.0,-4.0,-4.0,9.0,1650849138797138.0
41.0,5.0,5.0,-8.0,-7.0,-3.0,5.0,15.0,1650849138810125.0
-1.0,2.0,-10.0,-12.0,-2.0,-12.0,-11.0,-6.0,1650849138810125.0
-18.0,-22.0,3.0,-1.0,-9.0,-21.0,-7.0,-10.0,1650849138811088.0
-37.0,1.0,-4.0,-14.0,0.0,6.0,-8.0,-15.0,1650849138811088.0
-21.0,-6.0,9.0,16.0,-5.0,-8.0,-8.0,-7.0,1650849138834049.0
16.0,1.0,-7.0,4.0,7.0,15.0,14.0,9.0,1650849138834049.0
-3.0,5.0,24.0,12.0,2.0,0.0,-5.0,-3.0,1650849138834049.0
-31.0,-1.0,9.0,18.0,8.0,0.0,31.0,5.0,1650849138834049.0
11.0,5.0,-11.0,-14.0,-4.0,12.0,11.0,3.0,1650849138855968.0
-12.0,-9.0,-27.0,-17.0,-2.0,-6.0,-13.0,-3.0,1650849138855968.0
24.0,3.0,-9.0,-8.0,-14.0,-3.0,4.0,4.0,1650849138856968.0
8.0,6.0,3.0,-2.0,1.0,-5.0,-4.0,1.0,1650849138856968.0
-11.0,1.0,9.0,3.0,10.0,0.0,-2.0,-2.0,1650849138870930.0
-4.0,-3.0,3.0,3.0,4.0,7.0,3.0,-4.0,1650849138870930.0
4.0,3.0,-5.0,7.0,4.0,-7.0,4.0,4.0,1650849138870930.0
-8.0,-19.0,-6.0,-11.0,-5.0,14.0,-6.0,-5.0,1650849138870930.0
-18.0,-3.0,11.0,14.0,-3.0,-3.0,-3.0,-10.0,1650849138892907.0
17.0,14.0,-18.0,-24.0,-15.0,-15.0,-11.0,0.0,1650849138892907.0
28.0,21.0,12.0,5.0,6.0,3.0,10.0,8.0,1650849138893866.0
21.0,-7.0,2.0,11.0,1.0,-4.0,-2.0,5.0,1650849138893866.0
-28.0,-13.0,-4.0,1.0,11.0,9.0,3.0,4.0,1650849138916832.0
32.0,7.0,-5.0,-14.0,-9.0,-4.0,-3.0,-1.0,1650849138916832.0
-10.0,-5.0,-4.0,-23.0,-25.0,-16.0,-1.0,-4.0,1650849138917823.0
-19.0,11.0,9.0,7.0,12.0,7.0,-4.0,-10.0,1650849138917823.0
-7.0,-6.0,-16.0,-1.0,-7.0,-11.0,-5.0,-5.0,1650849138930801.0
-19.0,-10.0,13.0,19.0,5.0,-7.0,-6.0,-2.0,1650849138930801.0
4.0,1.0,1.0,3.0,3.0,31.0,12.0,0.0,1650849138931767.0
3.0,-1.0,0.0,-10.0,-7.0,-8.0,-5.0,-1.0,1650849138931767.0
-1.0,-3.0,8.0,7.0,-2.0,-4.0,-3.0,-1.0,1650849138953727.0
-3.0,7.0,-4.0,-8.0,8.0,-3.0,3.0,3.0,1650849138953727.0
1.0,-37.0,-11.0,-8.0,-5.0,-9.0,-4.0,-3.0,1650849138960727.0
-4.0,26.0,2.0,3.0,5.0,4.0,-5.0,-5.0,1650849138960727.0
9.0,-9.0,-5.0,-10.0,-6.0,-11.0,3.0,8.0,1650849138976720.0
-14.0,-16.0,-3.0,-4.0,-7.0,19.0,10.0,7.0,1650849138976720.0
-16.0,-1.0,13.0,36.0,28.0,8.0,-13.0,-29.0,1650849138976720.0
93.0,21.0,-17.0,-26.0,-11.0,1.0,11.0,24.0,1650849138976720.0
-15.0,-13.0,-10.0,5.0,8.0,-7.0,0.0,6.0,1650849138990750.0
5.0,-14.0,12.0,-3.0,-4.0,-1.0,7.0,16.0,1650849138990750.0
-69.0,-23.0,6.0,-10.0,-25.0,-20.0,-15.0,-31.0,1650849138991680.0
-2.0,48.0,-5.0,-7.0,-24.0,-17.0,-17.0,-28.0,1650849138991680.0
-6.0,-72.0,-10.0,31.0,48.0,14.0,-13.0,-10.0,1650849139013620.0
104.0,27.0,2.0,-31.0,-14.0,-8.0,3.0,28.0,1650849139013620.0
-38.0,41.0,-24.0,-5.0,-2.0,-1.0,6.0,5.0,1650849139014617.0
-21.0,6.0,-4.0,26.0,32.0,8.0,-3.0,-14.0,1650849139014617.0
-8.0,1.0,28.0,4.0,-21.0,6.0,8.0,16.0,1650849139036644.0
-62.0,-40.0,-3.0,31.0,41.0,12.0,-11.0,-31.0,1650849139036644.0
15.0,-10.0,15.0,-23.0,-26.0,-18.0,-5.0,9.0,1650849139036644.0
-7.0,-16.0,1.0,-12.0,-24.0,-5.0,-2.0,2.0,1650849139036644.0
19.0,-14.0,-23.0,22.0,35.0,22.0,7.0,1.0,1650849139050606.0
-16.0,36.0,14.0,-35.0,-26.0,-22.0,-17.0,-20.0,1650849139050606.0
32.0,27.0,-20.0,15.0,12.0,8.0,2.0,6.0,1650849139051624.0
15.0,-31.0,6.0,-14.0,-3.0,4.0,18.0,30.0,1650849139051624.0
31.0,71.0,-5.0,-21.0,-20.0,-23.0,-3.0,0.0,1650849139074219.0
-20.0,-67.0,2.0,14.0,-32.0,6.0,-4.0,-13.0,1650849139074219.0
36.0,50.0,12.0,11.0,49.0,24.0,4.0,11.0,1650849139074219.0
-37.0,-35.0,-47.0,-15.0,-14.0,-26.0,-16.0,-15.0,1650849139074219.0
5.0,-14.0,-6.0,-16.0,-7.0,26.0,14.0,7.0,1650849139097249.0
-95.0,-17.0,9.0,-11.0,-25.0,-22.0,-18.0,-27.0,1650849139097249.0
96.0,61.0,9.0,21.0,20.0,5.0,16.0,37.0,1650849139103229.0
-40.0,-20.0,8.0,-2.0,-9.0,-1.0,0.0,-2.0,1650849139103229.0
-9.0,20.0,20.0,-4.0,11.0,-6.0,-12.0,0.0,1650849139119186.0
-86.0,-16.0,-19.0,-3.0,-20.0,-7.0,-10.0,-33.0,1650849139119186.0
52.0,31.0,-6.0,6.0,11.0,12.0,18.0,22.0,1650849139119186.0
-29.0,7.0,10.0,-12.0,-7.0,-10.0,-8.0,-14.0,1650849139119186.0
52.0,-2.0,-4.0,4.0,-10.0,-1.0,6.0,22.0,1650849139134156.0
-5.0,6.0,28.0,-11.0,-4.0,1.0,16.0,25.0,1650849139134156.0
-11.0,12.0,-37.0,16.0,18.0,7.0,-2.0,-17.0,1650849139134156.0
7.0,22.0,9.0,-9.0,-14.0,-10.0,0.0,12.0,1650849139134156.0
-9.0,-62.0,-3.0,2.0,-18.0,-6.0,1.0,5.0,1650849139156152.0
15.0,40.0,24.0,20.0,46.0,20.0,0.0,-5.0,1650849139156152.0
-28.0,-46.0,-18.0,-17.0,-46.0,-30.0,-14.0,-22.0,1650849139157086.0
-49.0,-9.0,15.0,13.0,25.0,24.0,19.0,19.0,1650849139157086.0
47.0,23.0,-22.0,-3.0,30.0,4.0,-8.0,-31.0,1650849139179054.0
107.0,102.0,4.0,-4.0,-6.0,-4.0,9.0,32.0,1650849139179054.0
-44.0,2.0,-22.0,2.0,-7.0,-2.0,-9.0,-3.0,1650849139180034.0
-39.0,-61.0,-3.0,-8.0,10.0,-11.0,-16.0,-20.0,1650849139180034.0
2.0,20.0,-6.0,1.0,-5.0,12.0,14.0,16.0,1650849139194103.0
-20.0,4.0,6.0,5.0,-9.0,-13.0,-6.0,-20.0,1650849139194103.0
-17.0,-17.0,7.0,10.0,26.0,10.0,-4.0,6.0,1650849139194103.0
-23.0,-84.0,-18.0,-10.0,5.0,-9.0,-11.0,-13.0,1650849139194103.0
-66.0,-20.0,17.0,15.0,-8.0,1.0,-5.0,-25.0,1650849139215075.0
56.0,-1.0,-17.0,-7.0,8.0,9.0,15.0,25.0,1650849139215075.0
-28.0,-29.0,22.0,-15.0,-14.0,-2.0,-7.0,-7.0,1650849139223026.0
4.0,34.0,-5.0,9.0,0.0,6.0,-8.0,-11.0,1650849139223026.0
8.0,19.0,25.0,0.0,-3.0,-7.0,-7.0,13.0,1650849139238995.0
-21.0,-50.0,-41.0,-15.0,19.0,-2.0,0.0,-29.0,1650849139238995.0
-8.0,-27.0,13.0,10.0,-15.0,-11.0,7.0,30.0,1650849139238995.0
28.0,-19.0,21.0,17.0,21.0,21.0,12.0,8.0,1650849139238995.0
-21.0,58.0,-10.0,-7.0,-7.0,-17.0,-9.0,-25.0,1650849139252974.0
-15.0,0.0,0.0,17.0,-2.0,26.0,-7.0,8.0,1650849139252974.0
38.0,2.0,20.0,-38.0,-25.0,-7.0,17.0,12.0,1650849139260956.0
30.0,27.0,8.0,13.0,1.0,9.0,7.0,5.0,1650849139260956.0
-29.0,-43.0,-25.0,-27.0,-24.0,-22.0,-7.0,-4.0,1650849139275953.0
-2.0,36.0,7.0,35.0,21.0,9.0,12.0,23.0,1650849139275953.0
14.0,-34.0,-22.0,-42.0,-15.0,-18.0,-11.0,-17.0,1650849139276884.0
13.0,53.0,0.0,4.0,-17.0,-7.0,-5.0,8.0,1650849139276884.0
-1.0,-8.0,13.0,-2.0,4.0,24.0,3.0,-7.0,1650849139289848.0
-16.0,56.0,22.0,21.0,3.0,-1.0,-9.0,-31.0,1650849139289848.0
-51.0,-106.0,-44.0,-9.0,-22.0,-8.0,1.0,16.0,1650849139297853.0
91.0,89.0,14.0,16.0,29.0,4.0,13.0,23.0,1650849139297853.0
-22.0,-42.0,-3.0,-34.0,-29.0,-15.0,4.0,0.0,1650849139313903.0
21.0,-19.0,14.0,-1.0,-8.0,-12.0,-11.0,0.0,1650849139313903.0
-14.0,18.0,14.0,17.0,5.0,2.0,-9.0,-22.0,1650849139314903.0
-19.0,-32.0,-16.0,-12.0,-18.0,-4.0,-5.0,-7.0,1650849139314903.0
22.0,-1.0,3.0,13.0,20.0,12.0,-1.0,-7.0,1650849139343929.0
-5.0,-1.0,-7.0,-16.0,-13.0,-15.0,9.0,30.0,1650849139343929.0
1.0,5.0,9.0,7.0,11.0,16.0,0.0,-7.0,1650849139344938.0
-1.0,11.0,12.0,19.0,26.0,20.0,-2.0,-9.0,1650849139344938.0
2.0,30.0,-14.0,-19.0,-14.0,-20.0,-11.0,10.0,1650849139349913.0
-13.0,-21.0,14.0,9.0,8.0,27.0,37.0,10.0,1650849139349913.0
40.0,14.0,-13.0,8.0,-12.0,2.0,-6.0,-10.0,1650849139357913.0
-15.0,-3.0,-3.0,-3.0,10.0,-1.0,-3.0,-4.0,1650849139357913.0
5.0,17.0,15.0,4.0,-1.0,-6.0,-9.0,-11.0,1650849139374847.0
8.0,-24.0,-22.0,-13.0,-3.0,-18.0,-17.0,-3.0,1650849139374847.0
-36.0,18.0,12.0,-2.0,10.0,5.0,0.0,-5.0,1650849139375844.0
38.0,-2.0,-1.0,-34.0,-47.0,-6.0,16.0,18.0,1650849139375844.0
10.0,9.0,-4.0,64.0,61.0,14.0,3.0,6.0,1650849139395791.0
-4.0,-8.0,-8.0,-6.0,-5.0,-7.0,-6.0,0.0,1650849139395791.0
16.0,23.0,14.0,6.0,7.0,6.0,0.0,3.0,1650849139396796.0
-16.0,6.0,-3.0,-19.0,-10.0,-45.0,-22.0,-12.0,1650849139396796.0
17.0,19.0,33.0,13.0,-8.0,37.0,-3.0,-5.0,1650849139409792.0
-23.0,-28.0,-49.0,-15.0,9.0,48.0,10.0,-5.0,1650849139409792.0
43.0,14.0,18.0,-8.0,8.0,-1.0,20.0,27.0,1650849139417838.0
-22.0,-18.0,-3.0,5.0,-13.0,-25.0,-5.0,-24.0,1650849139417838.0
19.0,8.0,-20.0,-1.0,4.0,-3.0,22.0,-6.0,1650849139434092.0
42.0,1.0,13.0,-3.0,5.0,-21.0,-41.0,46.0,1650849139434092.0
25.0,-15.0,5.0,-17.0,-25.0,15.0,52.0,-7.0,1650849139434092.0
31.0,15.0,-5.0,23.0,-4.0,-4.0,-15.0,12.0,1650849139434092.0
-21.0,-7.0,6.0,-14.0,-18.0,-14.0,-13.0,-5.0,1650849139456063.0
21.0,-9.0,-6.0,4.0,6.0,-5.0,-4.0,-22.0,1650849139456063.0
-78.0,9.0,11.0,-11.0,16.0,-3.0,-21.0,-19.0,1650849139457033.0
0.0,1.0,-35.0,-16.0,12.0,-1.0,-2.0,4.0,1650849139457033.0
9.0,5.0,90.0,43.0,5.0,39.0,23.0,9.0,1650849139479013.0
-16.0,-8.0,-63.0,-26.0,2.0,-11.0,-4.0,-18.0,1650849139479013.0
25.0,4.0,-15.0,-14.0,-29.0,-31.0,-12.0,-1.0,1650849139479013.0
19.0,6.0,-7.0,34.0,18.0,35.0,2.0,-26.0,1650849139479013.0
6.0,37.0,-10.0,-67.0,-32.0,-14.0,14.0,22.0,1650849139493935.0
26.0,-45.0,20.0,35.0,11.0,-7.0,5.0,17.0,1650849139493935.0
-10.0,7.0,3.0,53.0,19.0,8.0,-14.0,-13.0,1650849139493935.0
26.0,-6.0,34.0,-7.0,-3.0,16.0,-2.0,0.0,1650849139493935.0
-41.0,-4.0,-54.0,-26.0,7.0,-9.0,0.0,11.0,1650849139516868.0
9.0,21.0,-2.0,-58.0,-7.0,-5.0,2.0,-14.0,1650849139516868.0
17.0,2.0,6.0,46.0,-4.0,-12.0,-12.0,-14.0,1650849139517896.0
1.0,-15.0,46.0,13.0,-25.0,-10.0,0.0,9.0,1650849139517896.0
-13.0,-7.0,27.0,8.0,3.0,-13.0,-27.0,-10.0,1650849139538227.0
-1.0,7.0,-23.0,-15.0,5.0,28.0,24.0,23.0,1650849139538227.0
-21.0,1.0,3.0,7.0,15.0,-5.0,-14.0,-12.0,1650849139539224.0
9.0,-5.0,40.0,6.0,6.0,10.0,3.0,9.0,1650849139539224.0
-3.0,13.0,-18.0,-13.0,-15.0,-18.0,-5.0,-2.0,1650849139552257.0
-6.0,8.0,5.0,18.0,4.0,-15.0,-7.0,-19.0,1650849139552257.0
-45.0,-2.0,5.0,-13.0,16.0,17.0,0.0,13.0,1650849139561165.0
-25.0,-13.0,-25.0,-15.0,-9.0,4.0,10.0,1.0,1650849139561165.0
8.0,-4.0,-17.0,13.0,-7.0,-18.0,-7.0,-10.0,1650849139576127.0
-13.0,3.0,-18.0,-9.0,-15.0,1.0,-2.0,-8.0,1650849139576127.0
9.0,-12.0,11.0,-16.0,2.0,15.0,7.0,12.0,1650849139578146.0
-40.0,26.0,-5.0,-4.0,26.0,1.0,-3.0,9.0,1650849139578146.0
17.0,-17.0,1.0,3.0,-12.0,5.0,19.0,-17.0,1650849139599193.0
43.0,7.0,-14.0,9.0,-10.0,-23.0,-9.0,-17.0,1650849139599193.0
-19.0,-4.0,-9.0,-28.0,-14.0,4.0,20.0,4.0,1650849139600188.0
60.0,3.0,-45.0,-19.0,2.0,3.0,-5.0,17.0,1650849139600188.0
-9.0,-10.0,-7.0,7.0,10.0,2.0,-14.0,-6.0,1650849139612836.0
-55.0,-3.0,74.0,37.0,-10.0,-8.0,-4.0,2.0,1650849139612836.0
-24.0,-5.0,-14.0,9.0,6.0,-10.0,-11.0,-3.0,1650849139621815.0
-65.0,15.0,11.0,18.0,15.0,15.0,9.0,-29.0,1650849139621815.0
61.0,-29.0,-26.0,-26.0,-23.0,-8.0,5.0,27.0,1650849139635918.0
-20.0,5.0,-8.0,-12.0,3.0,9.0,-6.0,12.0,1650849139635918.0
15.0,4.0,-40.0,-42.0,-5.0,-6.0,-9.0,-13.0,1650849139637885.0
42.0,-29.0,12.0,30.0,-6.0,-10.0,-6.0,43.0,1650849139637885.0
3.0,51.0,18.0,9.0,7.0,4.0,25.0,-5.0,1650849139658897.0
58.0,-49.0,0.0,24.0,-4.0,3.0,3.0,-4.0,1650849139658897.0
62.0,25.0,4.0,1.0,-2.0,-15.0,-20.0,-6.0,1650849139659854.0
-56.0,9.0,-11.0,-20.0,5.0,6.0,-1.0,0.0,1650849139659854.0
20.0,-5.0,-23.0,-18.0,-2.0,-3.0,-19.0,-7.0,1650849139672792.0
21.0,19.0,48.0,20.0,11.0,4.0,12.0,10.0,1650849139672792.0
-26.0,-10.0,-35.0,-25.0,-14.0,-7.0,-3.0,5.0,1650849139681797.0
84.0,-15.0,-10.0,-2.0,-2.0,-4.0,-8.0,-8.0,1650849139681797.0
-11.0,27.0,30.0,22.0,5.0,9.0,3.0,-7.0,1650849139696653.0
-58.0,16.0,30.0,29.0,7.0,-11.0,-10.0,-9.0,1650849139696653.0
-14.0,-22.0,-35.0,-60.0,-1.0,12.0,11.0,1.0,1650849139697819.0
26.0,9.0,2.0,16.0,-8.0,-5.0,8.0,-7.0,1650849139697819.0
-51.0,-12.0,-34.0,-27.0,-12.0,-6.0,-3.0,25.0,1650849139718762.0
75.0,1.0,16.0,56.0,7.0,-8.0,-23.0,-22.0,1650849139718762.0
10.0,-5.0,-3.0,-18.0,-1.0,6.0,7.0,15.0,1650849139720757.0
-48.0,-20.0,-16.0,-11.0,0.0,10.0,33.0,-7.0,1650849139720757.0
-27.0,33.0,21.0,-2.0,-1.0,-6.0,-33.0,-15.0,1650849139732753.0
78.0,4.0,-27.0,-25.0,-18.0,-4.0,26.0,19.0,1650849139732753.0
-41.0,25.0,33.0,36.0,6.0,5.0,-1.0,16.0,1650849139741702.0
26.0,-25.0,-20.0,-41.0,9.0,10.0,12.0,-5.0,1650849139741702.0
-44.0,23.0,30.0,30.0,0.0,-5.0,-9.0,-26.0,1650849139756669.0
9.0,-32.0,-12.0,-32.0,-1.0,-7.0,-18.0,13.0,1650849139756669.0
67.0,8.0,28.0,28.0,2.0,5.0,23.0,-5.0,1650849139757673.0
-56.0,15.0,19.0,7.0,0.0,-7.0,-17.0,-14.0,1650849139757673.0
12.0,-16.0,-32.0,-20.0,5.0,4.0,5.0,1.0,1650849139786117.0
12.0,2.0,0.0,-16.0,-9.0,-4.0,-12.0,32.0,1650849139786117.0
-19.0,2.0,1.0,13.0,9.0,-2.0,-7.0,-33.0,1650849139788085.0
-45.0,-17.0,-3.0,-3.0,-8.0,-2.0,12.0,-15.0,1650849139788085.0
1.0,-21.0,-16.0,6.0,-17.0,-7.0,-5.0,10.0,1650849139792102.0
-48.0,6.0,10.0,-12.0,1.0,9.0,20.0,-11.0,1650849139792102.0
86.0,-20.0,3.0,40.0,4.0,-5.0,-27.0,19.0,1650849139801063.0
-53.0,44.0,9.0,-18.0,13.0,7.0,21.0,0.0,1650849139801063.0
-7.0,-21.0,14.0,1.0,5.0,-9.0,-16.0,-7.0,1650849139816037.0
24.0,20.0,-31.0,-16.0,-21.0,-9.0,5.0,-8.0,1650849139816037.0
-3.0,13.0,-1.0,-32.0,4.0,9.0,3.0,18.0,1650849139818005.0
-51.0,-38.0,24.0,46.0,14.0,32.0,19.0,-2.0,1650849139818005.0
65.0,24.0,20.0,8.0,7.0,6.0,13.0,15.0,1650849139838948.0
-69.0,-33.0,-56.0,-12.0,12.0,16.0,17.0,-2.0,1650849139838948.0
-33.0,3.0,44.0,28.0,-23.0,-33.0,-8.0,-6.0,1650849139839948.0
38.0,6.0,-17.0,-3.0,-10.0,-7.0,7.0,-4.0,1650849139839948.0
-59.0,-3.0,5.0,-16.0,5.0,2.0,4.0,-20.0,1650849139851941.0
-21.0,34.0,37.0,23.0,20.0,1.0,-22.0,9.0,1650849139851941.0
55.0,-18.0,-48.0,-25.0,-13.0,0.0,-5.0,-3.0,1650849139860957.0
-13.0,-28.0,-20.0,-12.0,-23.0,-13.0,4.0,26.0,1650849139860957.0
74.0,-9.0,-25.0,7.0,7.0,5.0,11.0,2.0,1650849139875936.0
-19.0,-1.0,22.0,3.0,-3.0,-7.0,-17.0,-20.0,1650849139875936.0
12.0,13.0,15.0,32.0,24.0,15.0,21.0,8.0,1650849139877933.0
-29.0,10.0,-6.0,15.0,-8.0,-36.0,-49.0,-9.0,1650849139877933.0
26.0,-6.0,-9.0,18.0,1.0,10.0,-3.0,-15.0,1650849139898999.0
-116.0,-19.0,-17.0,-29.0,9.0,35.0,2.0,1.0,1650849139898999.0
-3.0,-3.0,-14.0,-11.0,-6.0,-5.0,-2.0,-10.0,1650849139899969.0
-21.0,17.0,28.0,13.0,5.0,-4.0,4.0,-6.0,1650849139899969.0
-13.0,-23.0,-20.0,-19.0,-11.0,-24.0,-26.0,14.0,1650849139911950.0
49.0,20.0,-1.0,-23.0,-9.0,-10.0,-4.0,8.0,1650849139911950.0
-14.0,-38.0,-1.0,-5.0,-10.0,12.0,33.0,-1.0,1650849139920912.0
30.0,9.0,3.0,5.0,12.0,-3.0,-12.0,9.0,1650849139920912.0
-1.0,18.0,8.0,6.0,3.0,1.0,11.0,7.0,1650849139936897.0
1.0,5.0,15.0,13.0,1.0,5.0,-14.0,-4.0,1650849139936897.0
-35.0,-9.0,-4.0,-24.0,-2.0,-10.0,-18.0,-11.0,1650849139937868.0
54.0,6.0,-48.0,-20.0,-9.0,8.0,10.0,18.0,1650849139937868.0
-10.0,-20.0,8.0,-43.0,-8.0,2.0,14.0,2.0,1650849139958878.0
33.0,-3.0,13.0,55.0,8.0,-6.0,-3.0,-6.0,1650849139958878.0
-65.0,25.0,-4.0,18.0,3.0,-14.0,-7.0,-12.0,1650849139959809.0
2.0,8.0,5.0,-18.0,15.0,23.0,-5.0,-4.0,1650849139959809.0
-11.0,-3.0,29.0,8.0,-3.0,4.0,1.0,0.0,1650849139971776.0
97.0,1.0,-10.0,-19.0,-28.0,-25.0,21.0,9.0,1650849139971776.0
41.0,12.0,10.0,8.0,9.0,-13.0,-5.0,10.0,1650849139981750.0
65.0,14.0,14.0,6.0,19.0,58.0,-5.0,-9.0,1650849139981750.0
7.0,-11.0,-40.0,2.0,0.0,-1.0,10.0,2.0,1650849139995712.0
17.0,-5.0,0.0,-22.0,3.0,3.0,6.0,-3.0,1650849139995712.0
-71.0,-9.0,7.0,6.0,-17.0,-16.0,-5.0,-8.0,1650849139997719.0
15.0,12.0,4.0,-2.0,-13.0,-27.0,-11.0,-6.0,1650849139997719.0
1.0,-11.0,-3.0,31.0,11.0,7.0,-1.0,-1.0,1650849140018679.0
-30.0,0.0,0.0,5.0,-8.0,0.0,6.0,-2.0,1650849140018679.0
34.0,12.0,14.0,15.0,14.0,8.0,-9.0,4.0,1650849140020646.0
27.0,-8.0,-8.0,-22.0,8.0,-6.0,5.0,6.0,1650849140020646.0
-28.0,1.0,26.0,9.0,-13.0,0.0,5.0,-2.0,1650849140032614.0
-93.0,-19.0,-28.0,2.0,-4.0,-9.0,-26.0,-22.0,1650849140032614.0
-1.0,-6.0,-11.0,-24.0,-4.0,16.0,31.0,14.0,1650849140041591.0
12.0,26.0,15.0,42.0,7.0,-6.0,-9.0,-7.0,1650849140041591.0
30.0,13.0,43.0,20.0,5.0,-19.0,-12.0,0.0,1650849140056550.0
-15.0,-20.0,-45.0,-11.0,22.0,16.0,3.0,-8.0,1650849140056550.0
-3.0,2.0,37.0,17.0,-1.0,22.0,16.0,4.0,1650849140057549.0
-23.0,-32.0,-58.0,-27.0,-27.0,-27.0,-29.0,-5.0,1650849140057549.0
50.0,37.0,15.0,-3.0,12.0,10.0,19.0,27.0,1650849140079182.0
-5.0,-36.0,-14.0,-6.0,-6.0,-12.0,7.0,2.0,1650849140079182.0
12.0,14.0,24.0,5.0,5.0,-3.0,-18.0,-9.0,1650849140080129.0
-48.0,8.0,0.0,-14.0,-8.0,-3.0,3.0,-13.0,1650849140080129.0
-49.0,-20.0,-19.0,-13.0,0.0,18.0,-1.0,-11.0,1650849140092098.0
47.0,20.0,22.0,1.0,0.0,3.0,3.0,-1.0,1650849140092098.0
-21.0,-8.0,-14.0,10.0,7.0,-3.0,-6.0,8.0,1650849140101073.0
41.0,-3.0,35.0,33.0,6.0,-4.0,-6.0,6.0,1650849140101073.0
-17.0,4.0,-18.0,-14.0,-5.0,2.0,17.0,-6.0,1650849140116032.0
17.0,12.0,19.0,-7.0,-4.0,3.0,7.0,6.0,1650849140116032.0
-16.0,-5.0,-9.0,11.0,-6.0,-18.0,-16.0,-8.0,1650849140118027.0
-3.0,12.0,-2.0,-26.0,-14.0,-13.0,4.0,-2.0,1650849140118027.0
-42.0,-13.0,-19.0,1.0,20.0,36.0,8.0,6.0,1650849140138999.0
28.0,6.0,-16.0,14.0,6.0,0.0,7.0,12.0,1650849140138999.0
22.0,0.0,4.0,-30.0,-8.0,-8.0,-11.0,2.0,1650849140139970.0
-31.0,-6.0,44.0,42.0,5.0,-11.0,6.0,-13.0,1650849140139970.0
-21.0,-11.0,-28.0,-15.0,-4.0,4.0,-1.0,-8.0,1650849140151965.0
54.0,5.0,6.0,-7.0,-1.0,-17.0,0.0,8.0,1650849140151965.0
-3.0,-2.0,-24.0,-1.0,-1.0,33.0,-3.0,-3.0,1650849140161910.0
-1.0,-10.0,-8.0,-27.0,-6.0,-12.0,2.0,1.0,1650849140161910.0
50.0,8.0,18.0,21.0,1.0,4.0,-9.0,3.0,1650849140176652.0
44.0,31.0,-20.0,-5.0,1.0,2.0,10.0,11.0,1650849140176652.0
-32.0,-10.0,22.0,7.0,1.0,-6.0,-8.0,-18.0,1650849140177889.0
-30.0,-13.0,-24.0,-39.0,-12.0,-10.0,-9.0,0.0,1650849140177889.0
-29.0,27.0,11.0,36.0,1.0,-7.0,9.0,-3.0,1650849140198956.0
-46.0,-11.0,19.0,-4.0,1.0,8.0,-4.0,-4.0,1650849140198956.0
3.0,-5.0,39.0,24.0,0.0,-3.0,1.0,-3.0,1650849140199927.0
13.0,5.0,-5.0,4.0,-6.0,-10.0,-5.0,0.0,1650849140199927.0
22.0,-11.0,-43.0,-51.0,-1.0,7.0,-10.0,1.0,1650849140211962.0
2.0,9.0,16.0,16.0,8.0,26.0,-1.0,-2.0,1650849140211962.0
-29.0,-5.0,37.0,13.0,-4.0,-12.0,-2.0,0.0,1650849140220898.0
-14.0,3.0,-28.0,-14.0,2.0,12.0,10.0,-4.0,1650849140220898.0
35.0,-17.0,14.0,18.0,-10.0,-41.0,-16.0,6.0,1650849140235858.0
-33.0,-4.0,-37.0,-32.0,-12.0,9.0,1.0,-11.0,1650849140235858.0
20.0,-14.0,-18.0,1.0,5.0,13.0,-9.0,1.0,1650849140237826.0
37.0,-16.0,-16.0,4.0,-4.0,8.0,16.0,13.0,1650849140237826.0
14.0,26.0,15.0,-24.0,-8.0,-14.0,10.0,10.0,1650849140258841.0
0.0,-10.0,12.0,18.0,9.0,0.0,-2.0,3.0,1650849140258841.0
52.0,28.0,-13.0,-12.0,-7.0,-13.0,-1.0,3.0,1650849140260764.0
-11.0,-6.0,27.0,19.0,7.0,7.0,-8.0,-8.0,1650849140260764.0
-5.0,-9.0,-51.0,-16.0,-5.0,-3.0,-8.0,-12.0,1650849140272731.0
37.0,12.0,16.0,18.0,3.0,-6.0,6.0,-4.0,1650849140272731.0
10.0,4.0,-4.0,-22.0,-1.0,-1.0,2.0,3.0,1650849140281708.0
12.0,-1.0,22.0,24.0,-4.0,-18.0,-8.0,1.0,1650849140281708.0
-17.0,-21.0,-6.0,0.0,-13.0,24.0,-7.0,-6.0,1650849140296126.0
-12.0,9.0,0.0,-24.0,-10.0,-39.0,-6.0,-6.0,1650849140296126.0
14.0,7.0,-14.0,3.0,35.0,62.0,13.0,10.0,1650849140298113.0
-14.0,-11.0,-7.0,4.0,-4.0,-6.0,4.0,0.0,1650849140298113.0
18.0,8.0,20.0,6.0,-13.0,-21.0,-5.0,1.0,1650849140319122.0
-38.0,0.0,5.0,0.0,-8.0,-9.0,-5.0,-8.0,1650849140319122.0
-6.0,-11.0,-8.0,-19.0,-17.0,-21.0,6.0,-3.0,1650849140320119.0
-1.0,10.0,2.0,-6.0,7.0,5.0,-4.0,0.0,1650849140320119.0
-22.0,-23.0,-12.0,7.0,9.0,5.0,-4.0,-10.0,1650849140332114.0
-18.0,1.0,3.0,1.0,-2.0,2.0,1.0,-5.0,1650849140332114.0
5.0,-6.0,-18.0,-3.0,-3.0,-14.0,-5.0,1.0,1650849140341063.0
17.0,16.0,-4.0,-15.0,0.0,6.0,7.0,-1.0,1650849140341063.0
-13.0,-8.0,-10.0,-13.0,-4.0,-13.0,-3.0,0.0,1650849140356050.0
3.0,-5.0,21.0,15.0,12.0,46.0,13.0,2.0,1650849140356050.0
-38.0,-4.0,-13.0,0.0,-1.0,-11.0,2.0,1.0,1650849140358020.0
-37.0,-10.0,-6.0,-14.0,-8.0,-20.0,-5.0,-2.0,1650849140358020.0
-5.0,3.0,37.0,40.0,5.0,18.0,-5.0,-2.0,1650849140378961.0
-13.0,-12.0,-36.0,1.0,10.0,-3.0,-3.0,-8.0,1650849140378961.0
22.0,2.0,15.0,16.0,11.0,11.0,8.0,9.0,1650849140379959.0
11.0,1.0,-1.0,-19.0,-4.0,-4.0,-6.0,0.0,1650849140379959.0
-15.0,-3.0,-4.0,-8.0,-5.0,-19.0,-3.0,-4.0,1650849140391927.0
-16.0,-19.0,-3.0,-6.0,-8.0,-4.0,-1.0,0.0,1650849140391927.0
3.0,-1.0,-6.0,0.0,-10.0,-4.0,0.0,-3.0,1650849140400902.0
7.0,5.0,7.0,4.0,4.0,5.0,2.0,4.0,1650849140400902.0
5.0,-3.0,-21.0,-12.0,-2.0,5.0,8.0,1.0,1650849140415889.0
4.0,11.0,56.0,29.0,4.0,6.0,-1.0,-10.0,1650849140415889.0
46.0,13.0,-20.0,13.0,-11.0,-18.0,-9.0,6.0,1650849140417858.0
23.0,2.0,29.0,25.0,4.0,11.0,5.0,3.0,1650849140417858.0
36.0,-7.0,-30.0,-27.0,-6.0,-2.0,-4.0,3.0,1650849140438828.0
7.0,10.0,-1.0,-8.0,0.0,-3.0,-3.0,0.0,1650849140438828.0
-19.0,-9.0,-13.0,-2.0,-6.0,-15.0,-8.0,-8.0,1650849140440796.0
-1.0,-2.0,-7.0,-14.0,-7.0,-2.0,-7.0,-2.0,1650849140440796.0
8.0,3.0,-13.0,-2.0,16.0,32.0,16.0,7.0,1650849140460810.0
-12.0,-5.0,12.0,-17.0,2.0,-13.0,-11.0,-2.0,1650849140460810.0
0.0,8.0,-13.0,2.0,-12.0,-12.0,3.0,-7.0,1650849140462750.0
11.0,10.0,15.0,13.0,-3.0,31.0,18.0,10.0,1650849140462750.0
-8.0,0.0,31.0,16.0,5.0,-21.0,-16.0,-11.0,1650849140476710.0
-57.0,-16.0,-10.0,-3.0,-5.0,-20.0,-6.0,3.0,1650849140476710.0
7.0,11.0,4.0,-6.0,7.0,30.0,4.0,-4.0,1650849140477697.0
-11.0,9.0,-13.0,-18.0,-8.0,-13.0,-10.0,-8.0,1650849140477697.0
2.0,-1.0,7.0,-10.0,7.0,1.0,-4.0,1.0,1650849140498742.0
-53.0,-3.0,-10.0,-3.0,0.0,10.0,13.0,-2.0,1650849140498742.0
13.0,-11.0,5.0,-4.0,-5.0,-10.0,-7.0,-3.0,1650849140500742.0
-7.0,-12.0,-19.0,-2.0,-2.0,-2.0,-1.0,1.0,1650849140500742.0
-16.0,5.0,27.0,29.0,3.0,0.0,0.0,-1.0,1650849140520825.0
16.0,6.0,6.0,5.0,7.0,-2.0,-2.0,-4.0,1650849140520825.0
-2.0,-12.0,-20.0,-27.0,-7.0,-5.0,-2.0,1.0,1650849140522796.0
-9.0,-3.0,-9.0,5.0,-5.0,-19.0,-6.0,-7.0,1650849140522796.0
5.0,5.0,0.0,-12.0,5.0,16.0,7.0,4.0,1650849140535756.0
18.0,-3.0,-7.0,8.0,0.0,19.0,14.0,6.0,1650849140535756.0
-5.0,1.0,28.0,-7.0,-7.0,-22.0,-6.0,0.0,1650849140537756.0
9.0,23.0,15.0,4.0,7.0,25.0,0.0,1.0,1650849140537756.0
-17.0,-37.0,-51.0,7.0,2.0,-22.0,-4.0,-6.0,1650849140558695.0
31.0,22.0,16.0,-3.0,-7.0,-3.0,-1.0,8.0,1650849140558695.0
-12.0,-11.0,8.0,-1.0,0.0,4.0,1.0,-2.0,1650849140560719.0
-6.0,6.0,-8.0,-9.0,3.0,-9.0,-1.0,-4.0,1650849140560719.0
34.0,21.0,16.0,-3.0,-11.0,-4.0,-2.0,4.0,1650849140581641.0
-1.0,-3.0,-8.0,5.0,1.0,7.0,-1.0,-1.0,1650849140581641.0
7.0,-5.0,0.0,2.0,-6.0,-12.0,4.0,4.0,1650849140582633.0
-5.0,-9.0,1.0,0.0,7.0,3.0,-3.0,-2.0,1650849140582633.0
-13.0,7.0,19.0,17.0,16.0,11.0,-4.0,-7.0,1650849140596602.0
37.0,-6.0,-11.0,-3.0,-6.0,10.0,8.0,10.0,1650849140596602.0
-16.0,0.0,-8.0,-18.0,-4.0,-2.0,15.0,-1.0,1650849140597591.0
-33.0,-10.0,12.0,26.0,-3.0,1.0,8.0,-1.0,1650849140597591.0
0.0,4.0,8.0,-7.0,0.0,-16.0,-11.0,0.0,1650849140618554.0
2.0,-4.0,-18.0,-16.0,-10.0,-6.0,3.0,-2.0,1650849140618554.0
-7.0,-5.0,-3.0,17.0,13.0,39.0,-1.0,0.0,1650849140620529.0
1.0,16.0,9.0,3.0,8.0,6.0,4.0,-1.0,1650849140620529.0
-7.0,-3.0,-40.0,-32.0,-12.0,-17.0,-5.0,-3.0,1650849140648454.0
12.0,-10.0,33.0,28.0,-2.0,-13.0,-6.0,-1.0,1650849140648454.0
14.0,9.0,9.0,17.0,9.0,6.0,0.0,1.0,1650849140650449.0
18.0,-15.0,-11.0,-14.0,-16.0,-5.0,0.0,4.0,1650849140650449.0
-15.0,10.0,4.0,-5.0,5.0,3.0,1.0,-2.0,1650849140655456.0
-5.0,-4.0,-9.0,-17.0,0.0,-4.0,-7.0,-2.0,1650849140655456.0
-13.0,-3.0,-17.0,-3.0,0.0,-1.0,1.0,-2.0,1650849140662445.0
12.0,-1.0,20.0,15.0,2.0,-4.0,-3.0,2.0,1650849140662445.0
-12.0,-11.0,0.0,-20.0,-12.0,0.0,0.0,-2.0,1650849140678442.0
-2.0,6.0,-11.0,15.0,12.0,19.0,3.0,-2.0,1650849140678442.0
-11.0,4.0,12.0,6.0,-3.0,-18.0,-8.0,-8.0,1650849140680370.0
4.0,-6.0,-14.0,-6.0,4.0,9.0,1.0,4.0,1650849140680370.0
-6.0,-5.0,-10.0,-16.0,5.0,-6.0,8.0,3.0,1650849140701421.0
-41.0,-1.0,-11.0,-18.0,-6.0,0.0,-18.0,-11.0,1650849140701421.0
3.0,-1.0,18.0,16.0,-14.0,-15.0,-3.0,-4.0,1650849140702410.0
13.0,-3.0,7.0,18.0,10.0,11.0,5.0,5.0,1650849140702410.0
21.0,9.0,36.0,6.0,-2.0,2.0,-15.0,0.0,1650849140715363.0
6.0,-5.0,-65.0,-22.0,-4.0,-9.0,12.0,3.0,1650849140715363.0
-9.0,-2.0,-7.0,-8.0,2.0,-14.0,-18.0,-4.0,1650849140722345.0
-24.0,-3.0,-11.0,-11.0,3.0,7.0,-3.0,-7.0,1650849140722345.0
5.0,2.0,27.0,37.0,-13.0,-2.0,-2.0,-5.0,1650849140738330.0
12.0,-15.0,-7.0,-25.0,1.0,-13.0,-6.0,1.0,1650849140738330.0
20.0,9.0,-5.0,2.0,-4.0,-2.0,8.0,7.0,1650849140740297.0
6.0,1.0,-7.0,-12.0,-8.0,-4.0,-3.0,2.0,1650849140740297.0
-18.0,-4.0,0.0,8.0,31.0,44.0,11.0,2.0,1650849140761250.0
-6.0,17.0,20.0,6.0,-17.0,-14.0,-5.0,-9.0,1650849140761250.0
-11.0,-13.0,-13.0,-9.0,0.0,1.0,3.0,-2.0,1650849140767254.0
10.0,4.0,3.0,-3.0,11.0,-2.0,0.0,3.0,1650849140767254.0
-7.0,-9.0,-22.0,-29.0,-25.0,-19.0,-3.0,-2.0,1650849140775203.0
2.0,-6.0,32.0,40.0,8.0,-11.0,1.0,0.0,1650849140775203.0
15.0,3.0,-5.0,-24.0,-6.0,9.0,-6.0,1.0,1650849140782184.0
-7.0,3.0,1.0,2.0,-17.0,-1.0,4.0,-1.0,1650849140782184.0
3.0,5.0,-22.0,8.0,8.0,-4.0,6.0,2.0,1650849140798874.0
0.0,-5.0,17.0,20.0,17.0,9.0,1.0,1.0,1650849140798874.0
-12.0,-1.0,-34.0,-12.0,-2.0,-5.0,-3.0,0.0,1650849140799831.0
1.0,-4.0,1.0,0.0,10.0,5.0,-2.0,-5.0,1650849140799831.0
11.0,-3.0,5.0,-3.0,-17.0,-11.0,7.0,9.0,1650849140820926.0
-8.0,1.0,2.0,-20.0,-16.0,0.0,-2.0,-3.0,1650849140820926.0
13.0,11.0,-13.0,-26.0,-4.0,-11.0,0.0,0.0,1650849140822913.0
0.0,-6.0,9.0,31.0,15.0,23.0,8.0,2.0,1650849140822913.0
-2.0,0.0,-5.0,2.0,7.0,7.0,1.0,-2.0,1650849140835973.0
10.0,-6.0,-4.0,2.0,6.0,-4.0,-14.0,0.0,1650849140835973.0
-3.0,-12.0,13.0,-9.0,-10.0,1.0,21.0,4.0,1650849140841958.0
31.0,1.0,-39.0,-25.0,-12.0,-16.0,-7.0,-4.0,1650849140841958.0
-29.0,4.0,36.0,18.0,-11.0,-41.0,-12.0,-8.0,1650849140858912.0
2.0,4.0,7.0,10.0,18.0,60.0,12.0,4.0,1650849140858912.0
5.0,-7.0,-9.0,-6.0,3.0,2.0,-1.0,0.0,1650849140859909.0
4.0,-4.0,10.0,-1.0,-8.0,-19.0,-5.0,2.0,1650849140859909.0
7.0,2.0,6.0,19.0,2.0,9.0,2.0,1.0,1650849140880915.0
-10.0,1.0,-13.0,-20.0,-6.0,-30.0,-7.0,-3.0,1650849140880915.0
-6.0,-2.0,6.0,20.0,13.0,22.0,0.0,0.0,1650849140882848.0
-24.0,-6.0,4.0,-3.0,-4.0,-4.0,0.0,-3.0,1650849140882848.0
1.0,-2.0,-14.0,-17.0,-16.0,-7.0,-4.0,-1.0,1650849140895952.0
-1.0,0.0,0.0,11.0,22.0,9.0,10.0,6.0,1650849140895952.0
-1.0,11.0,15.0,5.0,6.0,-5.0,-2.0,-1.0,1650849140902824.0
-4.0,-6.0,18.0,13.0,-2.0,7.0,-3.0,-3.0,1650849140902824.0
-10.0,-6.0,-11.0,3.0,7.0,10.0,1.0,-4.0,1650849140918801.0
1.0,2.0,-1.0,-21.0,-28.0,-17.0,-5.0,-4.0,1650849140918801.0
1.0,4.0,-2.0,9.0,3.0,-7.0,4.0,4.0,1650849140924756.0
-9.0,-4.0,-4.0,1.0,4.0,-5.0,-3.0,3.0,1650849140924756.0
10.0,1.0,-2.0,-10.0,4.0,31.0,14.0,5.0,1650849140940740.0
-6.0,-3.0,-2.0,1.0,-3.0,-9.0,-2.0,0.0,1650849140940740.0
-1.0,2.0,2.0,5.0,14.0,5.0,-9.0,-5.0,1650849140942709.0
-9.0,-9.0,-15.0,-16.0,-17.0,-19.0,-6.0,-3.0,1650849140942709.0
-3.0,-2.0,9.0,7.0,8.0,-2.0,0.0,1.0,1650849140954711.0
3.0,0.0,-1.0,7.0,0.0,-1.0,-3.0,-4.0,1650849140954711.0
-1.0,-5.0,12.0,7.0,0.0,13.0,5.0,3.0,1650849140963653.0
3.0,3.0,-14.0,-13.0,-9.0,-17.0,-5.0,1.0,1650849140963653.0
2.0,2.0,7.0,9.0,5.0,18.0,2.0,2.0,1650849140978679.0
-1.0,1.0,-8.0,-3.0,6.0,0.0,6.0,-1.0,1650849140978679.0
-1.0,-5.0,-2.0,-1.0,-7.0,-11.0,-10.0,-3.0,1650849140980633.0
-14.0,-2.0,13.0,10.0,5.0,7.0,1.0,-4.0,1650849140980633.0
-4.0,1.0,-7.0,-9.0,-4.0,-13.0,-10.0,-3.0,1650849141008531.0
4.0,0.0,4.0,-1.0,-6.0,-4.0,2.0,3.0,1650849141008531.0
-1.0,4.0,-2.0,6.0,1.0,-16.0,-4.0,-1.0,1650849141010553.0
2.0,4.0,-7.0,0.0,8.0,54.0,7.0,3.0,1650849141010553.0
-2.0,-4.0,-1.0,-9.0,-7.0,-19.0,-6.0,-8.0,1650849141014515.0
-10.0,-1.0,-3.0,-8.0,-8.0,0.0,-3.0,2.0,1650849141014515.0
-2.0,-4.0,7.0,-3.0,-3.0,-4.0,-2.0,-1.0,1650849141023491.0
11.0,1.0,-11.0,-4.0,-9.0,-22.0,-4.0,0.0,1650849141023491.0
5.0,7.0,14.0,16.0,20.0,28.0,7.0,4.0,1650849141046584.0
2.0,-2.0,-2.0,-6.0,-4.0,0.0,3.0,-2.0,1650849141046584.0
-7.0,1.0,5.0,6.0,0.0,-2.0,-7.0,-4.0,1650849141047516.0
-12.0,-11.0,-6.0,-10.0,-5.0,-21.0,-3.0,-7.0,1650849141047516.0
2.0,1.0,-10.0,-13.0,-3.0,11.0,4.0,2.0,1650849141061477.0
13.0,5.0,-1.0,6.0,10.0,0.0,0.0,3.0,1650849141061477.0
-7.0,-6.0,11.0,6.0,-2.0,3.0,1.0,-3.0,1650849141062478.0
-3.0,-3.0,-13.0,-2.0,3.0,3.0,3.0,-1.0,1650849141062478.0
1.0,0.0,-1.0,-5.0,-15.0,-19.0,-4.0,0.0,1650849141074470.0
-4.0,1.0,3.0,-6.0,-11.0,-20.0,-5.0,-3.0,1650849141074470.0
0.0,0.0,-7.0,0.0,17.0,32.0,1.0,2.0,1650849141083419.0
7.0,5.0,12.0,9.0,1.0,-15.0,3.0,3.0,1650849141083419.0
-3.0,-5.0,-8.0,-2.0,9.0,21.0,7.0,2.0,1650849141098958.0
-1.0,-2.0,4.0,3.0,-7.0,-2.0,1.0,0.0,1650849141098958.0
3.0,5.0,1.0,3.0,5.0,-7.0,-1.0,0.0,1650849141099888.0
-8.0,1.0,-1.0,-1.0,-6.0,-16.0,-8.0,-3.0,1650849141099888.0
-2.0,-4.0,-6.0,-1.0,-2.0,-14.0,-8.0,-6.0,1650849141120860.0
1.0,-1.0,0.0,-1.0,-1.0,14.0,7.0,5.0,1650849141120860.0
12.0,8.0,-2.0,-1.0,2.0,1.0,3.0,5.0,1650849141122827.0
-4.0,-1.0,5.0,6.0,1.0,7.0,1.0,-3.0,1650849141122827.0
2.0,1.0,3.0,0.0,-4.0,-15.0,-1.0,-2.0,1650849141134858.0
-9.0,-3.0,6.0,6.0,5.0,4.0,-4.0,-10.0,1650849141134858.0
0.0,-5.0,-8.0,-11.0,-8.0,-1.0,-1.0,0.0,1650849141143771.0
6.0,4.0,-5.0,-10.0,0.0,4.0,1.0,4.0,1650849141143771.0
-8.0,-4.0,-3.0,-2.0,-6.0,-4.0,-6.0,-4.0,1650849141158732.0
-1.0,-1.0,2.0,4.0,2.0,6.0,12.0,1.0,1650849141158732.0
0.0,2.0,8.0,10.0,0.0,-3.0,0.0,-2.0,1650849141160726.0
1.0,2.0,-1.0,1.0,17.0,31.0,9.0,1.0,1650849141160726.0
-3.0,-5.0,2.0,1.0,-13.0,-26.0,-9.0,-1.0,1650849141180734.0
-2.0,1.0,-3.0,-9.0,-5.0,1.0,-9.0,0.0,1650849141180734.0
-6.0,-2.0,1.0,-5.0,-11.0,-9.0,9.0,-1.0,1650849141182666.0
0.0,-3.0,-1.0,2.0,14.0,14.0,-3.0,-3.0,1650849141182666.0
5.0,2.0,6.0,16.0,11.0,6.0,5.0,2.0,1650849141194645.0
0.0,-2.0,1.0,-6.0,-12.0,-25.0,-8.0,-1.0,1650849141194645.0
-4.0,0.0,-3.0,2.0,-7.0,3.0,-1.0,0.0,1650849141203610.0
2.0,1.0,-3.0,2.0,0.0,-6.0,-2.0,1.0,1650849141203610.0
3.0,2.0,-7.0,-10.0,12.0,9.0,4.0,2.0,1650849141218762.0
-5.0,-12.0,14.0,12.0,1.0,1.0,-5.0,-9.0,1650849141218762.0
7.0,-1.0,0.0,-8.0,-13.0,-6.0,-3.0,3.0,1650849141220757.0
-10.0,0.0,-4.0,-3.0,3.0,0.0,0.0,-3.0,1650849141220757.0
10.0,8.0,-3.0,2.0,-2.0,-1.0,0.0,0.0,1650849141240852.0
3.0,-20.0,-11.0,-6.0,0.0,6.0,-1.0,1.0,1650849141240852.0
-7.0,-2.0,-4.0,1.0,4.0,4.0,-2.0,-3.0,1650849141242817.0
-5.0,-1.0,5.0,7.0,-8.0,-14.0,-5.0,-5.0,1650849141242817.0
0.0,2.0,-9.0,-13.0,-15.0,-5.0,1.0,8.0,1650849141254812.0
-11.0,2.0,0.0,3.0,16.0,16.0,2.0,-1.0,1650849141254812.0
13.0,3.0,10.0,8.0,-4.0,-2.0,2.0,5.0,1650849141263761.0
-3.0,-3.0,2.0,-5.0,-2.0,-5.0,-5.0,-6.0,1650849141263761.0
-18.0,-7.0,-3.0,-5.0,0.0,-4.0,-3.0,-4.0,1650849141278790.0
6.0,-2.0,-11.0,-14.0,-10.0,5.0,11.0,5.0,1650849141278790.0
-2.0,18.0,-5.0,-6.0,-2.0,-12.0,-8.0,-7.0,1650849141280745.0
18.0,-23.0,11.0,24.0,11.0,8.0,6.0,9.0,1650849141280745.0
15.0,13.0,8.0,2.0,5.0,11.0,-2.0,6.0,1650849141300661.0
-19.0,-4.0,-5.0,-3.0,8.0,6.0,14.0,-1.0,1650849141300661.0
-6.0,-18.0,-11.0,-11.0,-10.0,-8.0,-9.0,-6.0,1650849141302657.0
-31.0,-2.0,-4.0,-14.0,-14.0,-10.0,1.0,-8.0,1650849141302657.0
27.0,-1.0,-5.0,6.0,-1.0,0.0,-1.0,7.0,1650849141323602.0
18.0,-7.0,18.0,28.0,8.0,-3.0,-3.0,6.0,1650849141323602.0
-9.0,5.0,-2.0,-2.0,3.0,1.0,-3.0,-2.0,1650849141325596.0
-2.0,4.0,-4.0,-9.0,-4.0,0.0,0.0,-2.0,1650849141325596.0
-18.0,-4.0,-7.0,-11.0,1.0,2.0,1.0,-6.0,1650849141338581.0
2.0,13.0,-7.0,-4.0,-9.0,0.0,-3.0,1.0,1650849141338581.0
2.0,-6.0,5.0,4.0,7.0,1.0,0.0,2.0,1650849141340576.0
5.0,-21.0,5.0,0.0,-5.0,-4.0,-3.0,2.0,1650849141340576.0
-11.0,2.0,-2.0,-8.0,-9.0,-1.0,-2.0,-7.0,1650849141361501.0
-9.0,-6.0,-14.0,-7.0,-3.0,-8.0,-7.0,-3.0,1650849141361501.0
-9.0,-6.0,3.0,-11.0,-5.0,2.0,0.0,-3.0,1650849141362498.0
-7.0,16.0,-3.0,14.0,6.0,-4.0,-1.0,2.0,1650849141362498.0
9.0,-21.0,21.0,21.0,-3.0,-6.0,-6.0,-4.0,1650849141384213.0
12.0,18.0,-7.0,-13.0,0.0,11.0,1.0,7.0,1650849141384213.0
-14.0,-2.0,-7.0,-3.0,-3.0,0.0,2.0,-6.0,1650849141385213.0
-9.0,7.0,0.0,2.0,2.0,4.0,3.0,1.0,1650849141385213.0
6.0,13.0,-2.0,1.0,3.0,-10.0,-1.0,1.0,1650849141398366.0
-3.0,-28.0,4.0,1.0,-4.0,-12.0,-8.0,-4.0,1650849141398366.0
12.0,7.0,3.0,-3.0,5.0,8.0,4.0,2.0,1650849141400293.0
-7.0,4.0,3.0,-1.0,2.0,-6.0,-4.0,-6.0,1650849141400293.0
-8.0,14.0,3.0,-3.0,-13.0,-7.0,-2.0,-4.0,1650849141421300.0
2.0,-10.0,-8.0,0.0,-4.0,2.0,0.0,-1.0,1650849141421300.0
-20.0,-11.0,6.0,5.0,9.0,10.0,5.0,-1.0,1650849141423281.0
38.0,16.0,-12.0,-4.0,11.0,3.0,1.0,8.0,1650849141423281.0
-8.0,-14.0,0.0,-10.0,-7.0,-2.0,-3.0,-4.0,1650849141443977.0
-12.0,16.0,8.0,13.0,-4.0,-18.0,-6.0,-8.0,1650849141443977.0
14.0,-7.0,-1.0,1.0,-6.0,17.0,3.0,8.0,1650849141444974.0
-3.0,6.0,-3.0,-13.0,-8.0,-23.0,-8.0,-5.0,1650849141444974.0
0.0,-3.0,-13.0,-3.0,17.0,36.0,9.0,3.0,1650849141459023.0
5.0,11.0,13.0,8.0,8.0,2.0,-1.0,0.0,1650849141459023.0
-10.0,-3.0,3.0,7.0,-6.0,-20.0,-8.0,-11.0,1650849141460028.0
-6.0,-1.0,-3.0,-17.0,-5.0,12.0,5.0,7.0,1650849141460028.0
-6.0,1.0,-7.0,-4.0,-3.0,-10.0,-5.0,-5.0,1650849141482024.0
-9.0,-42.0,-12.0,-10.0,-13.0,-7.0,-2.0,-4.0,1650849141482024.0
29.0,25.0,19.0,24.0,12.0,5.0,2.0,10.0,1650849141482963.0
8.0,14.0,1.0,-2.0,6.0,8.0,0.0,-2.0,1650849141482963.0
-16.0,5.0,-7.0,-12.0,-15.0,-10.0,-2.0,-5.0,1650849141504057.0
-9.0,-2.0,1.0,3.0,9.0,2.0,-5.0,-7.0,1650849141504057.0
-13.0,1.0,-11.0,-15.0,-9.0,-15.0,-4.0,-2.0,1650849141505057.0
16.0,0.0,-1.0,18.0,3.0,4.0,0.0,7.0,1650849141505057.0
-14.0,-10.0,8.0,7.0,2.0,8.0,3.0,-8.0,1650849141519087.0
25.0,33.0,3.0,1.0,16.0,7.0,2.0,6.0,1650849141519087.0
-5.0,-39.0,-2.0,-16.0,-24.0,-11.0,-2.0,-2.0,1650849141520029.0
-30.0,4.0,-5.0,-5.0,1.0,-10.0,-8.0,-7.0,1650849141520029.0
21.0,6.0,-4.0,4.0,4.0,1.0,3.0,6.0,1650849141540817.0
9.0,23.0,-5.0,-10.0,-13.0,-1.0,1.0,1.0,1650849141540817.0
8.0,-16.0,-12.0,10.0,19.0,-8.0,-3.0,-1.0,1650849141542814.0
-28.0,-18.0,19.0,-10.0,-18.0,24.0,-1.0,-8.0,1650849141542814.0
5.0,14.0,3.0,18.0,15.0,-7.0,-5.0,-3.0,1650849141564754.0
-51.0,-17.0,0.0,-4.0,7.0,14.0,6.0,0.0,1650849141564754.0
32.0,12.0,-8.0,2.0,7.0,-3.0,-3.0,-1.0,1650849141565751.0
8.0,-1.0,3.0,-9.0,-13.0,-4.0,-2.0,-1.0,1650849141565751.0
-1.0,-13.0,-10.0,0.0,2.0,0.0,6.0,10.0,1650849141577719.0
-10.0,22.0,4.0,-18.0,-27.0,-14.0,-9.0,-14.0,1650849141577719.0
-11.0,-6.0,6.0,37.0,36.0,24.0,7.0,5.0,1650849141584730.0
5.0,-9.0,10.0,0.0,11.0,-4.0,1.0,0.0,1650849141584730.0
16.0,24.0,-20.0,-14.0,-19.0,-8.0,-1.0,9.0,1650849141601682.0
14.0,12.0,-6.0,-10.0,-5.0,-13.0,-6.0,4.0,1650849141601682.0
-51.0,-45.0,-9.0,-1.0,-10.0,20.0,6.0,-16.0,1650849141602652.0
34.0,18.0,18.0,2.0,1.0,-5.0,-4.0,-7.0,1650849141602652.0
18.0,-20.0,-29.0,-8.0,-6.0,-6.0,-1.0,4.0,1650849141623595.0
-1.0,-41.0,2.0,4.0,-3.0,-11.0,-5.0,-2.0,1650849141623595.0
0.0,47.0,9.0,9.0,2.0,5.0,2.0,2.0,1650849141625590.0
9.0,-43.0,-7.0,-22.0,-1.0,3.0,2.0,9.0,1650849141625590.0
-23.0,-1.0,4.0,3.0,-11.0,-11.0,-4.0,-7.0,1650849141637586.0
19.0,32.0,2.0,15.0,-2.0,8.0,1.0,3.0,1650849141637586.0
34.0,10.0,19.0,17.0,13.0,-6.0,11.0,15.0,1650849141644542.0
27.0,2.0,-19.0,-9.0,13.0,26.0,10.0,18.0,1650849141644542.0
24.0,46.0,40.0,14.0,8.0,5.0,6.0,10.0,1650849141661523.0
-10.0,-49.0,-33.0,4.0,0.0,-8.0,-5.0,-5.0,1650849141661523.0
-29.0,2.0,8.0,0.0,6.0,-4.0,-12.0,-20.0,1650849141662493.0
-18.0,-3.0,-6.0,-6.0,-15.0,-12.0,-1.0,-6.0,1650849141662493.0
11.0,-13.0,-17.0,-50.0,-49.0,-29.0,-6.0,-2.0,1650849141684460.0
47.0,72.0,43.0,95.0,93.0,61.0,27.0,35.0,1650849141684460.0
-7.0,-42.0,-17.0,-53.0,-21.0,1.0,0.0,1.0,1650849141685441.0
-8.0,40.0,-13.0,27.0,10.0,-6.0,1.0,-7.0,1650849141685441.0
-24.0,6.0,28.0,-11.0,-3.0,7.0,-3.0,-1.0,1650849141698396.0
-20.0,-47.0,-8.0,-25.0,-25.0,-29.0,-1.0,-7.0,1650849141698396.0
32.0,39.0,-8.0,6.0,-14.0,22.0,-2.0,6.0,1650849141705377.0
-67.0,-30.0,11.0,20.0,23.0,4.0,1.0,-8.0,1650849141705377.0
-36.0,59.0,11.0,23.0,40.0,11.0,-1.0,-9.0,1650849141721336.0
98.0,26.0,-3.0,-17.0,-13.0,-3.0,18.0,43.0,1650849141721336.0
-29.0,-26.0,-4.0,-34.0,-27.0,-18.0,-17.0,-15.0,1650849141722332.0
-7.0,13.0,-9.0,-13.0,-46.0,-18.0,-6.0,-23.0,1650849141722332.0
-12.0,0.0,-9.0,34.0,38.0,7.0,5.0,19.0,1650849141743568.0
-42.0,-66.0,-5.0,-15.0,-5.0,0.0,-12.0,-21.0,1650849141743568.0
18.0,23.0,12.0,4.0,-14.0,4.0,11.0,11.0,1650849141745593.0
-9.0,-11.0,16.0,19.0,18.0,-2.0,-2.0,2.0,1650849141745593.0
8.0,-40.0,-36.0,-18.0,-12.0,-8.0,-15.0,-23.0,1650849141757561.0
25.0,41.0,5.0,1.0,-11.0,1.0,0.0,13.0,1650849141757561.0
-13.0,1.0,1.0,-28.0,-12.0,-13.0,-4.0,-24.0,1650849141764585.0
1.0,-28.0,0.0,30.0,21.0,19.0,12.0,27.0,1650849141764585.0
3.0,-11.0,9.0,6.0,10.0,8.0,12.0,10.0,1650849141781469.0
-15.0,44.0,28.0,6.0,-3.0,2.0,1.0,-4.0,1650849141781469.0
-18.0,-41.0,-69.0,-28.0,-16.0,-23.0,-19.0,-14.0,1650849141782507.0
29.0,40.0,9.0,-4.0,3.0,-2.0,-2.0,2.0,1650849141782507.0
3.0,-16.0,14.0,-7.0,9.0,13.0,-4.0,-33.0,1650849141803542.0
-34.0,51.0,-5.0,15.0,-5.0,-3.0,2.0,0.0,1650849141803542.0
-24.0,-8.0,18.0,17.0,-12.0,0.0,14.0,22.0,1650849141805528.0
76.0,72.0,-17.0,5.0,5.0,1.0,-1.0,5.0,1650849141805528.0
-25.0,-59.0,-14.0,-27.0,-17.0,-11.0,-6.0,3.0,1650849141818480.0
-24.0,38.0,17.0,-6.0,-18.0,-1.0,-10.0,-31.0,1650849141818480.0
4.0,8.0,-2.0,8.0,8.0,-1.0,-3.0,-5.0,1650849141824486.0
-28.0,-64.0,-7.0,-13.0,-18.0,-21.0,-8.0,3.0,1650849141824486.0
-19.0,-5.0,26.0,1.0,4.0,27.0,4.0,-16.0,1650849141841438.0
63.0,-21.0,-13.0,17.0,10.0,-4.0,-2.0,14.0,1650849141841438.0
15.0,14.0,-2.0,10.0,42.0,26.0,4.0,5.0,1650849141842451.0
-13.0,40.0,16.0,-25.0,-24.0,-5.0,4.0,8.0,1650849141842451.0
-23.0,-58.0,-1.0,13.0,10.0,-16.0,-8.0,-11.0,1650849141864211.0
-81.0,-37.0,-17.0,4.0,2.0,-10.0,-2.0,-1.0,1650849141864211.0
99.0,24.0,-10.0,17.0,17.0,5.0,2.0,9.0,1650849141865211.0
-3.0,22.0,-5.0,-15.0,-23.0,-17.0,-15.0,-2.0,1650849141865211.0
9.0,-4.0,18.0,36.0,44.0,20.0,12.0,3.0,1650849141877179.0
-11.0,33.0,-8.0,-50.0,-26.0,-3.0,-1.0,5.0,1650849141877179.0
-49.0,-19.0,29.0,59.0,25.0,1.0,4.0,-16.0,1650849141894134.0
13.0,-42.0,-14.0,-26.0,-18.0,-5.0,0.0,-4.0,1650849141894134.0
2.0,-11.0,-29.0,-22.0,-45.0,-27.0,-2.0,17.0,1650849141901119.0
-19.0,-7.0,3.0,4.0,25.0,19.0,-4.0,-17.0,1650849141901119.0
4.0,62.0,5.0,-13.0,2.0,-1.0,3.0,5.0,1650849141903109.0
-22.0,-57.0,-12.0,-22.0,-16.0,-22.0,-25.0,-36.0,1650849141903109.0
-6.0,-10.0,9.0,35.0,-2.0,16.0,16.0,24.0,1650849141924170.0
40.0,21.0,-19.0,-7.0,0.0,-11.0,5.0,0.0,1650849141924170.0
-48.0,-17.0,12.0,-25.0,-12.0,4.0,4.0,12.0,1650849141925140.0
38.0,-3.0,-6.0,27.0,37.0,36.0,14.0,0.0,1650849141925140.0
-21.0,50.0,-3.0,-25.0,-46.0,-22.0,-16.0,-10.0,1650849141937136.0
50.0,-14.0,7.0,35.0,43.0,2.0,-12.0,-7.0,1650849141937136.0
25.0,-11.0,-3.0,-17.0,-11.0,-19.0,10.0,25.0,1650849141946105.0
-34.0,-19.0,-23.0,-16.0,-23.0,-18.0,-7.0,-4.0,1650849141946105.0
11.0,56.0,43.0,46.0,42.0,16.0,5.0,-6.0,1650849141961055.0
-21.0,-51.0,-29.0,-50.0,-37.0,-22.0,-14.0,-11.0,1650849141961055.0
0.0,19.0,-3.0,26.0,19.0,9.0,1.0,0.0,1650849141963039.0
0.0,21.0,24.0,-2.0,0.0,-2.0,-4.0,3.0,1650849141963039.0
25.0,3.0,-25.0,-30.0,-34.0,1.0,7.0,14.0,1650849141984049.0
-46.0,-70.0,15.0,36.0,35.0,-3.0,-32.0,-52.0,1650849141984049.0
41.0,97.0,4.0,-12.0,-13.0,2.0,23.0,34.0,1650849141984980.0
-44.0,-41.0,-6.0,10.0,3.0,8.0,17.0,8.0,1650849141984980.0
51.0,-16.0,-26.0,-8.0,22.0,-8.0,-1.0,16.0,1650849141998013.0
37.0,44.0,25.0,-2.0,-14.0,15.0,9.0,6.0,1650849141998013.0
-72.0,-50.0,-19.0,-30.0,-36.0,-26.0,-26.0,-38.0,1650849142005952.0
-5.0,26.0,20.0,49.0,58.0,15.0,6.0,11.0,1650849142005952.0
31.0,8.0,5.0,-11.0,-7.0,-10.0,-3.0,12.0,1650849142020911.0
2.0,-10.0,-4.0,-5.0,0.0,18.0,16.0,8.0,1650849142020911.0
36.0,-15.0,0.0,-18.0,-18.0,3.0,-9.0,-15.0,1650849142022878.0
-16.0,-5.0,0.0,35.0,23.0,3.0,2.0,2.0,1650849142022878.0
1.0,8.0,14.0,15.0,17.0,12.0,2.0,-5.0,1650849142043822.0
-12.0,7.0,-4.0,-25.0,-32.0,-21.0,-4.0,1.0,1650849142043822.0
-20.0,20.0,-12.0,-22.0,-30.0,-26.0,-11.0,-9.0,1650849142044820.0
12.0,-22.0,-13.0,-5.0,26.0,9.0,-4.0,0.0,1650849142044820.0
0.0,-4.0,-14.0,33.0,7.0,12.0,13.0,-1.0,1650849142057820.0
18.0,16.0,12.0,-10.0,10.0,-8.0,8.0,24.0,1650849142057820.0
19.0,48.0,9.0,-2.0,-2.0,31.0,5.0,1.0,1650849142065934.0
-10.0,-70.0,-13.0,-36.0,-39.0,-14.0,-7.0,-7.0,1650849142065934.0
-23.0,-3.0,3.0,8.0,-8.0,-8.0,-9.0,-11.0,1650849142080931.0
36.0,26.0,3.0,-26.0,-26.0,-2.0,7.0,9.0,1650849142080931.0
12.0,-5.0,3.0,45.0,45.0,-3.0,8.0,15.0,1650849142082886.0
20.0,19.0,-9.0,-24.0,-20.0,-13.0,-7.0,-1.0,1650849142082886.0
-42.0,-41.0,9.0,-13.0,3.0,13.0,2.0,-5.0,1650849142103829.0
15.0,-8.0,-2.0,10.0,-4.0,13.0,0.0,-7.0,1650849142103829.0
-57.0,-18.0,1.0,0.0,19.0,-5.0,-6.0,-4.0,1650849142104801.0
13.0,15.0,4.0,1.0,-5.0,-16.0,-8.0,-3.0,1650849142104801.0
8.0,12.0,0.0,-13.0,-9.0,14.0,-8.0,-4.0,1650849142117910.0
-7.0,4.0,-6.0,13.0,10.0,11.0,49.0,12.0,1650849142117910.0
20.0,-30.0,-3.0,-4.0,-7.0,-13.0,-19.0,-4.0,1650849142125893.0
16.0,31.0,7.0,3.0,-1.0,-4.0,1.0,-4.0,1650849142125893.0
-4.0,1.0,-6.0,-13.0,-9.0,-16.0,-15.0,-5.0,1650849142141819.0
-27.0,-10.0,-1.0,3.0,-14.0,-24.0,-16.0,-5.0,1650849142141819.0
13.0,-17.0,7.0,5.0,5.0,17.0,2.0,-2.0,1650849142142837.0
-10.0,18.0,7.0,0.0,6.0,20.0,9.0,2.0,1650849142142837.0
11.0,15.0,-11.0,-11.0,-8.0,-1.0,11.0,-3.0,1650849142163828.0
-20.0,-19.0,-11.0,-3.0,-9.0,-30.0,-26.0,-10.0,1650849142163828.0
6.0,-4.0,4.0,3.0,17.0,3.0,6.0,4.0,1650849142165754.0
-12.0,20.0,5.0,15.0,11.0,7.0,-6.0,-9.0,1650849142165754.0
-2.0,-10.0,-1.0,-27.0,-17.0,-4.0,3.0,6.0,1650849142177723.0
0.0,-1.0,4.0,5.0,-3.0,4.0,10.0,0.0,1650849142177723.0
-13.0,-17.0,-14.0,1.0,-11.0,-15.0,-13.0,-6.0,1650849142186699.0
16.0,17.0,10.0,5.0,0.0,11.0,11.0,7.0,1650849142186699.0
23.0,11.0,2.0,4.0,10.0,-19.0,-13.0,-6.0,1650849142200914.0
-7.0,-5.0,-12.0,-10.0,12.0,30.0,-4.0,6.0,1650849142200914.0
-53.0,-20.0,28.0,-4.0,-14.0,2.0,-5.0,-5.0,1650849142202881.0
9.0,-8.0,-28.0,3.0,-13.0,1.0,27.0,9.0,1650849142202881.0
-6.0,15.0,10.0,-1.0,-9.0,-23.0,-4.0,-5.0,1650849142223939.0
14.0,2.0,-16.0,-3.0,15.0,29.0,-8.0,0.0,1650849142223939.0
8.0,-7.0,-1.0,2.0,9.0,-7.0,-2.0,3.0,1650849142224929.0
24.0,8.0,5.0,-8.0,5.0,-1.0,-1.0,-6.0,1650849142224929.0
-16.0,-3.0,1.0,6.0,-3.0,-9.0,-3.0,-3.0,1650849142236876.0
-21.0,-5.0,7.0,2.0,-11.0,-6.0,3.0,8.0,1650849142236876.0
6.0,11.0,-11.0,-8.0,-10.0,0.0,-2.0,-4.0,1650849142246851.0
-7.0,-19.0,-1.0,2.0,5.0,5.0,-4.0,-2.0,1650849142246851.0
11.0,10.0,6.0,-1.0,9.0,1.0,-3.0,0.0,1650849142260813.0
45.0,7.0,3.0,4.0,10.0,-10.0,-2.0,-4.0,1650849142260813.0
-73.0,-3.0,2.0,-17.0,-19.0,9.0,-1.0,-6.0,1650849142262809.0
79.0,-2.0,2.0,6.0,-8.0,3.0,-1.0,19.0,1650849142262809.0
-30.0,-1.0,-11.0,2.0,12.0,8.0,-11.0,-6.0,1650849142290759.0
-32.0,2.0,10.0,5.0,-3.0,2.0,24.0,-1.0,1650849142290759.0
34.0,3.0,18.0,-8.0,-15.0,-12.0,-5.0,1.0,1650849142292739.0
-32.0,-10.0,-42.0,-2.0,1.0,-24.0,-6.0,-4.0,1650849142292739.0
-9.0,3.0,19.0,5.0,8.0,38.0,-2.0,2.0,1650849142297749.0
3.0,-9.0,-14.0,-3.0,5.0,-16.0,-12.0,-2.0,1650849142297749.0
20.0,9.0,-4.0,12.0,-4.0,-12.0,5.0,3.0,1650849142312741.0
-30.0,7.0,17.0,-4.0,-3.0,16.0,-2.0,-3.0,1650849142312741.0
20.0,-19.0,-22.0,-5.0,-3.0,-16.0,1.0,1.0,1650849142320680.0
-41.0,-7.0,12.0,2.0,-8.0,-10.0,-7.0,-6.0,1650849142320680.0
24.0,1.0,-3.0,3.0,5.0,7.0,6.0,2.0,1650849142327634.0
16.0,18.0,-3.0,-12.0,-5.0,-2.0,-4.0,1.0,1650849142327634.0
-5.0,-2.0,0.0,10.0,7.0,3.0,9.0,-1.0,1650849142343675.0
12.0,-2.0,-9.0,-14.0,-2.0,4.0,0.0,-1.0,1650849142343675.0
10.0,-4.0,-15.0,2.0,5.0,-1.0,3.0,1.0,1650849142345671.0
-4.0,14.0,36.0,4.0,-8.0,-27.0,-8.0,-4.0,1650849142345671.0
-18.0,-8.0,-17.0,-4.0,4.0,47.0,11.0,2.0,1650849142366709.0
-5.0,-6.0,12.0,-3.0,-3.0,-8.0,-4.0,-1.0,1650849142366709.0
33.0,9.0,6.0,14.0,8.0,5.0,-2.0,7.0,1650849142367699.0
-105.0,-20.0,-4.0,-14.0,-6.0,-5.0,-3.0,-7.0,1650849142367699.0
29.0,16.0,-3.0,-14.0,-6.0,-6.0,10.0,6.0,1650849142380737.0
5.0,3.0,-6.0,14.0,-8.0,-8.0,-5.0,4.0,1650849142380737.0
1.0,-32.0,-32.0,-4.0,0.0,-4.0,-7.0,-2.0,1650849142382660.0
25.0,7.0,16.0,11.0,7.0,10.0,12.0,-1.0,1650849142382660.0
0.0,-3.0,19.0,-6.0,-2.0,-17.0,-9.0,2.0,1650849142403630.0
-4.0,9.0,-10.0,-12.0,7.0,32.0,3.0,-1.0,1650849142403630.0
10.0,13.0,21.0,7.0,3.0,-8.0,3.0,-1.0,1650849142405597.0
5.0,8.0,-8.0,-2.0,-4.0,2.0,-5.0,-2.0,1650849142405597.0
-2.0,-16.0,-16.0,-2.0,-8.0,-37.0,-4.0,-7.0,1650849142426657.0
-6.0,11.0,10.0,-5.0,5.0,39.0,14.0,4.0,1650849142426657.0
4.0,-4.0,-5.0,3.0,4.0,0.0,-5.0,-2.0,1650849142428625.0
8.0,-4.0,-10.0,-10.0,-1.0,6.0,-2.0,-2.0,1650849142428625.0
-42.0,2.0,-10.0,5.0,-5.0,-18.0,1.0,-3.0,1650849142448639.0
5.0,-8.0,6.0,9.0,-5.0,-17.0,-9.0,-4.0,1650849142448639.0
-6.0,-2.0,-13.0,-10.0,1.0,7.0,6.0,0.0,1650849142450594.0
5.0,-22.0,6.0,0.0,-2.0,3.0,0.0,1.0,1650849142450594.0
6.0,4.0,-15.0,-4.0,-2.0,3.0,-2.0,2.0,1650849142464149.0
-25.0,-6.0,3.0,13.0,3.0,-8.0,-5.0,-7.0,1650849142464149.0
3.0,20.0,20.0,-10.0,2.0,4.0,4.0,0.0,1650849142465597.0
17.0,-2.0,5.0,6.0,-8.0,1.0,0.0,0.0,1650849142465597.0
10.0,2.0,11.0,4.0,6.0,8.0,-1.0,0.0,1650849142485903.0
-4.0,-3.0,-19.0,-11.0,3.0,-2.0,0.0,-3.0,1650849142485903.0
7.0,4.0,12.0,17.0,-2.0,-10.0,-1.0,-1.0,1650849142487908.0
-4.0,7.0,0.0,-9.0,-11.0,-11.0,-4.0,-1.0,1650849142487908.0
2.0,-2.0,11.0,-3.0,2.0,9.0,-1.0,0.0,1650849142500892.0
0.0,4.0,15.0,10.0,5.0,-10.0,1.0,1.0,1650849142500892.0
-8.0,-3.0,-10.0,2.0,15.0,36.0,6.0,-2.0,1650849142506875.0
14.0,10.0,-7.0,8.0,2.0,-6.0,-2.0,-1.0,1650849142506875.0
-2.0,-3.0,-3.0,-12.0,-10.0,-14.0,-7.0,-4.0,1650849142523892.0
19.0,-4.0,4.0,1.0,-18.0,-18.0,-6.0,0.0,1650849142523892.0
5.0,5.0,-9.0,-15.0,11.0,4.0,2.0,1.0,1650849142524889.0
-51.0,-3.0,-4.0,14.0,8.0,11.0,-2.0,-7.0,1650849142524889.0
13.0,-1.0,2.0,-5.0,-9.0,-8.0,1.0,0.0,1650849142545834.0
-1.0,2.0,-11.0,1.0,1.0,-5.0,-6.0,-2.0,1650849142545834.0
4.0,-4.0,8.0,0.0,-6.0,-8.0,-2.0,-1.0,1650849142547829.0
7.0,5.0,0.0,-5.0,3.0,9.0,3.0,4.0,1650849142547829.0
13.0,-10.0,-5.0,0.0,4.0,-3.0,-3.0,-2.0,1650849142568772.0
-2.0,9.0,-2.0,-3.0,-3.0,3.0,-1.0,1.0,1650849142568772.0
-9.0,-26.0,6.0,-3.0,-7.0,-2.0,1.0,-2.0,1650849142570767.0
5.0,-1.0,-14.0,-3.0,3.0,-7.0,-3.0,0.0,1650849142570767.0
4.0,8.0,12.0,8.0,-1.0,6.0,2.0,0.0,1650849142583852.0
4.0,-5.0,3.0,-7.0,1.0,0.0,0.0,0.0,1650849142583852.0
-4.0,4.0,-3.0,8.0,1.0,-4.0,-1.0,1.0,1650849142589838.0
11.0,8.0,2.0,-2.0,2.0,2.0,-2.0,2.0,1650849142589838.0
-5.0,-2.0,-3.0,-2.0,0.0,-10.0,-1.0,-1.0,1650849142605823.0
-5.0,-14.0,-11.0,-3.0,1.0,19.0,4.0,-1.0,1650849142605823.0
-4.0,15.0,8.0,2.0,-3.0,-6.0,0.0,-1.0,1650849142607795.0
-3.0,-6.0,1.0,-5.0,-1.0,4.0,2.0,-1.0,1650849142607795.0
1.0,2.0,-3.0,8.0,2.0,3.0,-1.0,0.0,1650849142620755.0
-15.0,-6.0,-11.0,-7.0,-1.0,-9.0,-2.0,-1.0,1650849142620755.0
27.0,-2.0,2.0,8.0,-1.0,-1.0,-3.0,1.0,1650849142627738.0
-55.0,2.0,-1.0,-5.0,-1.0,4.0,-1.0,-3.0,1650849142627738.0
0.0,-2.0,-3.0,5.0,-5.0,-1.0,1.0,2.0,1650849142643694.0
10.0,-8.0,-5.0,-4.0,-3.0,-14.0,-3.0,0.0,1650849142643694.0
12.0,10.0,-20.0,-18.0,13.0,18.0,1.0,-1.0,1650849142645690.0
11.0,8.0,8.0,3.0,0.0,9.0,2.0,0.0,1650849142645690.0
-4.0,-26.0,11.0,12.0,11.0,9.0,1.0,0.0,1650849142666679.0
-5.0,-3.0,13.0,15.0,-14.0,-12.0,-4.0,-3.0,1650849142666679.0
-16.0,-3.0,1.0,-7.0,-9.0,-15.0,-5.0,-3.0,1650849142667631.0
18.0,5.0,-17.0,-4.0,1.0,-3.0,-4.0,0.0,1650849142667631.0
-6.0,17.0,10.0,-4.0,7.0,12.0,5.0,4.0,1650849142680659.0
61.0,-1.0,-24.0,9.0,6.0,4.0,-3.0,-8.0,1650849142680659.0
-42.0,-14.0,-18.0,-12.0,-11.0,0.0,2.0,13.0,1650849142687605.0
20.0,6.0,32.0,16.0,-2.0,-8.0,3.0,1.0,1650849142687605.0
6.0,-13.0,-21.0,-10.0,-10.0,-2.0,-2.0,-2.0,1650849142703601.0
2.0,10.0,6.0,-1.0,11.0,0.0,3.0,2.0,1650849142703601.0
-1.0,-3.0,0.0,0.0,4.0,0.0,-2.0,-6.0,1650849142705529.0
7.0,-3.0,-6.0,-3.0,-1.0,1.0,-5.0,0.0,1650849142705529.0
-16.0,5.0,4.0,-2.0,-4.0,-3.0,-2.0,-1.0,1650849142725886.0
-20.0,-4.0,4.0,-9.0,-7.0,-1.0,0.0,-1.0,1650849142725886.0
0.0,0.0,-13.0,-2.0,-1.0,-4.0,1.0,-1.0,1650849142727881.0
3.0,-17.0,-11.0,-8.0,-5.0,-14.0,-2.0,1.0,1650849142727881.0
30.0,20.0,21.0,9.0,8.0,3.0,-6.0,-2.0,1650849142740846.0
-39.0,-2.0,11.0,2.0,-2.0,12.0,2.0,0.0,1650849142740846.0
10.0,-3.0,-7.0,6.0,14.0,11.0,10.0,2.0,1650849142747827.0
4.0,0.0,7.0,7.0,2.0,-4.0,0.0,-2.0,1650849142747827.0
0.0,-9.0,-18.0,-10.0,-17.0,-24.0,-4.0,-1.0,1650849142763903.0
-1.0,1.0,-6.0,-16.0,1.0,11.0,2.0,4.0,1650849142763903.0
-4.0,-1.0,11.0,15.0,-4.0,-5.0,-4.0,-2.0,1650849142764931.0
-2.0,1.0,-15.0,-8.0,0.0,6.0,0.0,0.0,1650849142764931.0
-10.0,-3.0,13.0,4.0,1.0,-3.0,-1.0,-2.0,1650849142785876.0
-1.0,7.0,13.0,1.0,-3.0,-3.0,-5.0,-1.0,1650849142785876.0
4.0,-3.0,6.0,6.0,1.0,-1.0,-3.0,-4.0,1650849142787843.0
4.0,3.0,-6.0,-8.0,-3.0,-1.0,-1.0,2.0,1650849142787843.0
-4.0,-8.0,-2.0,2.0,6.0,11.0,2.0,0.0,1650849142800871.0
3.0,-5.0,-15.0,-19.0,-4.0,-8.0,-2.0,1.0,1650849142800871.0
5.0,7.0,-1.0,7.0,-3.0,-5.0,-3.0,1.0,1650849142807820.0
25.0,0.0,43.0,26.0,3.0,-3.0,-2.0,-2.0,1650849142807820.0
-31.0,7.0,-20.0,-20.0,-9.0,6.0,4.0,0.0,1650849142823899.0
-3.0,-14.0,-9.0,8.0,9.0,0.0,1.0,-2.0,1650849142823899.0
0.0,3.0,-5.0,-20.0,-11.0,-8.0,-1.0,-2.0,1650849142824896.0
5.0,-1.0,-12.0,-7.0,-14.0,-19.0,-4.0,-3.0,1650849142824896.0
7.0,3.0,18.0,32.0,38.0,41.0,6.0,1.0,1650849142845831.0
-1.0,9.0,-7.0,-9.0,-10.0,-7.0,4.0,-1.0,1650849142845831.0
-3.0,-6.0,-2.0,-4.0,-5.0,-4.0,-3.0,-2.0,1650849142847811.0
-6.0,9.0,-6.0,-4.0,-2.0,-14.0,-1.0,0.0,1650849142847811.0
2.0,4.0,-3.0,-10.0,-17.0,3.0,-6.0,-2.0,1650849142859803.0
-8.0,-14.0,-7.0,4.0,-3.0,-14.0,-1.0,-1.0,1650849142859803.0
2.0,-19.0,8.0,15.0,31.0,27.0,6.0,4.0,1650849142868845.0
-10.0,12.0,13.0,-3.0,-7.0,-1.0,-1.0,0.0,1650849142868845.0
2.0,-4.0,-7.0,-5.0,-4.0,-12.0,-4.0,-2.0,1650849142883832.0
5.0,11.0,15.0,6.0,-4.0,7.0,2.0,-1.0,1650849142883832.0
8.0,-5.0,-9.0,-9.0,-15.0,-14.0,-3.0,-5.0,1650849142884822.0
-11.0,-10.0,-11.0,-5.0,10.0,11.0,4.0,3.0,1650849142884822.0
4.0,5.0,-3.0,-1.0,-8.0,-19.0,-2.0,0.0,1650849142905772.0
5.0,17.0,11.0,3.0,4.0,22.0,2.0,2.0,1650849142905772.0
2.0,-9.0,11.0,6.0,-1.0,-8.0,-3.0,0.0,1650849142907741.0
-3.0,-1.0,-14.0,-2.0,5.0,13.0,2.0,-1.0,1650849142907741.0
2.0,-1.0,-1.0,-5.0,-4.0,-5.0,-1.0,-2.0,1650849142928685.0
-5.0,-9.0,-5.0,5.0,-1.0,-21.0,-6.0,-2.0,1650849142928685.0
-6.0,11.0,12.0,0.0,0.0,22.0,5.0,-1.0,1650849142930679.0
4.0,-1.0,-13.0,-9.0,-8.0,0.0,-1.0,-1.0,1650849142930679.0
-2.0,-11.0,-4.0,2.0,-7.0,-5.0,0.0,-1.0,1650849142951643.0
0.0,12.0,4.0,2.0,12.0,-2.0,-2.0,-2.0,1650849142951643.0
-6.0,-13.0,-7.0,-7.0,-14.0,-24.0,-6.0,-3.0,1650849142952620.0
2.0,-2.0,9.0,9.0,7.0,15.0,3.0,2.0,1650849142952620.0
0.0,-7.0,0.0,3.0,25.0,31.0,7.0,1.0,1650849142966679.0
-1.0,-8.0,-5.0,-7.0,-11.0,-8.0,-3.0,0.0,1650849142966679.0
2.0,16.0,4.0,-7.0,-7.0,-7.0,-1.0,-1.0,1650849142967682.0
-1.0,-5.0,-24.0,-5.0,-10.0,-14.0,-4.0,-2.0,1650849142967682.0
0.0,-3.0,-6.0,0.0,-5.0,-8.0,-2.0,-2.0,1650849142988792.0
2.0,8.0,13.0,5.0,2.0,8.0,-1.0,1.0,1650849142988792.0
-3.0,-7.0,-20.0,-12.0,-1.0,-2.0,2.0,2.0,1650849142989790.0
-1.0,-6.0,8.0,6.0,-6.0,-13.0,-3.0,-2.0,1650849142989790.0
-1.0,0.0,1.0,3.0,14.0,28.0,4.0,2.0,1650849143004750.0
-3.0,9.0,-3.0,-8.0,-4.0,-8.0,-1.0,-1.0,1650849143004750.0
-1.0,-3.0,3.0,-3.0,-10.0,-6.0,-4.0,0.0,1650849143006745.0
-2.0,-3.0,-8.0,-5.0,8.0,-3.0,-2.0,-2.0,1650849143006745.0
0.0,6.0,-6.0,-3.0,-8.0,11.0,5.0,3.0,1650849143025780.0
0.0,-3.0,10.0,-2.0,-13.0,-10.0,-3.0,-1.0,1650849143025780.0
-3.0,1.0,-2.0,6.0,15.0,2.0,0.0,-2.0,1650849143027758.0
-2.0,-1.0,3.0,1.0,0.0,4.0,-1.0,0.0,1650849143027758.0
-2.0,-3.0,-5.0,-5.0,-4.0,-16.0,-4.0,0.0,1650849143048758.0
-1.0,-7.0,-8.0,-11.0,-8.0,-8.0,-1.0,2.0,1650849143048758.0
-2.0,-16.0,-9.0,6.0,0.0,5.0,-1.0,-1.0,1650849143050709.0
2.0,3.0,20.0,9.0,17.0,22.0,3.0,2.0,1650849143050709.0
4.0,-4.0,-13.0,-10.0,-11.0,-13.0,0.0,-3.0,1650849143064184.0
1.0,4.0,1.0,-4.0,-3.0,2.0,-1.0,-1.0,1650849143064184.0
0.0,9.0,12.0,1.0,-7.0,-21.0,-8.0,-3.0,1650849143065194.0
-1.0,-5.0,11.0,2.0,-8.0,-8.0,1.0,-2.0,1650849143065194.0
-1.0,-3.0,-7.0,3.0,13.0,27.0,2.0,2.0,1650849143086155.0
2.0,-3.0,1.0,-3.0,2.0,-1.0,4.0,3.0,1650849143086155.0
-2.0,7.0,-4.0,-1.0,-6.0,-8.0,-3.0,-1.0,1650849143088122.0
-1.0,-6.0,-9.0,-5.0,1.0,5.0,-1.0,0.0,1650849143088122.0
-2.0,2.0,8.0,4.0,-1.0,-18.0,-4.0,-3.0,1650849143100154.0
-2.0,-3.0,-7.0,4.0,5.0,1.0,-3.0,-2.0,1650849143100154.0
2.0,15.0,7.0,-1.0,0.0,-6.0,-2.0,0.0,1650849143109066.0
-2.0,-8.0,-15.0,-6.0,-3.0,24.0,7.0,1.0,1650849143109066.0
-2.0,-8.0,11.0,-8.0,-14.0,-16.0,-3.0,-2.0,1650849143123057.0
2.0,-13.0,-13.0,7.0,15.0,11.0,2.0,1.0,1650849143123057.0
2.0,18.0,37.0,22.0,12.0,6.0,2.0,0.0,1650849143131013.0
2.0,-13.0,-21.0,-10.0,-6.0,-8.0,-3.0,-3.0,1650849143131013.0
0.0,1.0,3.0,-4.0,-13.0,-15.0,-2.0,-2.0,1650849143145988.0
-3.0,-3.0,-4.0,-3.0,-3.0,-8.0,-1.0,-2.0,1650849143145988.0
0.0,-4.0,-4.0,-2.0,0.0,15.0,0.0,1.0,1650849143147963.0
2.0,6.0,10.0,7.0,8.0,12.0,5.0,2.0,1650849143147963.0
2.0,10.0,5.0,4.0,12.0,2.0,3.0,3.0,1650849143159961.0
0.0,-2.0,10.0,2.0,-16.0,-12.0,-5.0,-4.0,1650849143159961.0
-1.0,-5.0,-17.0,-1.0,2.0,-1.0,1.0,0.0,1650849143168907.0
1.0,2.0,7.0,3.0,-2.0,-13.0,-3.0,0.0,1650849143168907.0
-2.0,-9.0,-12.0,-6.0,-5.0,-1.0,-3.0,-2.0,1650849143183959.0
2.0,3.0,-5.0,-3.0,0.0,11.0,5.0,4.0,1650849143183959.0
1.0,6.0,11.0,6.0,10.0,7.0,1.0,0.0,1650849143184963.0
0.0,7.0,0.0,-5.0,-10.0,-18.0,-7.0,-4.0,1650849143184963.0
0.0,5.0,1.0,-1.0,3.0,0.0,-5.0,0.0,1650849143206928.0
-1.0,-5.0,-6.0,-1.0,-1.0,6.0,0.0,-1.0,1650849143206928.0
1.0,-8.0,-15.0,-3.0,-9.0,3.0,2.0,2.0,1650849143207900.0
-4.0,0.0,-1.0,-6.0,9.0,-3.0,-1.0,-1.0,1650849143207900.0
5.0,2.0,-1.0,1.0,-6.0,-12.0,-3.0,-2.0,1650849143219892.0
-4.0,2.0,15.0,9.0,-2.0,-22.0,-8.0,-3.0,1650849143219892.0
-1.0,-8.0,-12.0,-4.0,2.0,38.0,4.0,3.0,1650849143228840.0
-1.0,3.0,-5.0,-4.0,5.0,-7.0,2.0,0.0,1650849143228840.0
-3.0,-1.0,-3.0,-5.0,-8.0,-2.0,3.0,1.0,1650849143243943.0
0.0,-2.0,-11.0,-4.0,-2.0,5.0,2.0,3.0,1650849143243943.0
-1.0,4.0,11.0,-1.0,0.0,-19.0,-4.0,-2.0,1650849143244928.0
0.0,-1.0,11.0,4.0,5.0,6.0,-3.0,0.0,1650849143244928.0
-2.0,-14.0,-36.0,-5.0,-6.0,4.0,3.0,-2.0,1650849143266623.0
1.0,3.0,-3.0,-2.0,-4.0,-3.0,1.0,1.0,1650849143266623.0
0.0,-6.0,-3.0,-2.0,-1.0,-5.0,-1.0,-1.0,1650849143267825.0
-2.0,1.0,-3.0,-3.0,-10.0,-11.0,-3.0,-1.0,1650849143267825.0
-2.0,-8.0,8.0,-2.0,3.0,9.0,0.0,0.0,1650849143288823.0
1.0,19.0,1.0,0.0,8.0,4.0,2.0,0.0,1650849143288823.0
-1.0,-12.0,-2.0,-1.0,1.0,3.0,0.0,0.0,1650849143289788.0
-1.0,-6.0,-3.0,2.0,-11.0,-14.0,0.0,-1.0,1650849143289788.0
-1.0,7.0,8.0,2.0,8.0,4.0,-5.0,-1.0,1650849143303778.0
0.0,-5.0,-7.0,-6.0,-2.0,-3.0,7.0,0.0,1650849143303778.0
1.0,-5.0,-8.0,-4.0,-5.0,21.0,3.0,0.0,1650849143309734.0
1.0,6.0,-3.0,0.0,2.0,-2.0,1.0,3.0,1650849143309734.0
-4.0,15.0,27.0,9.0,4.0,-17.0,-4.0,-2.0,1650849143325872.0
1.0,0.0,2.0,3.0,13.0,12.0,-1.0,1.0,1650849143325872.0
-2.0,-8.0,-9.0,-1.0,-10.0,-15.0,-3.0,-1.0,1650849143327889.0
-1.0,-3.0,-3.0,-5.0,-10.0,-5.0,-3.0,-1.0,1650849143327889.0
2.0,-1.0,-5.0,-10.0,-14.0,-4.0,0.0,0.0,1650849143348881.0
-3.0,-6.0,2.0,5.0,9.0,9.0,-2.0,-1.0,1650849143348881.0
-1.0,9.0,-6.0,-8.0,10.0,-1.0,2.0,0.0,1650849143349835.0
1.0,-5.0,4.0,11.0,5.0,12.0,1.0,0.0,1650849143349835.0
-1.0,6.0,17.0,0.0,-3.0,-7.0,-2.0,-2.0,1650849143363770.0
-1.0,-2.0,-28.0,-13.0,-11.0,-5.0,-5.0,-3.0,1650849143363770.0
1.0,4.0,0.0,2.0,-6.0,-3.0,0.0,-1.0,1650849143365766.0
-3.0,-6.0,-1.0,-3.0,9.0,10.0,-1.0,0.0,1650849143365766.0
-1.0,1.0,-2.0,0.0,4.0,-10.0,-1.0,0.0,1650849143385711.0
-3.0,-4.0,13.0,5.0,4.0,-6.0,-7.0,-1.0,1650849143385711.0
-1.0,12.0,-7.0,2.0,11.0,33.0,17.0,2.0,1650849143387706.0
-2.0,0.0,-4.0,-5.0,-13.0,-8.0,-3.0,-2.0,1650849143387706.0
-1.0,-2.0,9.0,5.0,-3.0,-7.0,-1.0,0.0,1650849143408678.0
0.0,6.0,3.0,-4.0,8.0,-6.0,-5.0,-2.0,1650849143408678.0
-2.0,-7.0,-9.0,11.0,6.0,-6.0,1.0,0.0,1650849143410666.0
2.0,-5.0,12.0,-10.0,-7.0,8.0,2.0,2.0,1650849143410666.0
-1.0,-9.0,-2.0,14.0,-4.0,-6.0,-2.0,-1.0,1650849143423610.0
0.0,14.0,6.0,-4.0,-3.0,6.0,-1.0,-1.0,1650849143423610.0
-2.0,4.0,-3.0,-8.0,-7.0,-10.0,-6.0,-2.0,1650849143425605.0
0.0,4.0,10.0,-2.0,1.0,0.0,1.0,-2.0,1650849143425605.0
-2.0,-16.0,-42.0,-8.0,0.0,2.0,-1.0,0.0,1650849143446550.0
1.0,0.0,20.0,13.0,6.0,12.0,1.0,1.0,1650849143446550.0
1.0,7.0,11.0,-4.0,-9.0,-7.0,-2.0,0.0,1650849143447547.0
-2.0,0.0,-13.0,-2.0,2.0,-3.0,-2.0,-1.0,1650849143447547.0
-1.0,-1.0,-3.0,1.0,-5.0,-13.0,-1.0,-1.0,1650849143468912.0
0.0,8.0,11.0,2.0,12.0,29.0,4.0,-1.0,1650849143468912.0
-1.0,-15.0,-13.0,-3.0,1.0,-31.0,-6.0,-1.0,1650849143470880.0
-1.0,3.0,6.0,3.0,-13.0,13.0,-1.0,0.0,1650849143470880.0
1.0,-6.0,2.0,-6.0,-10.0,24.0,6.0,2.0,1650849143482915.0
2.0,2.0,1.0,12.0,28.0,2.0,1.0,1.0,1650849143482915.0
-2.0,-8.0,-5.0,-4.0,-7.0,-8.0,-4.0,-2.0,1650849143489829.0
3.0,1.0,-9.0,-6.0,-2.0,-15.0,-3.0,0.0,1650849143489829.0
-4.0,1.0,7.0,0.0,-1.0,-8.0,-4.0,-4.0,1650849143505786.0
-3.0,-8.0,1.0,-11.0,-13.0,2.0,2.0,0.0,1650849143505786.0
0.0,-3.0,7.0,8.0,5.0,2.0,-1.0,0.0,1650849143507782.0
-1.0,-3.0,-6.0,0.0,2.0,-6.0,-2.0,0.0,1650849143507782.0
1.0,17.0,3.0,1.0,1.0,8.0,2.0,2.0,1650849143528752.0
-1.0,-24.0,-16.0,-15.0,1.0,6.0,4.0,1.0,1650849143528752.0
0.0,1.0,10.0,-2.0,2.0,-3.0,-2.0,-2.0,1650849143530719.0
0.0,-1.0,-30.0,1.0,3.0,6.0,0.0,-2.0,1650849143530719.0
2.0,-5.0,18.0,10.0,5.0,-13.0,-4.0,-1.0,1650849143543684.0
0.0,-8.0,-9.0,-8.0,-17.0,-13.0,-4.0,-1.0,1650849143543684.0
-2.0,16.0,-7.0,-5.0,-11.0,-2.0,-3.0,-1.0,1650849143549668.0
2.0,1.0,18.0,20.0,16.0,34.0,13.0,2.0,1650849143549668.0
1.0,5.0,-1.0,-9.0,8.0,7.0,0.0,2.0,1650849143566729.0
-8.0,-15.0,-17.0,-6.0,-15.0,-13.0,-6.0,-4.0,1650849143566729.0
2.0,12.0,8.0,-7.0,-2.0,-12.0,-4.0,-3.0,1650849143567709.0
5.0,-2.0,-6.0,-8.0,-8.0,-10.0,-3.0,3.0,1650849143567709.0
0.0,-10.0,1.0,5.0,9.0,8.0,5.0,1.0,1650849143588808.0
-3.0,4.0,12.0,9.0,-4.0,-7.0,-3.0,-2.0,1650849143588808.0
-4.0,-7.0,1.0,7.0,-1.0,-2.0,-3.0,-3.0,1650849143590744.0
-1.0,4.0,-5.0,-16.0,2.0,-4.0,0.0,-1.0,1650849143590744.0
0.0,3.0,21.0,13.0,3.0,11.0,3.0,1.0,1650849143603923.0
-1.0,-5.0,-33.0,-9.0,-8.0,-8.0,1.0,-2.0,1650849143603923.0
-1.0,-7.0,4.0,5.0,-2.0,6.0,-1.0,-1.0,1650849143609849.0
0.0,4.0,4.0,0.0,3.0,-6.0,-3.0,-1.0,1650849143609849.0
3.0,5.0,2.0,-2.0,6.0,3.0,0.0,0.0,1650849143626648.0
-2.0,-1.0,7.0,4.0,-2.0,-2.0,-1.0,1.0,1650849143626648.0
3.0,-3.0,-5.0,-3.0,4.0,-4.0,-1.0,1.0,1650849143627836.0
-4.0,-5.0,-2.0,-3.0,2.0,8.0,-2.0,-1.0,1650849143627836.0
-5.0,-3.0,-10.0,-7.0,-4.0,8.0,2.0,0.0,1650849143649019.0
2.0,16.0,27.0,6.0,3.0,2.0,1.0,-1.0,1650849143649019.0
0.0,-7.0,-23.0,-7.0,-5.0,-2.0,0.0,-2.0,1650849143649948.0
-2.0,9.0,11.0,6.0,-2.0,2.0,-1.0,0.0,1650849143649948.0
6.0,10.0,1.0,1.0,4.0,-13.0,-3.0,-1.0,1650849143662916.0
-1.0,-4.0,-2.0,-1.0,3.0,24.0,7.0,1.0,1650849143662916.0
-3.0,-4.0,-5.0,-12.0,-12.0,-10.0,-2.0,-1.0,1650849143669922.0
3.0,3.0,-5.0,10.0,-6.0,-6.0,-2.0,0.0,1650849143669922.0
-1.0,-4.0,15.0,6.0,6.0,0.0,-1.0,0.0,1650849143685992.0
2.0,12.0,9.0,5.0,6.0,-6.0,-1.0,0.0,1650849143685992.0
-4.0,-18.0,-27.0,-2.0,-5.0,-3.0,-3.0,-3.0,1650849143687984.0
-7.0,-10.0,-7.0,-7.0,3.0,11.0,2.0,-1.0,1650849143687984.0
-3.0,0.0,-12.0,-6.0,-8.0,-5.0,-1.0,-1.0,1650849143708958.0
0.0,-3.0,3.0,4.0,-4.0,-8.0,-3.0,0.0,1650849143708958.0
0.0,6.0,13.0,6.0,11.0,9.0,3.0,5.0,1650849143709888.0
3.0,-1.0,-6.0,-15.0,-5.0,1.0,0.0,0.0,1650849143709888.0
-1.0,-1.0,-5.0,0.0,-6.0,-6.0,-1.0,0.0,1650849143722921.0
-5.0,-14.0,-17.0,-5.0,-19.0,-37.0,-9.0,-3.0,1650849143722921.0
3.0,19.0,11.0,6.0,20.0,39.0,5.0,1.0,1650849143729835.0
2.0,2.0,11.0,4.0,2.0,-2.0,3.0,4.0,1650849143729835.0
0.0,1.0,-7.0,-9.0,1.0,0.0,-1.0,1.0,1650849143744862.0
-6.0,-13.0,-5.0,0.0,-5.0,-5.0,-4.0,-3.0,1650849143744862.0
3.0,-10.0,-3.0,0.0,-13.0,-23.0,-5.0,-1.0,1650849143753538.0
0.0,-2.0,-4.0,-3.0,-8.0,-5.0,-3.0,-1.0,1650849143753538.0
0.0,4.0,0.0,2.0,4.0,16.0,2.0,-1.0,1650849143768566.0
-4.0,-9.0,4.0,-1.0,3.0,-3.0,2.0,1.0,1650849143768566.0
0.0,-7.0,-4.0,3.0,2.0,1.0,0.0,1.0,1650849143770128.0
5.0,10.0,4.0,1.0,4.0,-2.0,-2.0,-1.0,1650849143770128.0
-3.0,-4.0,-6.0,-12.0,-5.0,-12.0,-2.0,-1.0,1650849143782083.0
-2.0,-3.0,-8.0,5.0,3.0,15.0,2.0,0.0,1650849143782083.0
4.0,5.0,31.0,6.0,2.0,3.0,1.0,0.0,1650849143791051.0
-2.0,-9.0,-25.0,-5.0,-2.0,-23.0,-6.0,-2.0,1650849143791051.0
1.0,2.0,15.0,12.0,4.0,35.0,10.0,3.0,1650849143806191.0
0.0,7.0,-6.0,-6.0,-1.0,-7.0,-1.0,-4.0,1650849143806191.0
2.0,-9.0,-4.0,-7.0,-3.0,-15.0,-3.0,1.0,1650849143808147.0
-1.0,6.0,10.0,8.0,14.0,28.0,3.0,-1.0,1650849143808147.0
-2.0,-8.0,-9.0,-7.0,-14.0,-30.0,-7.0,-3.0,1650849143844588.0
1.0,-1.0,-6.0,-7.0,-4.0,17.0,1.0,-2.0,1650849143844588.0
-4.0,2.0,-2.0,-6.0,-2.0,-6.0,2.0,-2.0,1650849143845579.0
2.0,1.0,7.0,11.0,-2.0,-14.0,-3.0,1.0,1650849143845579.0
2.0,-5.0,-9.0,-7.0,4.0,5.0,1.0,1.0,1650849143846557.0
1.0,0.0,7.0,2.0,-9.0,-2.0,2.0,1.0,1650849143846557.0
-6.0,-4.0,-2.0,1.0,-6.0,-14.0,-7.0,-8.0,1650849143851570.0
-8.0,1.0,4.0,-7.0,3.0,6.0,0.0,-4.0,1650849143851570.0
1.0,1.0,-10.0,-10.0,-13.0,2.0,-1.0,0.0,1650849143866623.0
0.0,5.0,6.0,4.0,9.0,-5.0,-1.0,4.0,1650849143866623.0
-4.0,-2.0,-11.0,-8.0,-2.0,-6.0,-3.0,0.0,1650849143873839.0
7.0,-3.0,25.0,24.0,18.0,34.0,13.0,4.0,1650849143873839.0
-1.0,-9.0,-16.0,-14.0,-5.0,-11.0,-2.0,-1.0,1650849143888983.0
3.0,7.0,2.0,3.0,-12.0,-14.0,-4.0,-2.0,1650849143888983.0
-6.0,-2.0,-9.0,2.0,14.0,18.0,0.0,0.0,1650849143889935.0
-9.0,0.0,0.0,-4.0,-8.0,-21.0,-4.0,-1.0,1650849143889935.0
0.0,4.0,5.0,3.0,7.0,20.0,-1.0,-4.0,1650849143901949.0
3.0,-1.0,16.0,11.0,12.0,7.0,8.0,10.0,1650849143901949.0
2.0,5.0,0.0,-7.0,-15.0,0.0,0.0,0.0,1650849143910857.0
-1.0,-12.0,-7.0,2.0,-10.0,-23.0,-5.0,-3.0,1650849143910857.0
-3.0,7.0,-6.0,-3.0,4.0,-3.0,-3.0,-2.0,1650849143925902.0
-4.0,1.0,-10.0,-8.0,-1.0,-3.0,-6.0,-4.0,1650849143925902.0
5.0,-2.0,10.0,4.0,-3.0,1.0,2.0,2.0,1650849143927898.0
4.0,2.0,-3.0,9.0,15.0,16.0,5.0,3.0,1650849143927898.0
-5.0,-4.0,2.0,-2.0,-5.0,-7.0,-1.0,-2.0,1650849143947848.0
-3.0,-2.0,-3.0,-2.0,3.0,6.0,-2.0,-3.0,1650849143947848.0
2.0,-3.0,1.0,-6.0,-5.0,-5.0,1.0,1.0,1650849143956820.0
-5.0,-3.0,-12.0,-9.0,-9.0,-15.0,-7.0,-5.0,1650849143956820.0
-3.0,-1.0,1.0,9.0,3.0,0.0,-3.0,1.0,1650849143961807.0
2.0,2.0,-3.0,-5.0,-2.0,5.0,1.0,0.0,1650849143961807.0
2.0,5.0,14.0,14.0,15.0,18.0,5.0,0.0,1650849143971781.0
-5.0,-4.0,-4.0,-9.0,-9.0,-7.0,-4.0,-3.0,1650849143971781.0
3.0,1.0,-2.0,4.0,8.0,-10.0,-2.0,1.0,1650849143985857.0
-2.0,1.0,-4.0,-1.0,-10.0,-27.0,-6.0,-1.0,1650849143985857.0
1.0,-13.0,-6.0,-1.0,0.0,44.0,11.0,0.0,1650849143987854.0
2.0,20.0,10.0,-4.0,0.0,-15.0,-1.0,-1.0,1650849143987854.0
-1.0,-3.0,3.0,6.0,-3.0,-2.0,-1.0,-2.0,1650849144008825.0
-1.0,-3.0,-17.0,-16.0,3.0,2.0,-2.0,-2.0,1650849144008825.0
0.0,-1.0,4.0,12.0,-4.0,-14.0,-5.0,0.0,1650849144009795.0
-3.0,-1.0,-2.0,-6.0,-13.0,0.0,-1.0,0.0,1650849144009795.0
2.0,5.0,4.0,6.0,11.0,-1.0,-2.0,-1.0,1650849144022789.0
1.0,-3.0,-3.0,-4.0,-3.0,0.0,0.0,-1.0,1650849144022789.0
-1.0,5.0,0.0,-6.0,-7.0,-3.0,5.0,7.0,1650849144031737.0
2.0,-5.0,-6.0,-5.0,0.0,5.0,2.0,-1.0,1650849144031737.0
1.0,4.0,3.0,-1.0,-1.0,1.0,4.0,1.0,1650849144045698.0
3.0,-3.0,8.0,15.0,10.0,7.0,0.0,-2.0,1650849144045698.0
-4.0,-4.0,4.0,-2.0,-3.0,-9.0,-3.0,-4.0,1650849144047695.0
-6.0,-5.0,3.0,2.0,-11.0,-19.0,-5.0,-3.0,1650849144047695.0
2.0,-2.0,-11.0,-1.0,5.0,14.0,2.0,-1.0,1650849144068816.0
8.0,5.0,-1.0,-7.0,3.0,15.0,5.0,4.0,1650849144068816.0
-2.0,-2.0,-17.0,-8.0,-3.0,-31.0,-8.0,-2.0,1650849144070744.0
3.0,4.0,10.0,9.0,17.0,50.0,9.0,5.0,1650849144070744.0
-2.0,0.0,8.0,14.0,-16.0,-14.0,-1.0,-2.0,1650849144082780.0
-1.0,-2.0,5.0,1.0,-4.0,-2.0,-2.0,0.0,1650849144082780.0
-3.0,2.0,-4.0,-4.0,2.0,-16.0,-4.0,-3.0,1650849144098679.0
-3.0,-7.0,-8.0,-17.0,0.0,5.0,-5.0,0.0,1650849144098679.0
7.0,-6.0,-14.0,-2.0,-1.0,-3.0,0.0,1.0,1650849144106648.0
5.0,2.0,-3.0,-7.0,-7.0,6.0,3.0,2.0,1650849144106648.0
-3.0,17.0,26.0,19.0,2.0,-6.0,-3.0,-5.0,1650849144107646.0
-8.0,-8.0,-11.0,-8.0,0.0,-7.0,-2.0,-3.0,1650849144107646.0
-6.0,-12.0,-10.0,-11.0,-12.0,-1.0,1.0,-2.0,1650849144128617.0
7.0,5.0,1.0,7.0,14.0,1.0,3.0,7.0,1650849144128617.0
-3.0,-1.0,-8.0,-3.0,19.0,21.0,1.0,0.0,1650849144130584.0
2.0,0.0,7.0,3.0,-13.0,-22.0,-6.0,-3.0,1650849144130584.0
-6.0,6.0,3.0,-2.0,-3.0,16.0,0.0,0.0,1650849144142552.0
-5.0,-8.0,3.0,1.0,-4.0,-15.0,-3.0,-5.0,1650849144142552.0
1.0,-4.0,4.0,-5.0,-9.0,10.0,-1.0,-3.0,1650849144151528.0
4.0,-1.0,-7.0,1.0,6.0,3.0,1.0,3.0,1650849144151528.0
-4.0,-6.0,-6.0,-7.0,0.0,-12.0,-3.0,-3.0,1650849144165520.0
-10.0,-4.0,-17.0,-19.0,-11.0,-5.0,-3.0,-3.0,1650849144165520.0
7.0,0.0,11.0,25.0,10.0,7.0,5.0,6.0,1650849144172471.0
-4.0,1.0,16.0,15.0,1.0,5.0,-6.0,-1.0,1650849144172471.0
41.0,5.0,7.0,3.0,-4.0,-22.0,1.0,0.0,1650849144188599.0
-80.0,-8.0,-3.0,-1.0,3.0,34.0,21.0,-3.0,1650849144188599.0
16.0,2.0,-11.0,-15.0,4.0,9.0,1.0,4.0,1650849144190595.0
13.0,-3.0,-17.0,-19.0,-10.0,-8.0,1.0,2.0,1650849144190595.0
-4.0,3.0,2.0,-4.0,-1.0,-2.0,-5.0,1.0,1650849144202629.0
21.0,13.0,12.0,11.0,4.0,-10.0,-2.0,-2.0,1650849144202629.0
-18.0,-13.0,-7.0,-2.0,-8.0,-3.0,6.0,-5.0,1650849144217589.0
-23.0,-7.0,0.0,15.0,7.0,-2.0,-9.0,-13.0,1650849144217589.0
-1.0,-1.0,12.0,-2.0,1.0,-6.0,-11.0,6.0,1650849144226525.0
36.0,-7.0,-23.0,-20.0,-15.0,2.0,22.0,16.0,1650849144226525.0
13.0,17.0,15.0,23.0,18.0,-4.0,1.0,7.0,1650849144227506.0
0.0,-3.0,9.0,-1.0,2.0,11.0,-18.0,-6.0,1650849144227506.0
-32.0,3.0,2.0,14.0,0.0,-5.0,16.0,-12.0,1650849144248460.0
9.0,31.0,-4.0,-17.0,-5.0,-9.0,-19.0,-12.0,1650849144248460.0
-28.0,-26.0,-13.0,-21.0,-6.0,3.0,19.0,14.0,1650849144254490.0
87.0,22.0,-2.0,14.0,4.0,-6.0,36.0,43.0,1650849144254490.0
-14.0,-29.0,28.0,22.0,7.0,5.0,-13.0,-11.0,1650849144271678.0
-9.0,6.0,3.0,8.0,1.0,5.0,-10.0,-4.0,1650849144271678.0
-14.0,2.0,-27.0,-54.0,-17.0,-17.0,-21.0,-30.0,1650849144272634.0
-74.0,-19.0,-23.0,-18.0,-8.0,-8.0,-22.0,-23.0,1650849144272634.0
61.0,29.0,21.0,34.0,12.0,17.0,23.0,39.0,1650849144285971.0
18.0,-23.0,17.0,33.0,15.0,6.0,22.0,-6.0,1650849144285971.0
-37.0,-2.0,8.0,3.0,-3.0,-5.0,-17.0,-8.0,1650849144291815.0
52.0,54.0,-19.0,-29.0,-17.0,-3.0,10.0,25.0,1650849144291815.0
-48.0,-30.0,-23.0,-47.0,-9.0,-14.0,-24.0,-30.0,1650849144308884.0
35.0,50.0,4.0,12.0,9.0,11.0,8.0,25.0,1650849144308884.0
-35.0,-68.0,-6.0,-13.0,-9.0,-6.0,-16.0,-11.0,1650849144309883.0
-8.0,43.0,-5.0,2.0,-1.0,0.0,23.0,-11.0,1650849144309883.0
53.0,87.0,0.0,24.0,16.0,12.0,11.0,13.0,1650849144330827.0
44.0,-13.0,18.0,-4.0,-2.0,-8.0,-9.0,5.0,1650849144330827.0
28.0,65.0,-17.0,-13.0,-6.0,3.0,2.0,11.0,1650849144338805.0
-13.0,-50.0,26.0,5.0,-1.0,-1.0,-1.0,-3.0,1650849144338805.0
-33.0,-42.0,-48.0,-24.0,-20.0,-14.0,-14.0,-16.0,1650849144345813.0
-37.0,10.0,-1.0,-10.0,3.0,0.0,-4.0,-2.0,1650849144345813.0
23.0,32.0,35.0,42.0,10.0,6.0,3.0,2.0,1650849144352826.0
-19.0,-23.0,-6.0,-11.0,2.0,-5.0,-8.0,-4.0,1650849144352826.0
18.0,10.0,7.0,14.0,-5.0,15.0,8.0,2.0,1650849144368792.0
22.0,31.0,-1.0,13.0,18.0,-1.0,0.0,17.0,1650849144368792.0
-47.0,-67.0,-14.0,-17.0,-25.0,-25.0,-3.0,-11.0,1650849144370720.0
23.0,51.0,-17.0,-2.0,36.0,30.0,15.0,12.0,1650849144370720.0
-128.0,-2.0,-21.0,-13.0,-18.0,-18.0,-20.0,-38.0,1650849144390782.0
92.0,-16.0,6.0,-1.0,-3.0,0.0,-3.0,11.0,1650849144390782.0
51.0,17.0,10.0,21.0,-4.0,13.0,20.0,27.0,1650849144392750.0
-51.0,-45.0,28.0,9.0,13.0,-3.0,-9.0,-17.0,1650849144392750.0
62.0,71.0,-18.0,-38.0,-7.0,-1.0,10.0,21.0,1650849144405714.0
-93.0,-67.0,21.0,18.0,-11.0,-4.0,-4.0,-18.0,1650849144405714.0
35.0,6.0,-30.0,24.0,43.0,11.0,-2.0,0.0,1650849144412724.0
51.0,79.0,10.0,-6.0,-27.0,-15.0,-8.0,-7.0,1650849144412724.0
-39.0,-76.0,-4.0,-30.0,-11.0,-5.0,-7.0,-8.0,1650849144428684.0
-57.0,-3.0,-1.0,8.0,3.0,-5.0,-10.0,-22.0,1650849144428684.0
24.0,-22.0,27.0,-12.0,-6.0,7.0,13.0,21.0,1650849144430648.0
-8.0,-5.0,-8.0,40.0,27.0,3.0,-8.0,-14.0,1650849144430648.0
-33.0,-65.0,-10.0,-16.0,14.0,0.0,2.0,-5.0,1650849144451676.0
1.0,82.0,19.0,0.0,-9.0,23.0,7.0,-8.0,1650849144451676.0
-34.0,-86.0,-14.0,3.0,-22.0,-19.0,-7.0,-1.0,1650849144452590.0
62.0,55.0,-9.0,-5.0,30.0,14.0,-5.0,0.0,1650849144452590.0
29.0,-11.0,18.0,27.0,-1.0,-8.0,17.0,46.0,1650849144465568.0
38.0,19.0,16.0,10.0,25.0,4.0,-5.0,3.0,1650849144465568.0
-23.0,45.0,1.0,-33.0,-29.0,5.0,10.0,-11.0,1650849144472564.0
-68.0,-90.0,-37.0,-24.0,-10.0,-19.0,-13.0,-13.0,1650849144472564.0
36.0,25.0,17.0,46.0,13.0,15.0,-1.0,10.0,1650849144496472.0
-81.0,-35.0,-28.0,-27.0,-12.0,-12.0,3.0,-1.0,1650849144496472.0
127.0,127.0,-29.0,3.0,3.0,5.0,1.0,25.0,1650849144497469.0
-74.0,-76.0,19.0,0.0,-24.0,-3.0,0.0,-21.0,1650849144497469.0
-25.0,31.0,14.0,0.0,11.0,-7.0,-4.0,19.0,1650849144512429.0
42.0,-3.0,-9.0,-24.0,-18.0,-1.0,7.0,25.0,1650849144512429.0
-108.0,56.0,-11.0,-10.0,-12.0,-20.0,-20.0,-60.0,1650849144514424.0
-13.0,-75.0,-20.0,-10.0,-26.0,1.0,2.0,15.0,1650849144514424.0
59.0,54.0,15.0,19.0,22.0,8.0,-3.0,19.0,1650849144533436.0
-17.0,0.0,11.0,21.0,14.0,-2.0,-1.0,-5.0,1650849144533436.0
-30.0,5.0,14.0,-17.0,-19.0,-14.0,-13.0,-24.0,1650849144535369.0
-10.0,-61.0,-38.0,4.0,13.0,17.0,2.0,-12.0,1650849144535369.0
13.0,39.0,12.0,-12.0,7.0,2.0,17.0,9.0,1650849144548340.0
-12.0,-33.0,-6.0,17.0,0.0,-5.0,-9.0,1.0,1650849144548340.0
6.0,-27.0,-11.0,-25.0,0.0,8.0,2.0,-8.0,1650849144550329.0
-40.0,-22.0,20.0,18.0,2.0,-18.0,-12.0,6.0,1650849144550329.0
-9.0,-24.0,15.0,-13.0,-16.0,-1.0,-25.0,-67.0,1650849144570893.0
105.0,50.0,-27.0,2.0,7.0,-5.0,18.0,33.0,1650849144570893.0
7.0,30.0,24.0,-29.0,-2.0,2.0,-2.0,12.0,1650849144572872.0
25.0,21.0,-9.0,10.0,-43.0,-19.0,3.0,7.0,1650849144572872.0
-10.0,-24.0,-7.0,-42.0,-11.0,10.0,4.0,7.0,1650849144586027.0
-85.0,-54.0,13.0,31.0,6.0,10.0,-18.0,-66.0,1650849144586027.0
-4.0,25.0,-8.0,9.0,3.0,-8.0,-9.0,5.0,1650849144591953.0
82.0,3.0,10.0,-8.0,6.0,5.0,27.0,49.0,1650849144591953.0
-12.0,-23.0,-47.0,-27.0,-13.0,-16.0,-5.0,-13.0,1650849144608891.0
-61.0,-21.0,3.0,-39.0,-25.0,-5.0,-2.0,-10.0,1650849144608891.0
30.0,1.0,4.0,37.0,29.0,5.0,0.0,2.0,1650849144614856.0
-48.0,30.0,20.0,-4.0,-8.0,-3.0,5.0,-8.0,1650849144614856.0
22.0,-5.0,-1.0,68.0,48.0,37.0,24.0,33.0,1650849144630889.0
7.0,6.0,18.0,-11.0,33.0,7.0,1.0,5.0,1650849144630889.0
-31.0,22.0,10.0,-12.0,-24.0,-17.0,-22.0,-2.0,1650849144632864.0
18.0,-8.0,-4.0,-10.0,7.0,4.0,6.0,-4.0,1650849144632864.0
-47.0,41.0,-12.0,19.0,-15.0,-3.0,1.0,-10.0,1650849144644831.0
83.0,-1.0,-53.0,-27.0,-10.0,-13.0,-6.0,5.0,1650849144644831.0
-68.0,-54.0,44.0,4.0,-12.0,-3.0,-15.0,-41.0,1650849144654282.0
36.0,78.0,-11.0,23.0,39.0,10.0,8.0,12.0,1650849144654282.0
-49.0,-34.0,28.0,-15.0,-38.0,-14.0,-9.0,-7.0,1650849144668279.0
9.0,-46.0,-41.0,-2.0,7.0,-1.0,-14.0,-4.0,1650849144668279.0
21.0,-16.0,6.0,-9.0,-5.0,-2.0,14.0,17.0,1650849144670816.0
-56.0,-14.0,-8.0,-15.0,-10.0,5.0,-17.0,-38.0,1650849144670816.0
96.0,43.0,-2.0,13.0,-8.0,3.0,12.0,21.0,1650849144690799.0
-43.0,10.0,6.0,-9.0,-4.0,-5.0,-16.0,-14.0,1650849144690799.0
64.0,11.0,9.0,49.0,31.0,17.0,17.0,53.0,1650849144692795.0
-15.0,-28.0,2.0,-33.0,-18.0,-6.0,-7.0,-10.0,1650849144692795.0
21.0,15.0,-4.0,-41.0,-20.0,-5.0,10.0,-6.0,1650849144705851.0
2.0,38.0,22.0,87.0,65.0,30.0,12.0,6.0,1650849144705851.0
-1.0,-52.0,-26.0,-24.0,-15.0,-9.0,-6.0,-6.0,1650849144711835.0
25.0,106.0,20.0,20.0,-11.0,-8.0,1.0,6.0,1650849144711835.0
15.0,10.0,22.0,-10.0,1.0,0.0,-22.0,-22.0,1650849144728810.0
-30.0,-57.0,-3.0,-32.0,-45.0,-25.0,-4.0,-20.0,1650849144728810.0
15.0,-40.0,-19.0,-11.0,-12.0,-6.0,15.0,21.0,1650849144729807.0
28.0,64.0,25.0,69.0,80.0,35.0,-10.0,0.0,1650849144729807.0
-15.0,-58.0,-14.0,-39.0,-23.0,-11.0,7.0,-12.0,1650849144750751.0
-16.0,19.0,3.0,13.0,-13.0,-7.0,-1.0,11.0,1650849144750751.0
-22.0,28.0,31.0,30.0,20.0,20.0,4.0,-24.0,1650849144752725.0
16.0,-17.0,-12.0,-31.0,-15.0,-10.0,8.0,31.0,1650849144752725.0
-9.0,5.0,-6.0,36.0,31.0,2.0,-11.0,-7.0,1650849144773669.0
18.0,-19.0,3.0,-17.0,-4.0,-3.0,-5.0,3.0,1650849144773669.0
-31.0,-20.0,-40.0,-33.0,-9.0,-4.0,-2.0,-3.0,1650849144775684.0
-59.0,-17.0,24.0,10.0,-31.0,1.0,-4.0,-33.0,1650849144775684.0
67.0,34.0,12.0,22.0,41.0,10.0,14.0,43.0,1650849144788630.0
-8.0,28.0,-21.0,-29.0,-28.0,-19.0,4.0,1.0,1650849144788630.0
8.0,11.0,5.0,35.0,6.0,-10.0,-23.0,-22.0,1650849144790651.0
-50.0,-41.0,-7.0,-34.0,-32.0,-7.0,7.0,-14.0,1650849144790651.0
23.0,40.0,-5.0,6.0,9.0,17.0,6.0,-1.0,1650849144810949.0
80.0,78.0,24.0,-4.0,2.0,9.0,8.0,28.0,1650849144810949.0
1.0,-61.0,-35.0,-36.0,0.0,-14.0,-9.0,-11.0,1650849144812903.0
-4.0,31.0,20.0,-53.0,-55.0,-47.0,-25.0,-23.0,1650849144812903.0
-54.0,-63.0,-18.0,71.0,22.0,44.0,-1.0,-14.0,1650849144825360.0
4.0,10.0,25.0,-35.0,-26.0,11.0,18.0,17.0,1650849144825360.0
-2.0,26.0,16.0,22.0,-14.0,6.0,11.0,21.0,1650849144833457.0
47.0,-31.0,-58.0,-25.0,1.0,-2.0,1.0,10.0,1650849144833457.0
-24.0,-2.0,12.0,-28.0,-39.0,-36.0,-17.0,-28.0,1650849144848556.0
-41.0,-43.0,-8.0,1.0,5.0,-1.0,-15.0,2.0,1650849144848556.0
11.0,30.0,7.0,11.0,15.0,14.0,15.0,-11.0,1650849144850551.0
59.0,31.0,32.0,10.0,-10.0,1.0,22.0,55.0,1650849144850551.0
-2.0,-55.0,-6.0,12.0,26.0,-5.0,-3.0,12.0,1650849144871561.0
-44.0,-6.0,-15.0,0.0,3.0,0.0,-15.0,-35.0,1650849144871561.0
-9.0,21.0,-3.0,-25.0,-13.0,-10.0,2.0,4.0,1650849144872492.0
20.0,19.0,17.0,54.0,50.0,16.0,-8.0,-3.0,1650849144872492.0
-34.0,-15.0,-2.0,-22.0,-22.0,-16.0,0.0,-20.0,1650849144884528.0
29.0,67.0,23.0,25.0,34.0,46.0,25.0,18.0,1650849144884528.0
-3.0,-103.0,-28.0,-9.0,-4.0,-6.0,-9.0,1.0,1650849144893436.0
-2.0,-24.0,16.0,3.0,-11.0,-12.0,-15.0,-18.0,1650849144893436.0
-70.0,5.0,-34.0,-26.0,-17.0,-13.0,-8.0,-2.0,1650849144908965.0
43.0,21.0,8.0,-6.0,-25.0,-25.0,1.0,1.0,1650849144908965.0
-17.0,-17.0,-3.0,7.0,16.0,12.0,3.0,12.0,1650849144909927.0
-5.0,47.0,3.0,14.0,8.0,-5.0,-2.0,9.0,1650849144909927.0
-7.0,-34.0,16.0,-11.0,-11.0,-2.0,-8.0,-13.0,1650849144930867.0
-44.0,2.0,-11.0,-14.0,-18.0,-6.0,-2.0,-12.0,1650849144930867.0
15.0,22.0,-3.0,-15.0,-10.0,-5.0,-2.0,2.0,1650849144932835.0
-9.0,-40.0,1.0,37.0,20.0,18.0,27.0,18.0,1650849144932835.0
48.0,36.0,16.0,-7.0,-1.0,-12.0,-5.0,9.0,1650849144944868.0
-12.0,-30.0,-13.0,-5.0,-5.0,-5.0,0.0,1.0,1650849144944868.0
-18.0,18.0,2.0,5.0,7.0,-3.0,-11.0,-12.0,1650849144953778.0
-18.0,8.0,2.0,-6.0,-14.0,-11.0,-10.0,-13.0,1650849144953778.0
0.0,3.0,0.0,-26.0,-32.0,-11.0,2.0,-3.0,1650849144968804.0
3.0,-18.0,-15.0,30.0,29.0,18.0,3.0,-1.0,1650849144968804.0
22.0,-1.0,7.0,-2.0,10.0,11.0,5.0,3.0,1650849144970732.0
7.0,15.0,-11.0,-34.0,-21.0,-5.0,2.0,11.0,1650849144970732.0
-2.0,-5.0,3.0,5.0,-3.0,-4.0,0.0,-3.0,1650849144990772.0
12.0,-19.0,-10.0,14.0,21.0,4.0,7.0,14.0,1650849144990772.0
-27.0,9.0,10.0,1.0,-6.0,-4.0,-7.0,-14.0,1650849144992759.0
0.0,3.0,-4.0,-2.0,6.0,9.0,-4.0,-20.0,1650849144992759.0
2.0,12.0,-10.0,-1.0,1.0,-3.0,-10.0,8.0,1650849145004753.0
-87.0,-32.0,29.0,-11.0,-22.0,-7.0,4.0,-30.0,1650849145004753.0
100.0,42.0,-47.0,-55.0,-29.0,-3.0,21.0,41.0,1650849145013702.0
-9.0,-63.0,10.0,72.0,59.0,8.0,16.0,23.0,1650849145013702.0
22.0,26.0,16.0,4.0,7.0,22.0,11.0,-4.0,1650849145028805.0
-3.0,-14.0,0.0,-10.0,-3.0,-11.0,-17.0,-14.0,1650849145028805.0
-41.0,22.0,0.0,-6.0,5.0,6.0,-13.0,-11.0,1650849145030780.0
-12.0,5.0,-11.0,-35.0,-27.0,-20.0,-16.0,-8.0,1650849145030780.0
-14.0,-12.0,-7.0,5.0,-4.0,-7.0,16.0,2.0,1650849145051723.0
21.0,6.0,-11.0,10.0,15.0,19.0,1.0,18.0,1650849145051723.0
-11.0,-3.0,11.0,5.0,5.0,8.0,0.0,-16.0,1650849145052713.0
5.0,15.0,-8.0,-12.0,-11.0,3.0,-14.0,-7.0,1650849145052713.0
8.0,-33.0,-2.0,6.0,12.0,7.0,6.0,9.0,1650849145073726.0
12.0,8.0,-8.0,-24.0,-32.0,-21.0,-5.0,-3.0,1650849145073726.0
-23.0,5.0,15.0,19.0,3.0,-6.0,-4.0,-2.0,1650849145075651.0
16.0,-2.0,-25.0,-12.0,-5.0,-15.0,-7.0,-4.0,1650849145075651.0
27.0,21.0,18.0,3.0,-3.0,23.0,7.0,4.0,1650849145088683.0
-40.0,-8.0,-20.0,-12.0,-3.0,-22.0,-14.0,-6.0,1650849145088683.0
6.0,-8.0,15.0,24.0,21.0,32.0,32.0,9.0,1650849145090611.0
0.0,-4.0,0.0,-16.0,-17.0,-6.0,2.0,-2.0,1650849145090611.0
-1.0,14.0,-11.0,-1.0,7.0,-10.0,-12.0,-2.0,1650849145111645.0
31.0,-9.0,-1.0,-2.0,-5.0,-18.0,-17.0,6.0,1650849145111645.0
35.0,2.0,1.0,23.0,11.0,-8.0,-30.0,-10.0,1650849145112640.0
-74.0,-1.0,3.0,-17.0,-6.0,9.0,20.0,0.0,1650849145112640.0
-9.0,-9.0,-16.0,-19.0,-14.0,-3.0,-5.0,6.0,1650849145124635.0
2.0,2.0,12.0,15.0,4.0,0.0,45.0,4.0,1650849145124635.0
-1.0,-3.0,19.0,10.0,4.0,8.0,-20.0,-3.0,1650849145133596.0
22.0,2.0,-3.0,2.0,-2.0,-8.0,-10.0,-8.0,1650849145133596.0
-16.0,-6.0,-18.0,-12.0,9.0,-4.0,-24.0,-9.0,1650849145148544.0
0.0,6.0,-3.0,-10.0,-16.0,2.0,-6.0,1.0,1650849145148544.0
-2.0,0.0,0.0,30.0,12.0,-9.0,12.0,3.0,1650849145150540.0
6.0,-5.0,5.0,-6.0,2.0,8.0,-6.0,-5.0,1650849145150540.0
1.0,3.0,-5.0,-8.0,0.0,-2.0,4.0,3.0,1650849145171483.0
6.0,-4.0,-5.0,-13.0,-11.0,-13.0,-8.0,-5.0,1650849145171483.0
-1.0,4.0,23.0,6.0,-15.0,4.0,8.0,1.0,1650849145173477.0
3.0,-9.0,0.0,2.0,5.0,2.0,-3.0,0.0,1650849145173477.0
9.0,4.0,6.0,8.0,18.0,10.0,5.0,2.0,1650849145193885.0
10.0,-1.0,-4.0,2.0,-3.0,-6.0,-2.0,-4.0,1650849145193885.0
-18.0,-6.0,-5.0,-10.0,4.0,-4.0,-10.0,2.0,1650849145194883.0
-3.0,3.0,3.0,-5.0,-5.0,7.0,-13.0,2.0,1650849145194883.0
1.0,-4.0,-11.0,2.0,-8.0,7.0,35.0,1.0,1650849145208845.0
4.0,-9.0,0.0,-2.0,1.0,2.0,-5.0,-2.0,1650849145208845.0
-16.0,6.0,8.0,2.0,-7.0,-17.0,0.0,-2.0,1650849145210841.0
26.0,13.0,7.0,-1.0,8.0,6.0,-2.0,1.0,1650849145210841.0
28.0,0.0,5.0,12.0,9.0,-15.0,-23.0,-16.0,1650849145230817.0
1.0,2.0,-2.0,-3.0,8.0,32.0,16.0,20.0,1650849145230817.0
52.0,-25.0,-3.0,-2.0,-17.0,-11.0,2.0,5.0,1650849145232783.0
-10.0,-3.0,-7.0,2.0,-11.0,-28.0,-6.0,-8.0,1650849145232783.0
11.0,8.0,0.0,-6.0,3.0,33.0,4.0,3.0,1650849145253821.0
-3.0,-4.0,-2.0,4.0,-1.0,-7.0,-5.0,-7.0,1650849145253821.0
-22.0,5.0,5.0,-5.0,16.0,1.0,1.0,0.0,1650849145261761.0
13.0,0.0,-3.0,8.0,5.0,24.0,15.0,4.0,1650849145261761.0
-10.0,-4.0,0.0,0.0,-4.0,-19.0,-2.0,-1.0,1650849145268800.0
-9.0,3.0,2.0,-1.0,-9.0,-1.0,-6.0,-3.0,1650849145268800.0
-10.0,-4.0,-7.0,-8.0,-5.0,-15.0,1.0,3.0,1650849145270763.0
-6.0,0.0,-1.0,-9.0,11.0,19.0,1.0,-2.0,1650849145270763.0
17.0,2.0,-4.0,6.0,-1.0,-10.0,0.0,2.0,1650849145291908.0
-15.0,-9.0,23.0,6.0,-11.0,0.0,-5.0,-5.0,1650849145291908.0
-4.0,15.0,-12.0,0.0,6.0,1.0,-1.0,-5.0,1650849145292879.0
10.0,-8.0,2.0,-9.0,-8.0,-5.0,-3.0,2.0,1650849145292879.0
-13.0,12.0,3.0,2.0,-3.0,-2.0,2.0,3.0,1650849145313944.0
16.0,-18.0,-10.0,-8.0,6.0,-15.0,-6.0,-2.0,1650849145313944.0
0.0,-6.0,-5.0,6.0,-1.0,1.0,-2.0,-4.0,1650849145314934.0
-24.0,11.0,24.0,9.0,6.0,23.0,18.0,4.0,1650849145314934.0
5.0,-6.0,-13.0,6.0,4.0,-2.0,-8.0,-1.0,1650849145328876.0
32.0,7.0,-18.0,-22.0,1.0,-12.0,-15.0,0.0,1650849145328876.0
53.0,6.0,1.0,2.0,7.0,14.0,35.0,9.0,1650849145329873.0
3.0,0.0,12.0,-3.0,-23.0,-20.0,-14.0,-2.0,1650849145329873.0
-8.0,1.0,11.0,-8.0,-17.0,-26.0,-7.0,-1.0,1650849145350850.0
12.0,12.0,-13.0,22.0,12.0,31.0,3.0,-1.0,1650849145350850.0
-13.0,-9.0,-22.0,-15.0,-3.0,0.0,-9.0,-2.0,1650849145352813.0
3.0,1.0,-3.0,-1.0,14.0,-10.0,7.0,-1.0,1650849145352813.0
-11.0,-1.0,22.0,3.0,0.0,15.0,1.0,-4.0,1650849145373783.0
-11.0,-5.0,-1.0,2.0,0.0,-9.0,-1.0,0.0,1650849145373783.0
-18.0,6.0,1.0,0.0,-5.0,8.0,-1.0,0.0,1650849145375788.0
-1.0,-16.0,-7.0,7.0,-6.0,-6.0,2.0,-4.0,1650849145375788.0
-10.0,-11.0,-6.0,-7.0,3.0,-3.0,-5.0,1.0,1650849145387961.0
5.0,22.0,14.0,13.0,6.0,0.0,2.0,2.0,1650849145387961.0
-21.0,3.0,1.0,6.0,-3.0,3.0,1.0,-2.0,1650849145395020.0
9.0,-6.0,-11.0,-7.0,-6.0,-24.0,-5.0,-3.0,1650849145395020.0
10.0,3.0,13.0,6.0,3.0,6.0,-2.0,0.0,1650849145419151.0
-10.0,-11.0,-6.0,-3.0,-6.0,22.0,12.0,5.0,1650849145419151.0
-3.0,-1.0,-1.0,-11.0,12.0,-2.0,2.0,-1.0,1650849145420086.0
5.0,7.0,-17.0,-3.0,0.0,8.0,-3.0,-1.0,1650849145420086.0
-5.0,-3.0,28.0,15.0,-5.0,-18.0,-1.0,1.0,1650849145434049.0
13.0,1.0,-9.0,-4.0,-5.0,-10.0,-3.0,-4.0,1650849145434049.0
-12.0,-4.0,-6.0,-1.0,-6.0,0.0,-5.0,-2.0,1650849145435047.0
4.0,8.0,14.0,-9.0,2.0,-11.0,-2.0,-1.0,1650849145435047.0
-4.0,7.0,-23.0,-15.0,6.0,27.0,13.0,6.0,1650849145448038.0
5.0,-3.0,-4.0,8.0,2.0,-10.0,-4.0,-5.0,1650849145448038.0
-1.0,-3.0,5.0,4.0,1.0,5.0,-3.0,0.0,1650849145455296.0
0.0,-9.0,-8.0,-7.0,-5.0,-1.0,-1.0,2.0,1650849145455296.0
0.0,-1.0,-1.0,-1.0,-3.0,-7.0,-2.0,-1.0,1650849145470885.0
-33.0,-4.0,5.0,-7.0,1.0,-1.0,-4.0,-2.0,1650849145470885.0
6.0,5.0,-5.0,-1.0,0.0,-2.0,-2.0,0.0,1650849145472780.0
-16.0,-21.0,-6.0,1.0,-1.0,5.0,-4.0,-3.0,1650849145472780.0
-8.0,-1.0,14.0,16.0,-5.0,-23.0,-4.0,-2.0,1650849145493745.0
0.0,5.0,19.0,5.0,8.0,30.0,5.0,-2.0,1650849145493745.0
-5.0,-7.0,-22.0,-16.0,-7.0,1.0,0.0,0.0,1650849145495752.0
9.0,6.0,-3.0,7.0,5.0,-3.0,2.0,-1.0,1650849145495752.0
-1.0,-3.0,-14.0,-19.0,10.0,3.0,-1.0,-1.0,1650849145507680.0
-11.0,-6.0,-27.0,-1.0,-5.0,-10.0,-5.0,-3.0,1650849145507680.0
28.0,-1.0,43.0,13.0,-2.0,-4.0,0.0,3.0,1650849145514661.0
-49.0,0.0,-4.0,-5.0,-7.0,2.0,-3.0,-6.0,1650849145514661.0
-4.0,13.0,9.0,-2.0,-4.0,-3.0,1.0,4.0,1650849145530619.0
-1.0,-19.0,-8.0,-1.0,-11.0,-24.0,-6.0,-2.0,1650849145530619.0
15.0,5.0,0.0,4.0,3.0,18.0,-1.0,3.0,1650849145532615.0
-16.0,-22.0,-23.0,-9.0,1.0,1.0,1.0,-1.0,1650849145532615.0
18.0,-14.0,-12.0,-14.0,-2.0,-6.0,-3.0,0.0,1650849145553611.0
-44.0,7.0,-2.0,-7.0,2.0,4.0,-4.0,-8.0,1650849145553611.0
18.0,1.0,6.0,-1.0,-5.0,-5.0,-2.0,7.0,1650849145555623.0
34.0,5.0,31.0,27.0,9.0,6.0,10.0,7.0,1650849145555623.0
-49.0,6.0,-6.0,-15.0,-9.0,6.0,-3.0,-15.0,1650849145567573.0
61.0,30.0,-2.0,7.0,-2.0,-13.0,11.0,15.0,1650849145567573.0
-56.0,-31.0,25.0,7.0,7.0,-1.0,-6.0,-12.0,1650849145574582.0
-2.0,11.0,-17.0,-5.0,5.0,12.0,-2.0,4.0,1650849145574582.0
7.0,-11.0,-30.0,-6.0,-8.0,0.0,0.0,-2.0,1650849145590893.0
5.0,3.0,30.0,3.0,13.0,4.0,-3.0,-3.0,1650849145590893.0
-26.0,-4.0,-21.0,0.0,-12.0,-14.0,0.0,5.0,1650849145592876.0
28.0,11.0,46.0,7.0,4.0,6.0,3.0,-1.0,1650849145592876.0
-30.0,-8.0,-24.0,-8.0,-2.0,-5.0,-5.0,0.0,1650849145612937.0
34.0,-17.0,21.0,0.0,-1.0,-3.0,-4.0,-4.0,1650849145612937.0
-43.0,12.0,-23.0,-22.0,3.0,10.0,9.0,1.0,1650849145620955.0
2.0,7.0,3.0,4.0,-5.0,-6.0,-9.0,-5.0,1650849145620955.0
36.0,-21.0,5.0,16.0,11.0,-14.0,-6.0,8.0,1650849145627895.0
-31.0,8.0,-2.0,-10.0,-8.0,18.0,-7.0,-9.0,1650849145627895.0
16.0,-5.0,-4.0,9.0,11.0,14.0,22.0,9.0,1650849145634850.0
21.0,0.0,-10.0,-14.0,-11.0,-2.0,5.0,7.0,1650849145634850.0
-13.0,9.0,10.0,13.0,-5.0,-8.0,-8.0,-7.0,1650849145650807.0
-6.0,2.0,-19.0,-11.0,-9.0,-26.0,-4.0,0.0,1650849145650807.0
11.0,-23.0,2.0,7.0,2.0,25.0,-9.0,-4.0,1650849145652801.0
-10.0,21.0,-14.0,8.0,10.0,-3.0,1.0,1.0,1650849145652801.0
15.0,-11.0,23.0,10.0,9.0,9.0,4.0,6.0,1650849145673773.0
7.0,-8.0,-9.0,-6.0,-3.0,-9.0,-11.0,-7.0,1650849145673773.0
2.0,12.0,9.0,8.0,-10.0,-15.0,4.0,1.0,1650849145675741.0
1.0,-20.0,15.0,-9.0,1.0,4.0,12.0,-2.0,1650849145675741.0
10.0,6.0,-20.0,9.0,2.0,17.0,-1.0,0.0,1650849145687895.0
-6.0,0.0,9.0,4.0,3.0,-5.0,3.0,2.0,1650849145687895.0
14.0,5.0,-28.0,-3.0,-2.0,-8.0,-22.0,-4.0,1650849145695868.0
28.0,9.0,32.0,0.0,-4.0,3.0,9.0,0.0,1650849145695868.0
34.0,-22.0,-9.0,-10.0,-11.0,-15.0,-22.0,1.0,1650849145710856.0
6.0,15.0,3.0,19.0,13.0,25.0,35.0,5.0,1650849145710856.0
5.0,-1.0,-4.0,-10.0,-8.0,-23.0,-14.0,-5.0,1650849145712824.0
8.0,-1.0,-11.0,4.0,-1.0,2.0,-15.0,-3.0,1650849145712824.0
-73.0,0.0,0.0,-12.0,1.0,2.0,15.0,-5.0,1650849145733768.0
-1.0,-21.0,-25.0,-9.0,2.0,9.0,-14.0,2.0,1650849145733768.0
-3.0,18.0,27.0,-8.0,-8.0,-3.0,27.0,3.0,1650849145735762.0
-16.0,-6.0,8.0,13.0,2.0,-4.0,-14.0,-5.0,1650849145735762.0
7.0,16.0,-18.0,-2.0,-3.0,-4.0,3.0,-2.0,1650849145747757.0
-10.0,-25.0,12.0,10.0,3.0,-12.0,-7.0,-1.0,1650849145747757.0
-18.0,14.0,6.0,-16.0,3.0,22.0,-2.0,-1.0,1650849145755862.0
-2.0,-15.0,-49.0,-1.0,-7.0,-9.0,-4.0,-2.0,1650849145755862.0
-2.0,18.0,28.0,9.0,-1.0,0.0,3.0,1.0,1650849145770822.0
5.0,-11.0,-7.0,1.0,1.0,-2.0,1.0,1.0,1650849145770822.0
14.0,-6.0,-16.0,-10.0,-4.0,-6.0,-3.0,-1.0,1650849145772749.0
-4.0,13.0,-5.0,7.0,5.0,-1.0,1.0,-1.0,1650849145772749.0
-1.0,8.0,-2.0,-22.0,-13.0,-1.0,0.0,3.0,1650849145793723.0
-13.0,-8.0,6.0,5.0,-5.0,-10.0,-2.0,3.0,1650849145793723.0
2.0,5.0,31.0,32.0,17.0,14.0,-3.0,-4.0,1650849145795712.0
-15.0,1.0,3.0,-5.0,6.0,7.0,8.0,2.0,1650849145795712.0
9.0,-13.0,-26.0,0.0,-5.0,-2.0,3.0,2.0,1650849145807802.0
0.0,9.0,1.0,-5.0,5.0,9.0,0.0,-1.0,1650849145807802.0
-7.0,8.0,11.0,0.0,3.0,-11.0,-6.0,-4.0,1650849145816790.0
9.0,-2.0,-10.0,-3.0,-3.0,-7.0,-2.0,2.0,1650849145816790.0
14.0,10.0,1.0,-2.0,-1.0,5.0,2.0,1.0,1650849145831651.0
-39.0,11.0,13.0,-10.0,-15.0,-10.0,-1.0,-6.0,1650849145831651.0
5.0,-9.0,-20.0,1.0,-8.0,-20.0,-6.0,-4.0,1650849145832663.0
-8.0,-5.0,14.0,6.0,8.0,27.0,2.0,-1.0,1650849145832663.0
8.0,9.0,3.0,1.0,4.0,0.0,2.0,-1.0,1650849145854153.0
-12.0,-4.0,-2.0,-6.0,-6.0,7.0,-1.0,0.0,1650849145854153.0
4.0,-16.0,-11.0,1.0,-2.0,-17.0,-1.0,-1.0,1650849145855166.0
-5.0,19.0,-11.0,-23.0,-12.0,5.0,0.0,-2.0,1650849145855166.0
-15.0,-15.0,15.0,19.0,8.0,-3.0,-1.0,-2.0,1650849145867120.0
14.0,5.0,17.0,4.0,8.0,5.0,8.0,3.0,1650849145867120.0
-22.0,5.0,-34.0,-13.0,-5.0,20.0,-1.0,0.0,1650849145882739.0
4.0,-10.0,31.0,13.0,-3.0,-13.0,-2.0,0.0,1650849145882739.0
8.0,-11.0,-4.0,2.0,2.0,-1.0,-4.0,-4.0,1650849145890728.0
-5.0,1.0,-14.0,-12.0,-11.0,-16.0,-4.0,-2.0,1650849145890728.0
8.0,-6.0,2.0,-5.0,-4.0,3.0,1.0,1.0,1650849145892696.0
0.0,6.0,-20.0,2.0,15.0,8.0,0.0,3.0,1650849145892696.0
-5.0,3.0,25.0,7.0,6.0,8.0,2.0,3.0,1650849145920783.0
43.0,4.0,-21.0,-23.0,-1.0,-7.0,-4.0,4.0,1650849145920783.0
4.0,-5.0,17.0,19.0,-12.0,-14.0,2.0,-3.0,1650849145922721.0
1.0,1.0,-6.0,-17.0,-12.0,9.0,-2.0,-3.0,1650849145922721.0
-2.0,5.0,-3.0,11.0,10.0,1.0,1.0,0.0,1650849145927730.0
10.0,3.0,0.0,1.0,6.0,10.0,1.0,3.0,1650849145927730.0
0.0,-6.0,2.0,-5.0,1.0,-6.0,-1.0,0.0,1650849145936680.0
-10.0,-6.0,-10.0,-4.0,0.0,-5.0,-1.0,0.0,1650849145936680.0
4.0,2.0,3.0,-10.0,-8.0,-7.0,-2.0,-1.0,1650849145951653.0
2.0,7.0,-2.0,-2.0,-8.0,-16.0,-3.0,-1.0,1650849145951653.0
9.0,7.0,9.0,9.0,10.0,17.0,-1.0,1.0,1650849145952650.0
7.0,-16.0,-17.0,-3.0,7.0,22.0,10.0,2.0,1650849145952650.0
30.0,7.0,22.0,3.0,9.0,-1.0,-4.0,-2.0,1650849145973688.0
-19.0,-11.0,-10.0,11.0,-11.0,-4.0,-1.0,-3.0,1650849145973688.0
4.0,1.0,-9.0,-13.0,-6.0,-23.0,-4.0,-2.0,1650849145979672.0
4.0,-5.0,-11.0,-7.0,-8.0,-13.0,-7.0,-2.0,1650849145979672.0
1.0,-3.0,-5.0,-4.0,-8.0,3.0,2.0,0.0,1650849145987653.0
2.0,2.0,-2.0,2.0,8.0,2.0,2.0,-1.0,1650849145987653.0
-1.0,-7.0,-1.0,0.0,-1.0,14.0,-1.0,0.0,1650849146002610.0
-6.0,7.0,8.0,5.0,8.0,1.0,4.0,1.0,1650849146002610.0
-12.0,-6.0,-13.0,-6.0,-6.0,-2.0,1.0,-1.0,1650849146011598.0
-3.0,-2.0,8.0,-7.0,-7.0,-3.0,-5.0,-2.0,1650849146011598.0
-14.0,-5.0,0.0,1.0,4.0,-4.0,0.0,-1.0,1650849146012584.0
-11.0,-4.0,0.0,1.0,3.0,-4.0,-3.0,-2.0,1650849146012584.0
-6.0,9.0,11.0,7.0,5.0,1.0,-1.0,-1.0,1650849146033527.0
3.0,-8.0,-8.0,-4.0,-5.0,-2.0,-1.0,0.0,1650849146033527.0
1.0,-1.0,-21.0,-18.0,-16.0,-26.0,-7.0,-3.0,1650849146035523.0
-1.0,-2.0,5.0,7.0,2.0,38.0,6.0,3.0,1650849146035523.0
-3.0,-10.0,-3.0,-7.0,4.0,5.0,4.0,2.0,1650849146047490.0
2.0,14.0,-12.0,1.0,10.0,8.0,0.0,0.0,1650849146047490.0
0.0,-7.0,21.0,4.0,1.0,-6.0,0.0,-1.0,1650849146056493.0
6.0,6.0,2.0,5.0,-12.0,-34.0,-11.0,-4.0,1650849146056493.0
-4.0,-3.0,-10.0,-5.0,-10.0,0.0,-2.0,-1.0,1650849146071089.0
-12.0,1.0,16.0,8.0,3.0,7.0,-1.0,-1.0,1650849146071089.0
-13.0,4.0,1.0,-1.0,1.0,0.0,3.0,1.0,1650849146073025.0
5.0,-2.0,2.0,0.0,-4.0,-20.0,-5.0,-1.0,1650849146073025.0
-7.0,-6.0,-4.0,4.0,1.0,29.0,4.0,1.0,1650849146093969.0
6.0,14.0,7.0,6.0,-1.0,-27.0,-2.0,2.0,1650849146093969.0
7.0,5.0,-6.0,-9.0,15.0,54.0,7.0,3.0,1650849146094975.0
-13.0,-20.0,4.0,5.0,-7.0,-20.0,-3.0,-2.0,1650849146094975.0
6.0,1.0,9.0,-1.0,0.0,-10.0,-3.0,1.0,1650849146106962.0
-3.0,0.0,-1.0,-1.0,-7.0,0.0,-4.0,-1.0,1650849146106962.0
-1.0,-5.0,-4.0,-5.0,-18.0,-19.0,-3.0,-1.0,1650849146115949.0
-1.0,5.0,-5.0,-11.0,-1.0,4.0,1.0,0.0,1650849146115949.0
-5.0,2.0,-17.0,4.0,9.0,-1.0,-2.0,-1.0,1650849146138879.0
5.0,-12.0,17.0,7.0,-5.0,0.0,1.0,-1.0,1650849146138879.0
-6.0,3.0,9.0,-1.0,3.0,-10.0,-4.0,0.0,1650849146139874.0
2.0,1.0,-9.0,1.0,3.0,23.0,12.0,3.0,1650849146139874.0
-3.0,2.0,11.0,-3.0,-4.0,-12.0,-2.0,-2.0,1650849146153839.0
1.0,2.0,-6.0,-2.0,8.0,13.0,1.0,-1.0,1650849146153839.0
6.0,-1.0,-13.0,-1.0,-4.0,-10.0,-2.0,-1.0,1650849146159824.0
-6.0,5.0,14.0,-1.0,-6.0,-14.0,-7.0,-3.0,1650849146159824.0
3.0,-6.0,-9.0,1.0,5.0,0.0,1.0,2.0,1650849146176895.0
3.0,-13.0,-21.0,-4.0,-2.0,-10.0,0.0,1.0,1650849146176895.0
18.0,18.0,42.0,35.0,-2.0,28.0,0.0,-3.0,1650849146177890.0
-1.0,-11.0,-26.0,-8.0,6.0,0.0,-2.0,-2.0,1650849146177890.0
2.0,1.0,9.0,13.0,9.0,11.0,6.0,1.0,1650849146198859.0
-4.0,1.0,-7.0,-22.0,-10.0,-17.0,-4.0,0.0,1650849146198859.0
10.0,-8.0,-10.0,-9.0,0.0,12.0,11.0,4.0,1650849146199843.0
-2.0,2.0,3.0,7.0,0.0,-8.0,-4.0,-2.0,1650849146199843.0
-3.0,2.0,-4.0,-5.0,-3.0,-1.0,0.0,-2.0,1650849146213813.0
6.0,-2.0,5.0,7.0,2.0,1.0,-2.0,0.0,1650849146213813.0
-10.0,-3.0,-14.0,-1.0,1.0,-8.0,-2.0,0.0,1650849146214803.0
-3.0,3.0,11.0,4.0,1.0,1.0,0.0,-1.0,1650849146214803.0
-1.0,-1.0,-5.0,-9.0,-10.0,-10.0,-3.0,-2.0,1650849146235878.0
-1.0,5.0,4.0,-1.0,0.0,11.0,2.0,-1.0,1650849146235878.0
-8.0,-2.0,-2.0,5.0,0.0,-18.0,-6.0,-4.0,1650849146237844.0
-3.0,3.0,-3.0,-5.0,1.0,0.0,0.0,1.0,1650849146237844.0
2.0,0.0,1.0,0.0,-7.0,15.0,-2.0,2.0,1650849146258877.0
-2.0,7.0,9.0,6.0,13.0,21.0,4.0,0.0,1650849146258877.0
1.0,-3.0,-9.0,-8.0,7.0,-13.0,-1.0,3.0,1650849146259875.0
4.0,-5.0,-3.0,-4.0,-10.0,-19.0,-7.0,-3.0,1650849146259875.0
-4.0,4.0,3.0,2.0,-3.0,1.0,-3.0,0.0,1650849146273917.0
-1.0,-2.0,1.0,-2.0,-4.0,1.0,5.0,1.0,1650849146273917.0
-5.0,-5.0,-18.0,-14.0,3.0,4.0,-1.0,1.0,1650849146274929.0
-1.0,-10.0,8.0,-5.0,-10.0,-8.0,-4.0,-1.0,1650849146274929.0
-5.0,15.0,17.0,12.0,-15.0,-18.0,-5.0,-5.0,1650849146295860.0
-7.0,-18.0,5.0,20.0,17.0,7.0,-4.0,-4.0,1650849146295860.0
2.0,1.0,-7.0,-8.0,3.0,3.0,-1.0,1.0,1650849146297855.0
-1.0,-2.0,-12.0,-6.0,-1.0,1.0,2.0,2.0,1650849146297855.0
0.0,-11.0,-17.0,-20.0,-7.0,-17.0,-2.0,-1.0,1650849146318807.0
0.0,8.0,6.0,6.0,-3.0,-1.0,-1.0,-3.0,1650849146318807.0
4.0,3.0,16.0,10.0,10.0,22.0,4.0,2.0,1650849146319797.0
-3.0,-14.0,-23.0,-18.0,-8.0,8.0,0.0,1.0,1650849146319797.0
0.0,11.0,13.0,6.0,3.0,-6.0,1.0,1.0,1650849146333759.0
-1.0,2.0,5.0,8.0,-6.0,-6.0,-5.0,-2.0,1650849146333759.0
-2.0,-1.0,0.0,4.0,5.0,-13.0,-5.0,-4.0,1650849146335755.0
6.0,2.0,0.0,0.0,-7.0,-12.0,-6.0,0.0,1650849146335755.0
1.0,-6.0,-7.0,-10.0,8.0,25.0,14.0,4.0,1650849146355727.0
-2.0,-11.0,-22.0,-9.0,2.0,2.0,1.0,0.0,1650849146355727.0
0.0,9.0,38.0,14.0,-7.0,4.0,-2.0,-2.0,1650849146357719.0
6.0,7.0,-16.0,-2.0,10.0,-3.0,-1.0,0.0,1650849146357719.0
-47.0,-10.0,-1.0,-4.0,-5.0,-9.0,-4.0,-1.0,1650849146370687.0
2.0,6.0,6.0,-2.0,-10.0,-5.0,-2.0,-1.0,1650849146370687.0
5.0,-1.0,-11.0,-3.0,-3.0,0.0,1.0,0.0,1650849146378663.0
-2.0,0.0,12.0,14.0,11.0,12.0,4.0,-1.0,1650849146378663.0
8.0,-3.0,-13.0,-8.0,-4.0,-4.0,-2.0,-1.0,1650849146393650.0
-1.0,1.0,-4.0,-2.0,7.0,6.0,0.0,0.0,1650849146393650.0
-10.0,-2.0,-2.0,-6.0,-14.0,-28.0,-6.0,-3.0,1650849146395618.0
-1.0,2.0,12.0,8.0,3.0,1.0,-2.0,-1.0,1650849146395618.0
14.0,-6.0,-12.0,5.0,13.0,27.0,7.0,3.0,1650849146416589.0
2.0,1.0,5.0,-11.0,1.0,-8.0,1.0,2.0,1650849146416589.0
4.0,-7.0,-5.0,4.0,-12.0,-8.0,-2.0,-1.0,1650849146417562.0
-4.0,5.0,6.0,4.0,10.0,3.0,2.0,0.0,1650849146417562.0
5.0,-5.0,-6.0,-4.0,-7.0,-12.0,-4.0,-2.0,1650849146430551.0
-2.0,-3.0,-1.0,-9.0,-11.0,-10.0,-4.0,-2.0,1650849146430551.0
-2.0,2.0,-3.0,1.0,8.0,21.0,1.0,0.0,1650849146438541.0
-2.0,-1.0,-13.0,-6.0,-7.0,-8.0,-2.0,1.0,1650849146438541.0
1.0,0.0,14.0,-3.0,4.0,-6.0,-4.0,-1.0,1650849146453464.0
0.0,-4.0,-11.0,-2.0,-20.0,-4.0,0.0,-2.0,1650849146453464.0
1.0,8.0,10.0,9.0,6.0,10.0,-3.0,0.0,1650849146455458.0
0.0,14.0,20.0,14.0,14.0,19.0,10.0,2.0,1650849146455458.0
3.0,-5.0,-12.0,-5.0,-3.0,-10.0,-2.0,-3.0,1650849146476400.0
-1.0,0.0,4.0,-6.0,-5.0,-6.0,-3.0,0.0,1650849146476400.0
-1.0,-11.0,-30.0,-4.0,0.0,-10.0,-2.0,-1.0,1650849146477398.0
-3.0,3.0,-4.0,-10.0,-8.0,-7.0,-5.0,-4.0,1650849146477398.0
-1.0,-2.0,1.0,6.0,0.0,-1.0,0.0,0.0,1650849146490427.0
-1.0,-2.0,5.0,-1.0,0.0,2.0,3.0,1.0,1650849146490427.0
-4.0,-2.0,4.0,-13.0,-8.0,-12.0,-2.0,-3.0,1650849146497375.0
2.0,2.0,-4.0,7.0,4.0,18.0,0.0,1.0,1650849146497375.0
1.0,0.0,10.0,20.0,9.0,-10.0,1.0,-2.0,1650849146514736.0
-2.0,1.0,-1.0,-9.0,-2.0,22.0,1.0,0.0,1650849146514736.0
-4.0,-3.0,-5.0,1.0,3.0,-3.0,3.0,2.0,1650849146516731.0
-2.0,-2.0,-5.0,-8.0,-4.0,-9.0,-3.0,-3.0,1650849146516731.0
2.0,3.0,-5.0,-10.0,-10.0,-6.0,-4.0,0.0,1650849146535682.0
-2.0,-4.0,-4.0,3.0,-3.0,-25.0,-4.0,-2.0,1650849146535682.0
-3.0,6.0,2.0,0.0,-2.0,22.0,-1.0,-1.0,1650849146543659.0
-1.0,-16.0,4.0,-1.0,0.0,1.0,7.0,2.0,1650849146543659.0
-2.0,2.0,5.0,3.0,0.0,4.0,-1.0,0.0,1650849146550667.0
0.0,5.0,4.0,1.0,6.0,7.0,1.0,-1.0,1650849146550667.0
-3.0,-7.0,-12.0,-12.0,-4.0,-14.0,-3.0,-2.0,1650849146557688.0
-1.0,2.0,0.0,6.0,-8.0,-9.0,-3.0,0.0,1650849146557688.0
-1.0,-11.0,-9.0,-11.0,-13.0,1.0,-3.0,-2.0,1650849146573646.0
0.0,0.0,9.0,11.0,15.0,9.0,1.0,4.0,1650849146573646.0
1.0,2.0,3.0,0.0,2.0,-7.0,0.0,-2.0,1650849146575574.0
-2.0,-5.0,-3.0,0.0,1.0,9.0,-3.0,-2.0,1650849146575574.0
0.0,9.0,2.0,3.0,2.0,-13.0,1.0,-2.0,1650849146596527.0
0.0,-2.0,-6.0,-3.0,0.0,18.0,4.0,1.0,1650849146596527.0
-1.0,-2.0,-9.0,-20.0,-8.0,3.0,4.0,1.0,1650849146598513.0
1.0,-1.0,-6.0,-14.0,0.0,-8.0,-1.0,0.0,1650849146598513.0
1.0,16.0,64.0,45.0,2.0,-5.0,-5.0,-2.0,1650849146610480.0
-3.0,-4.0,-45.0,-5.0,2.0,-1.0,-2.0,-3.0,1650849146610480.0
0.0,-7.0,12.0,14.0,1.0,1.0,2.0,1.0,1650849146617461.0
-1.0,-4.0,-6.0,-7.0,1.0,-16.0,-3.0,-2.0,1650849146617461.0
0.0,-5.0,-21.0,-15.0,4.0,41.0,5.0,1.0,1650849146633447.0
-1.0,1.0,13.0,0.0,0.0,-5.0,1.0,-1.0,1650849146633447.0
0.0,8.0,-5.0,-1.0,5.0,2.0,2.0,2.0,1650849146635414.0
-6.0,-8.0,-4.0,-8.0,-8.0,-13.0,-5.0,-3.0,1650849146635414.0
