EMG_s0,EMG_s1,EMG_s2,EMG_s3,EMG_s4,EMG_s5,EMG_s6,EMG_s7,timestamp
4.0,9.0,-12.0,-30.0,8.0,1.0,-2.0,14.0,1650848915262696.0
-5.0,-12.0,0.0,-51.0,-12.0,-20.0,-4.0,-8.0,1650848915262696.0
-2.0,-5.0,-3.0,-3.0,2.0,1.0,-3.0,-5.0,1650848915268680.0
3.0,-1.0,-2.0,-10.0,1.0,24.0,10.0,2.0,1650848915268680.0
-3.0,-3.0,5.0,-16.0,15.0,17.0,1.0,-2.0,1650848915269680.0
2.0,2.0,3.0,4.0,-6.0,-10.0,-1.0,3.0,1650848915269680.0
-2.0,4.0,-6.0,-4.0,-5.0,-11.0,-3.0,3.0,1650848915270674.0
-1.0,3.0,1.0,-10.0,-6.0,-10.0,-3.0,0.0,1650848915270674.0
1.0,-2.0,1.0,4.0,-6.0,-4.0,0.0,-3.0,1650848915282643.0
3.0,8.0,-3.0,16.0,6.0,10.0,5.0,7.0,1650848915282643.0
4.0,2.0,3.0,-4.0,9.0,11.0,1.0,0.0,1650848915287672.0
-1.0,-2.0,0.0,-5.0,5.0,-6.0,-3.0,-2.0,1650848915287672.0
0.0,3.0,0.0,5.0,-7.0,-1.0,-1.0,-1.0,1650848915299695.0
1.0,0.0,0.0,-2.0,3.0,4.0,-2.0,-1.0,1650848915299695.0
0.0,-2.0,-1.0,-13.0,-5.0,-6.0,1.0,0.0,1650848915302675.0
0.0,-2.0,0.0,5.0,3.0,0.0,-5.0,-1.0,1650848915302675.0
-4.0,0.0,3.0,7.0,4.0,5.0,-1.0,-4.0,1650848915319629.0
6.0,2.0,-2.0,-9.0,-3.0,-4.0,1.0,6.0,1650848915319629.0
2.0,-1.0,0.0,1.0,5.0,20.0,0.0,0.0,1650848915334590.0
-2.0,0.0,-1.0,1.0,-5.0,-10.0,0.0,0.0,1650848915334590.0
-4.0,-2.0,-2.0,-4.0,-2.0,-13.0,0.0,1.0,1650848915335590.0
-3.0,0.0,0.0,8.0,2.0,7.0,-1.0,-3.0,1650848915335590.0
2.0,5.0,-4.0,-2.0,-7.0,-7.0,-4.0,1.0,1650848915381276.0
-5.0,-11.0,0.0,-22.0,-7.0,-11.0,0.0,-5.0,1650848915381276.0
-1.0,-1.0,-2.0,9.0,-2.0,-17.0,-5.0,-4.0,1650848915382272.0
0.0,4.0,-1.0,13.0,6.0,20.0,6.0,5.0,1650848915382272.0
-1.0,-2.0,-1.0,-16.0,0.0,-3.0,1.0,-2.0,1650848915382272.0
2.0,0.0,2.0,4.0,-1.0,-3.0,-1.0,4.0,1650848915382272.0
4.0,4.0,-1.0,12.0,5.0,7.0,-4.0,2.0,1650848915385264.0
-2.0,-4.0,-1.0,-13.0,-12.0,-10.0,0.0,-3.0,1650848915385264.0
-1.0,-3.0,2.0,4.0,9.0,0.0,3.0,1.0,1650848915393271.0
0.0,5.0,-3.0,13.0,1.0,-9.0,-4.0,-2.0,1650848915393271.0
-1.0,-1.0,-1.0,-7.0,3.0,23.0,2.0,-2.0,1650848915400226.0
0.0,-2.0,0.0,-9.0,-8.0,-9.0,1.0,-1.0,1650848915400226.0
-1.0,2.0,3.0,10.0,10.0,13.0,2.0,0.0,1650848915407234.0
4.0,3.0,-3.0,1.0,-8.0,-13.0,-3.0,0.0,1650848915407234.0
-3.0,-3.0,1.0,-12.0,-5.0,-10.0,-1.0,-4.0,1650848915423194.0
-3.0,-2.0,-2.0,-4.0,0.0,4.0,-5.0,-5.0,1650848915423194.0
-3.0,-1.0,-2.0,3.0,-7.0,-9.0,-3.0,-2.0,1650848915430177.0
-4.0,-2.0,-1.0,0.0,8.0,-1.0,2.0,2.0,1650848915430177.0
6.0,1.0,-2.0,-7.0,-5.0,12.0,3.0,4.0,1650848915454180.0
0.0,-2.0,-2.0,5.0,-1.0,-10.0,-4.0,-1.0,1650848915454180.0
-2.0,-1.0,2.0,2.0,1.0,3.0,-2.0,-3.0,1650848915455111.0
-1.0,0.0,-1.0,-1.0,0.0,5.0,-1.0,0.0,1650848915455111.0
-3.0,-4.0,-1.0,1.0,-2.0,-10.0,-3.0,-1.0,1650848915468078.0
1.0,0.0,-2.0,0.0,0.0,-5.0,-1.0,2.0,1650848915468078.0
1.0,-3.0,-1.0,-2.0,-2.0,3.0,-3.0,-4.0,1650848915469076.0
-1.0,0.0,0.0,-3.0,-7.0,-3.0,-7.0,-4.0,1650848915469076.0
0.0,-1.0,1.0,-1.0,-2.0,-9.0,2.0,-1.0,1650848915490929.0
3.0,1.0,5.0,2.0,11.0,26.0,7.0,8.0,1650848915490929.0
0.0,-1.0,-1.0,1.0,5.0,0.0,3.0,-1.0,1650848915491895.0
0.0,1.0,-2.0,-1.0,3.0,10.0,1.0,-1.0,1650848915491895.0
-3.0,0.0,3.0,-1.0,-3.0,-13.0,-3.0,-3.0,1650848915513836.0
-3.0,-4.0,-3.0,-3.0,-5.0,-8.0,-6.0,-6.0,1650848915513836.0
0.0,-2.0,0.0,2.0,-8.0,-5.0,-2.0,-1.0,1650848915514833.0
-3.0,-3.0,-1.0,0.0,-6.0,-16.0,1.0,1.0,1650848915514833.0
0.0,-2.0,-2.0,-4.0,2.0,23.0,4.0,-1.0,1650848915528825.0
0.0,1.0,3.0,5.0,7.0,-3.0,-2.0,-1.0,1650848915528825.0
1.0,-1.0,-2.0,-8.0,-6.0,4.0,2.0,4.0,1650848915529812.0
0.0,-3.0,-5.0,-5.0,0.0,-6.0,-2.0,-3.0,1650848915529812.0
2.0,2.0,6.0,11.0,6.0,14.0,8.0,2.0,1650848915550739.0
-7.0,1.0,-2.0,-13.0,-7.0,-9.0,-1.0,4.0,1650848915550739.0
-1.0,-3.0,-12.0,2.0,-2.0,-5.0,-2.0,-2.0,1650848915558716.0
3.0,-1.0,1.0,-2.0,-1.0,0.0,-2.0,-2.0,1650848915558716.0
-1.0,-1.0,-2.0,-1.0,-2.0,-5.0,-3.0,1.0,1650848915573676.0
2.0,0.0,1.0,-1.0,-2.0,-3.0,-1.0,-3.0,1650848915573676.0
0.0,1.0,2.0,-3.0,8.0,-2.0,-1.0,-1.0,1650848915574673.0
-4.0,1.0,0.0,-2.0,-17.0,-8.0,0.0,1.0,1650848915574673.0
6.0,1.0,-2.0,5.0,20.0,27.0,2.0,3.0,1650848915588769.0
2.0,-4.0,1.0,-5.0,-8.0,-4.0,1.0,-3.0,1650848915588769.0
-5.0,2.0,2.0,2.0,1.0,-7.0,-3.0,0.0,1650848915588769.0
0.0,0.0,7.0,1.0,0.0,-10.0,-2.0,-3.0,1650848915588769.0
12.0,4.0,5.0,-5.0,-1.0,8.0,-2.0,-3.0,1650848915610682.0
-36.0,-14.0,-7.0,-13.0,-7.0,-9.0,-2.0,-7.0,1650848915610682.0
-45.0,-10.0,-6.0,1.0,-10.0,-5.0,-2.0,4.0,1650848915611680.0
43.0,10.0,-6.0,10.0,6.0,12.0,4.0,1.0,1650848915611680.0
-4.0,-11.0,3.0,1.0,-7.0,-18.0,-6.0,-10.0,1650848915634511.0
6.0,2.0,16.0,1.0,1.0,0.0,-2.0,-2.0,1650848915634511.0
-1.0,0.0,-5.0,-4.0,6.0,-3.0,-1.0,1.0,1650848915634511.0
-14.0,0.0,7.0,-6.0,8.0,19.0,8.0,1.0,1650848915634511.0
-5.0,-9.0,-12.0,-8.0,-12.0,-16.0,-2.0,4.0,1650848915648505.0
18.0,10.0,0.0,4.0,8.0,10.0,2.0,-1.0,1650848915648505.0
5.0,-8.0,1.0,-6.0,-4.0,-11.0,-2.0,-3.0,1650848915649474.0
-5.0,2.0,-2.0,3.0,-3.0,2.0,-1.0,-2.0,1650848915649474.0
10.0,6.0,5.0,3.0,4.0,0.0,3.0,2.0,1650848915671419.0
-2.0,-6.0,-4.0,4.0,0.0,-15.0,-1.0,1.0,1650848915671419.0
11.0,6.0,1.0,0.0,-3.0,12.0,-1.0,-2.0,1650848915671419.0
2.0,-3.0,-5.0,-7.0,0.0,15.0,3.0,0.0,1650848915671419.0
-60.0,-7.0,-6.0,2.0,-10.0,-13.0,-1.0,-5.0,1650848915694376.0
19.0,6.0,11.0,11.0,1.0,-5.0,-1.0,3.0,1650848915694376.0
17.0,7.0,5.0,-4.0,9.0,10.0,3.0,1.0,1650848915694376.0
-11.0,-8.0,-7.0,-10.0,6.0,3.0,-2.0,0.0,1650848915694376.0
13.0,-2.0,-12.0,-25.0,-4.0,-5.0,-1.0,2.0,1650848915708353.0
10.0,9.0,-3.0,19.0,-7.0,-4.0,-2.0,2.0,1650848915708353.0
-5.0,-9.0,12.0,15.0,-6.0,-6.0,-2.0,-6.0,1650848915709336.0
3.0,6.0,4.0,-7.0,-4.0,-5.0,-1.0,4.0,1650848915709336.0
0.0,3.0,-8.0,-5.0,17.0,13.0,2.0,-1.0,1650848915731277.0
9.0,-2.0,-11.0,-10.0,5.0,8.0,0.0,2.0,1650848915731277.0
-2.0,-4.0,4.0,-3.0,-20.0,-15.0,-3.0,-5.0,1650848915731277.0
-8.0,-8.0,-11.0,7.0,4.0,1.0,-4.0,-3.0,1650848915731277.0
6.0,11.0,1.0,8.0,7.0,6.0,2.0,1.0,1650848915754218.0
-11.0,-11.0,-2.0,-16.0,-5.0,-3.0,-2.0,-2.0,1650848915754218.0
10.0,-5.0,3.0,4.0,-5.0,1.0,1.0,-1.0,1650848915755213.0
-4.0,10.0,3.0,14.0,-4.0,-31.0,-5.0,-4.0,1650848915755213.0
13.0,2.0,5.0,6.0,6.0,25.0,3.0,2.0,1650848915768178.0
-36.0,-5.0,-1.0,-3.0,1.0,5.0,3.0,-3.0,1650848915768178.0
5.0,1.0,-7.0,-3.0,0.0,-6.0,-2.0,3.0,1650848915776157.0
3.0,0.0,-2.0,-8.0,0.0,6.0,0.0,0.0,1650848915776157.0
1.0,-3.0,7.0,7.0,-8.0,-17.0,-4.0,-1.0,1650848915791120.0
6.0,0.0,-5.0,3.0,3.0,2.0,-2.0,1.0,1650848915791120.0
-1.0,6.0,-6.0,-17.0,-2.0,7.0,1.0,-1.0,1650848915792118.0
-9.0,-4.0,1.0,1.0,-3.0,2.0,0.0,-1.0,1650848915792118.0
4.0,-1.0,3.0,9.0,-2.0,-15.0,-2.0,1.0,1650848915814058.0
3.0,-19.0,-14.0,-11.0,2.0,13.0,-1.0,-2.0,1650848915814058.0
-1.0,25.0,8.0,7.0,0.0,-3.0,-1.0,-1.0,1650848915815055.0
12.0,-2.0,4.0,0.0,-3.0,9.0,1.0,4.0,1650848915815055.0
0.0,-1.0,-3.0,-7.0,1.0,-6.0,-2.0,0.0,1650848915837023.0
0.0,3.0,-5.0,5.0,-2.0,-3.0,1.0,0.0,1650848915837023.0
4.0,-8.0,-4.0,6.0,5.0,4.0,2.0,2.0,1650848915837023.0
-8.0,-10.0,-3.0,-11.0,-3.0,-5.0,-3.0,-5.0,1650848915837023.0
-2.0,3.0,3.0,11.0,-4.0,-10.0,-7.0,-3.0,1650848915850960.0
0.0,9.0,3.0,-5.0,-5.0,-4.0,0.0,0.0,1650848915850960.0
3.0,-6.0,-1.0,2.0,3.0,14.0,5.0,1.0,1650848915857968.0
2.0,9.0,7.0,-4.0,-3.0,-12.0,-3.0,0.0,1650848915857968.0
0.0,-11.0,-13.0,-2.0,-1.0,10.0,0.0,0.0,1650848915874937.0
3.0,-2.0,-3.0,-3.0,-3.0,-15.0,-2.0,-1.0,1650848915874937.0
2.0,5.0,-5.0,-5.0,-10.0,-4.0,-6.0,-1.0,1650848915874937.0
-16.0,-3.0,8.0,10.0,5.0,11.0,-4.0,-3.0,1650848915874937.0
2.0,-4.0,-1.0,-4.0,0.0,-4.0,3.0,-2.0,1650848915887947.0
4.0,3.0,4.0,4.0,-1.0,2.0,9.0,4.0,1650848915887947.0
2.0,-7.0,-3.0,-6.0,-3.0,-10.0,-7.0,-6.0,1650848915895889.0
2.0,-7.0,-8.0,2.0,2.0,4.0,1.0,3.0,1650848915895889.0
2.0,11.0,8.0,-5.0,4.0,10.0,1.0,2.0,1650848915910942.0
2.0,-6.0,-5.0,1.0,-4.0,-3.0,-7.0,-4.0,1650848915910942.0
-31.0,0.0,-1.0,1.0,7.0,3.0,4.0,1.0,1650848915911910.0
9.0,1.0,-1.0,2.0,1.0,2.0,-2.0,-10.0,1650848915911910.0
6.0,2.0,3.0,-2.0,-10.0,-12.0,3.0,12.0,1650848915941830.0
-1.0,3.0,1.0,-4.0,-6.0,-6.0,0.0,-4.0,1650848915941830.0
8.0,2.0,0.0,0.0,12.0,14.0,2.0,4.0,1650848915941830.0
-1.0,-8.0,4.0,1.0,-8.0,3.0,1.0,-3.0,1650848915941830.0
-6.0,-2.0,-5.0,2.0,5.0,-3.0,-5.0,-5.0,1650848915947814.0
1.0,3.0,-1.0,-3.0,-5.0,-10.0,-8.0,-7.0,1650848915947814.0
4.0,-10.0,-6.0,2.0,2.0,7.0,2.0,-1.0,1650848915955806.0
-17.0,6.0,3.0,2.0,4.0,7.0,-8.0,-5.0,1650848915955806.0
11.0,3.0,2.0,-1.0,-12.0,-2.0,13.0,-12.0,1650848915970820.0
10.0,25.0,7.0,2.0,3.0,-9.0,-4.0,24.0,1650848915970820.0
14.0,-10.0,1.0,-1.0,6.0,2.0,13.0,26.0,1650848915971750.0
-17.0,-4.0,-4.0,-5.0,3.0,-1.0,-1.0,-4.0,1650848915971750.0
17.0,-2.0,0.0,1.0,-9.0,-19.0,-14.0,-9.0,1650848915994904.0
8.0,-1.0,-1.0,0.0,4.0,35.0,4.0,-19.0,1650848915994904.0
-1.0,6.0,1.0,12.0,1.0,2.0,-8.0,-15.0,1650848915994904.0
26.0,-4.0,-4.0,-2.0,8.0,5.0,13.0,21.0,1650848915994904.0
5.0,11.0,6.0,-7.0,-2.0,-12.0,-12.0,-6.0,1650848916007868.0
12.0,-3.0,2.0,4.0,6.0,0.0,17.0,15.0,1650848916007868.0
20.0,1.0,-1.0,-7.0,-8.0,-6.0,-7.0,-1.0,1650848916015845.0
-1.0,0.0,-2.0,2.0,-4.0,-1.0,-1.0,-6.0,1650848916015845.0
-11.0,-10.0,-3.0,2.0,1.0,4.0,-8.0,-8.0,1650848916030778.0
30.0,5.0,0.0,3.0,-2.0,-4.0,-9.0,-11.0,1650848916030778.0
-2.0,2.0,3.0,-3.0,1.0,0.0,13.0,18.0,1650848916031775.0
0.0,7.0,0.0,0.0,0.0,-8.0,2.0,0.0,1650848916031775.0
14.0,-3.0,-2.0,2.0,-9.0,-1.0,-3.0,-4.0,1650848916053787.0
-61.0,-8.0,2.0,-1.0,18.0,22.0,0.0,11.0,1650848916053787.0
27.0,-2.0,-1.0,-1.0,-3.0,-10.0,-8.0,-22.0,1650848916054720.0
8.0,0.0,0.0,11.0,5.0,3.0,0.0,8.0,1650848916054720.0
-4.0,14.0,8.0,-7.0,-5.0,1.0,9.0,6.0,1650848916067679.0
-8.0,-16.0,-9.0,-1.0,-7.0,-12.0,-10.0,-10.0,1650848916067679.0
-6.0,-4.0,-1.0,0.0,-2.0,-7.0,-13.0,-2.0,1650848916075658.0
-1.0,1.0,-1.0,-4.0,1.0,3.0,14.0,2.0,1650848916075658.0
-16.0,0.0,-2.0,0.0,-4.0,-5.0,-7.0,-3.0,1650848916098816.0
-32.0,-10.0,1.0,-2.0,6.0,2.0,12.0,-3.0,1650848916098816.0
3.0,1.0,-3.0,-1.0,0.0,1.0,2.0,14.0,1650848916099803.0
13.0,1.0,2.0,-3.0,-6.0,-3.0,-9.0,-2.0,1650848916099803.0
-36.0,2.0,-3.0,-7.0,-1.0,5.0,-1.0,-4.0,1650848916113776.0
24.0,-8.0,0.0,1.0,-3.0,-10.0,-3.0,6.0,1650848916113776.0
-35.0,-3.0,-1.0,-4.0,-2.0,-4.0,7.0,2.0,1650848916120768.0
-10.0,-3.0,0.0,-3.0,-1.0,1.0,5.0,-2.0,1650848916120768.0
0.0,-17.0,-6.0,2.0,0.0,-5.0,8.0,4.0,1650848916136725.0
12.0,-2.0,0.0,4.0,3.0,17.0,-7.0,-2.0,1650848916136725.0
-11.0,1.0,0.0,-3.0,-4.0,-19.0,-6.0,-10.0,1650848916137717.0
-1.0,-3.0,-1.0,5.0,1.0,35.0,9.0,2.0,1650848916137717.0
5.0,-2.0,-2.0,-4.0,9.0,-11.0,-3.0,2.0,1650848916150656.0
-4.0,11.0,1.0,6.0,2.0,13.0,-1.0,-6.0,1650848916150656.0
-2.0,7.0,2.0,-4.0,1.0,-9.0,9.0,-6.0,1650848916151647.0
24.0,-2.0,-6.0,-4.0,-9.0,-15.0,-9.0,3.0,1650848916151647.0
-18.0,-6.0,-1.0,2.0,1.0,8.0,1.0,-5.0,1650848916174587.0
-12.0,-2.0,3.0,-4.0,-8.0,-9.0,-4.0,-5.0,1650848916174587.0
10.0,1.0,-5.0,2.0,-4.0,4.0,-8.0,-4.0,1650848916174587.0
9.0,0.0,-3.0,3.0,3.0,-7.0,-1.0,5.0,1650848916174587.0
-5.0,-10.0,-1.0,-2.0,1.0,5.0,6.0,9.0,1650848916196850.0
11.0,10.0,-1.0,-1.0,1.0,-7.0,3.0,6.0,1650848916196850.0
-5.0,-2.0,0.0,2.0,2.0,5.0,-3.0,-6.0,1650848916196850.0
-22.0,-6.0,-3.0,-3.0,0.0,-5.0,-3.0,-8.0,1650848916196850.0
17.0,-3.0,-1.0,-6.0,1.0,1.0,0.0,8.0,1650848916210843.0
8.0,6.0,3.0,0.0,-5.0,-5.0,-5.0,-11.0,1650848916210843.0
-7.0,3.0,0.0,5.0,-2.0,-1.0,5.0,-2.0,1650848916211810.0
-13.0,-7.0,1.0,-5.0,2.0,2.0,0.0,7.0,1650848916211810.0
-10.0,2.0,0.0,0.0,-3.0,3.0,-4.0,-10.0,1650848916233763.0
8.0,-9.0,-7.0,-2.0,-7.0,-19.0,-2.0,-1.0,1650848916233763.0
-5.0,-11.0,-2.0,-4.0,-1.0,-4.0,-8.0,-15.0,1650848916234749.0
5.0,9.0,7.0,-1.0,5.0,13.0,6.0,7.0,1650848916234749.0
29.0,4.0,2.0,4.0,-3.0,-1.0,0.0,0.0,1650848916256690.0
-38.0,-2.0,-4.0,0.0,14.0,11.0,2.0,-10.0,1650848916256690.0
10.0,3.0,0.0,-9.0,-9.0,-10.0,-12.0,0.0,1650848916257687.0
-1.0,-2.0,-2.0,-2.0,-7.0,-17.0,3.0,-1.0,1650848916257687.0
26.0,4.0,-1.0,7.0,-4.0,-4.0,-3.0,0.0,1650848916278659.0
15.0,2.0,9.0,2.0,-3.0,-1.0,-1.0,3.0,1650848916278659.0
-8.0,-4.0,-1.0,0.0,9.0,6.0,4.0,1.0,1650848916279629.0
-7.0,0.0,0.0,-3.0,2.0,-1.0,-5.0,-5.0,1650848916279629.0
-19.0,1.0,-1.0,-3.0,1.0,7.0,5.0,4.0,1650848916294166.0
8.0,-4.0,-5.0,-1.0,-6.0,-5.0,0.0,-2.0,1650848916294166.0
-9.0,-2.0,1.0,0.0,5.0,13.0,9.0,10.0,1650848916295163.0
10.0,13.0,2.0,-3.0,-8.0,-5.0,-5.0,-4.0,1650848916295163.0
-33.0,-19.0,-7.0,-3.0,0.0,-11.0,-3.0,-6.0,1650848916316109.0
-33.0,5.0,3.0,5.0,3.0,-2.0,-2.0,2.0,1650848916316109.0
23.0,-1.0,3.0,-4.0,-11.0,17.0,2.0,2.0,1650848916317089.0
-8.0,1.0,-2.0,5.0,19.0,7.0,1.0,-1.0,1650848916317089.0
-36.0,4.0,-2.0,-5.0,-4.0,0.0,2.0,2.0,1650848916331038.0
18.0,-4.0,-2.0,0.0,-2.0,-9.0,-9.0,0.0,1650848916331038.0
-2.0,2.0,-1.0,-5.0,-8.0,-8.0,2.0,1.0,1650848916332057.0
-7.0,-1.0,5.0,6.0,1.0,-1.0,-4.0,-4.0,1650848916332057.0
14.0,3.0,4.0,-1.0,2.0,1.0,-1.0,4.0,1650848916352988.0
16.0,-9.0,-2.0,-1.0,9.0,6.0,4.0,6.0,1650848916352988.0
-6.0,1.0,-3.0,1.0,-4.0,-4.0,-4.0,-5.0,1650848916361957.0
-4.0,-9.0,-4.0,-1.0,-6.0,-5.0,-4.0,-3.0,1650848916361957.0
5.0,-5.0,-3.0,-1.0,-2.0,-28.0,-10.0,-6.0,1650848916376943.0
0.0,7.0,1.0,-1.0,2.0,52.0,8.0,7.0,1650848916376943.0
11.0,-6.0,2.0,6.0,8.0,4.0,12.0,12.0,1650848916377915.0
21.0,5.0,4.0,4.0,-1.0,-10.0,-1.0,-4.0,1650848916377915.0
8.0,-1.0,1.0,-3.0,-1.0,1.0,-2.0,3.0,1650848916397890.0
-13.0,-3.0,-1.0,-2.0,-2.0,-14.0,-2.0,-7.0,1650848916397890.0
-5.0,-3.0,-3.0,-2.0,0.0,-3.0,-6.0,-6.0,1650848916407844.0
-19.0,-1.0,-1.0,2.0,-2.0,4.0,1.0,-2.0,1650848916407844.0
16.0,3.0,0.0,-9.0,-7.0,-2.0,0.0,6.0,1650848916412847.0
15.0,-1.0,-3.0,6.0,1.0,-9.0,-7.0,-6.0,1650848916412847.0
-14.0,4.0,-1.0,-3.0,0.0,-5.0,4.0,2.0,1650848916421796.0
0.0,0.0,4.0,0.0,-7.0,6.0,9.0,7.0,1650848916421796.0
0.0,-2.0,4.0,4.0,19.0,19.0,1.0,-13.0,1650848916436824.0
7.0,4.0,1.0,-1.0,-2.0,0.0,5.0,11.0,1650848916436824.0
-16.0,-1.0,-2.0,-5.0,-3.0,-6.0,-8.0,-5.0,1650848916437771.0
-8.0,-6.0,-8.0,-1.0,-13.0,-18.0,-5.0,-8.0,1650848916437771.0
3.0,-1.0,0.0,8.0,-4.0,6.0,7.0,11.0,1650848916458825.0
-2.0,-2.0,2.0,-4.0,-4.0,-1.0,-2.0,-1.0,1650848916458825.0
0.0,1.0,-1.0,0.0,4.0,-3.0,-1.0,-5.0,1650848916460790.0
9.0,0.0,-3.0,-10.0,-4.0,-4.0,-3.0,-6.0,1650848916460790.0
-6.0,1.0,0.0,1.0,-1.0,-1.0,-3.0,1.0,1650848916472796.0
-1.0,-4.0,-3.0,-5.0,-9.0,-22.0,-8.0,-10.0,1650848916472796.0
33.0,8.0,0.0,4.0,4.0,32.0,4.0,12.0,1650848916481753.0
8.0,-2.0,0.0,3.0,9.0,-3.0,-4.0,0.0,1650848916481753.0
3.0,1.0,-1.0,1.0,4.0,2.0,9.0,3.0,1650848916496693.0
9.0,-1.0,0.0,-6.0,-14.0,-9.0,3.0,7.0,1650848916496693.0
-2.0,-3.0,1.0,2.0,5.0,-3.0,-2.0,-6.0,1650848916497690.0
-13.0,-6.0,-4.0,-4.0,-1.0,5.0,-18.0,-14.0,1650848916497690.0
14.0,0.0,-4.0,-5.0,-12.0,-19.0,12.0,15.0,1650848916518639.0
11.0,-3.0,-1.0,-4.0,1.0,8.0,-2.0,-1.0,1650848916518639.0
-24.0,-3.0,3.0,3.0,1.0,-4.0,1.0,-5.0,1650848916520634.0
8.0,0.0,2.0,1.0,3.0,10.0,2.0,8.0,1650848916520634.0
-11.0,1.0,-3.0,3.0,4.0,4.0,-7.0,-11.0,1650848916532631.0
-9.0,-1.0,-4.0,0.0,-3.0,-2.0,5.0,3.0,1650848916532631.0
-9.0,-2.0,-4.0,-9.0,-7.0,-6.0,-4.0,-4.0,1650848916547557.0
27.0,-2.0,0.0,2.0,1.0,-2.0,3.0,6.0,1650848916547557.0
-10.0,2.0,0.0,0.0,-7.0,-6.0,-9.0,-14.0,1650848916556572.0
2.0,0.0,-2.0,-3.0,1.0,-2.0,10.0,13.0,1650848916556572.0
-10.0,1.0,4.0,4.0,11.0,17.0,-3.0,-3.0,1650848916558561.0
11.0,-2.0,0.0,3.0,-2.0,-5.0,3.0,0.0,1650848916558561.0
0.0,5.0,-1.0,-5.0,-1.0,7.0,-1.0,1.0,1650848916578604.0
-11.0,-1.0,-2.0,0.0,2.0,-6.0,-7.0,-9.0,1650848916578604.0
6.0,-4.0,-3.0,-1.0,-8.0,-18.0,-4.0,-6.0,1650848916580565.0
-20.0,-4.0,-1.0,-5.0,-5.0,-2.0,-3.0,-2.0,1650848916580565.0
11.0,0.0,2.0,-4.0,-3.0,16.0,6.0,3.0,1650848916592597.0
-3.0,1.0,2.0,-1.0,8.0,-1.0,4.0,3.0,1650848916592597.0
0.0,-5.0,-3.0,1.0,-2.0,-5.0,4.0,2.0,1650848916601509.0
-2.0,3.0,-2.0,-5.0,-3.0,-6.0,-1.0,-4.0,1650848916601509.0
10.0,0.0,-1.0,0.0,-5.0,-4.0,-17.0,-12.0,1650848916616469.0
-4.0,0.0,2.0,5.0,-2.0,-2.0,7.0,-2.0,1650848916616469.0
12.0,5.0,2.0,1.0,-1.0,-8.0,2.0,7.0,1650848916618466.0
-53.0,-7.0,0.0,-3.0,5.0,23.0,5.0,-5.0,1650848916618466.0
0.0,-4.0,-1.0,3.0,1.0,1.0,-2.0,2.0,1650848916639475.0
3.0,0.0,1.0,1.0,1.0,5.0,-12.0,-8.0,1650848916639475.0
-42.0,-6.0,-1.0,-13.0,-9.0,-10.0,5.0,-3.0,1650848916640405.0
3.0,12.0,-3.0,2.0,-5.0,-8.0,4.0,9.0,1650848916640405.0
2.0,-4.0,-1.0,-2.0,1.0,2.0,4.0,6.0,1650848916661352.0
-11.0,-1.0,-3.0,-2.0,2.0,1.0,-5.0,-6.0,1650848916661352.0
16.0,-3.0,3.0,6.0,-3.0,-9.0,-11.0,-1.0,1650848916663343.0
11.0,-2.0,-2.0,-2.0,0.0,-1.0,0.0,-7.0,1650848916663343.0
-4.0,2.0,-1.0,-3.0,8.0,15.0,16.0,16.0,1650848916676309.0
3.0,-1.0,-1.0,2.0,-10.0,-8.0,-5.0,-5.0,1650848916676309.0
-2.0,-3.0,-2.0,-3.0,9.0,9.0,-1.0,-1.0,1650848916678304.0
4.0,-1.0,-1.0,-1.0,-5.0,-8.0,-1.0,1.0,1650848916678304.0
-5.0,-4.0,-2.0,-3.0,2.0,-6.0,-3.0,-5.0,1650848916699247.0
2.0,1.0,1.0,0.0,-3.0,1.0,4.0,5.0,1650848916699247.0
5.0,1.0,-1.0,2.0,-9.0,-11.0,-1.0,-1.0,1650848916700245.0
8.0,0.0,1.0,5.0,14.0,25.0,7.0,3.0,1650848916700245.0
-10.0,-7.0,-2.0,1.0,7.0,10.0,-2.0,-8.0,1650848916721256.0
-17.0,8.0,7.0,0.0,-4.0,6.0,-5.0,-6.0,1650848916721256.0
6.0,-2.0,-10.0,-4.0,1.0,1.0,0.0,4.0,1650848916723184.0
10.0,1.0,0.0,-5.0,-5.0,-19.0,6.0,6.0,1650848916723184.0
1.0,-4.0,0.0,4.0,-4.0,-6.0,-5.0,-4.0,1650848916736152.0
10.0,5.0,2.0,4.0,9.0,5.0,2.0,-1.0,1650848916736152.0
1.0,-2.0,-1.0,-8.0,-8.0,-7.0,-5.0,-5.0,1650848916738144.0
-11.0,3.0,-1.0,2.0,8.0,2.0,-6.0,-5.0,1650848916738144.0
-1.0,1.0,2.0,3.0,2.0,5.0,4.0,6.0,1650848916759108.0
-3.0,-5.0,-6.0,-7.0,-12.0,-13.0,7.0,9.0,1650848916759108.0
1.0,4.0,-3.0,2.0,11.0,13.0,2.0,-3.0,1650848916761091.0
3.0,-7.0,-3.0,1.0,-3.0,2.0,0.0,0.0,1650848916761091.0
-3.0,1.0,0.0,0.0,-4.0,-4.0,-6.0,-4.0,1650848916781146.0
-1.0,-4.0,-4.0,-4.0,0.0,-4.0,-7.0,-8.0,1650848916781146.0
0.0,4.0,1.0,0.0,-4.0,-7.0,0.0,1.0,1650848916783141.0
-13.0,-5.0,-3.0,-4.0,-3.0,-2.0,-4.0,-4.0,1650848916783141.0
11.0,-1.0,-3.0,0.0,6.0,9.0,-2.0,2.0,1650848916796107.0
15.0,-5.0,-2.0,3.0,1.0,1.0,9.0,8.0,1650848916796107.0
-60.0,-1.0,2.0,-1.0,-2.0,-11.0,-2.0,-1.0,1650848916798101.0
7.0,4.0,3.0,-1.0,3.0,28.0,6.0,4.0,1650848916798101.0
0.0,-8.0,-3.0,-3.0,-5.0,-15.0,-6.0,-9.0,1650848916819045.0
3.0,-1.0,-2.0,-3.0,-1.0,-10.0,-3.0,1.0,1650848916819045.0
22.0,2.0,-2.0,1.0,-1.0,17.0,-2.0,-1.0,1650848916821040.0
-8.0,-3.0,-2.0,-3.0,-4.0,-19.0,-3.0,-4.0,1650848916821040.0
-9.0,2.0,-3.0,1.0,-1.0,0.0,2.0,2.0,1650848916841983.0
16.0,-2.0,2.0,-1.0,-3.0,0.0,-2.0,-2.0,1650848916841983.0
-25.0,-6.0,2.0,2.0,7.0,5.0,-2.0,-5.0,1650848916842994.0
0.0,4.0,1.0,-1.0,-3.0,-6.0,-9.0,-2.0,1650848916842994.0
3.0,2.0,1.0,-1.0,-1.0,4.0,6.0,1.0,1650848916856014.0
-3.0,0.0,-5.0,-9.0,-7.0,-18.0,-5.0,-3.0,1650848916856014.0
26.0,-3.0,-1.0,2.0,-5.0,6.0,6.0,7.0,1650848916862928.0
2.0,-4.0,-1.0,8.0,14.0,17.0,9.0,6.0,1650848916862928.0
-8.0,3.0,0.0,-6.0,-1.0,-11.0,-10.0,-2.0,1650848916879004.0
-12.0,-3.0,-1.0,-1.0,-4.0,4.0,-2.0,-4.0,1650848916879004.0
11.0,1.0,-2.0,0.0,-1.0,-6.0,-1.0,1.0,1650848916880972.0
-11.0,-2.0,-1.0,-4.0,-5.0,-5.0,-1.0,-2.0,1650848916880972.0
6.0,-2.0,1.0,1.0,1.0,0.0,1.0,-2.0,1650848916901916.0
27.0,1.0,-4.0,1.0,-10.0,-38.0,-8.0,-5.0,1650848916901916.0
-15.0,0.0,-2.0,5.0,19.0,76.0,10.0,1.0,1650848916902920.0
11.0,-6.0,-1.0,-3.0,-14.0,-23.0,0.0,1.0,1650848916902920.0
3.0,7.0,2.0,5.0,12.0,5.0,3.0,2.0,1650848916915905.0
0.0,1.0,-2.0,1.0,6.0,4.0,1.0,0.0,1650848916915905.0
12.0,2.0,-3.0,-1.0,-5.0,-27.0,-6.0,-4.0,1650848916922887.0
-6.0,-2.0,-3.0,-4.0,-1.0,-6.0,-5.0,-5.0,1650848916922887.0
-6.0,-3.0,0.0,-2.0,-10.0,4.0,1.0,0.0,1650848916937887.0
-17.0,-5.0,-1.0,3.0,6.0,2.0,-2.0,0.0,1650848916937887.0
10.0,-1.0,-2.0,-2.0,0.0,6.0,1.0,-2.0,1650848916946808.0
-2.0,8.0,6.0,2.0,6.0,4.0,1.0,4.0,1650848916946808.0
1.0,-1.0,-2.0,1.0,-3.0,-8.0,-2.0,0.0,1650848916961823.0
-4.0,3.0,-1.0,-5.0,1.0,7.0,3.0,0.0,1650848916961823.0
3.0,-7.0,-2.0,0.0,-12.0,-8.0,-5.0,-6.0,1650848916962753.0
6.0,-2.0,-4.0,5.0,6.0,3.0,7.0,8.0,1650848916962753.0
0.0,2.0,5.0,-2.0,5.0,-3.0,1.0,-2.0,1650848916976081.0
-8.0,-2.0,-1.0,-5.0,-2.0,4.0,1.0,2.0,1650848916976081.0
2.0,-2.0,1.0,1.0,2.0,-14.0,-7.0,-2.0,1650848916983751.0
-3.0,-1.0,-4.0,-4.0,-13.0,-20.0,-1.0,-4.0,1650848916983751.0
1.0,0.0,-1.0,0.0,12.0,41.0,4.0,0.0,1650848916998708.0
-6.0,1.0,-2.0,2.0,-2.0,6.0,1.0,2.0,1650848916998708.0
5.0,2.0,0.0,-1.0,1.0,-17.0,0.0,2.0,1650848917000676.0
-1.0,-2.0,0.0,-6.0,-9.0,-11.0,-8.0,-5.0,1650848917000676.0
-1.0,-3.0,-8.0,1.0,-5.0,-9.0,-1.0,-1.0,1650848917021621.0
-1.0,-4.0,-1.0,0.0,-4.0,4.0,0.0,-2.0,1650848917021621.0
3.0,12.0,2.0,1.0,1.0,-7.0,3.0,2.0,1650848917023640.0
-1.0,-5.0,-2.0,-5.0,6.0,8.0,-3.0,-3.0,1650848917023640.0
-2.0,4.0,0.0,-5.0,-13.0,-5.0,-1.0,-1.0,1650848917035583.0
-3.0,-1.0,1.0,6.0,11.0,18.0,1.0,1.0,1650848917035583.0
2.0,-9.0,-1.0,-3.0,4.0,-5.0,0.0,1.0,1650848917042632.0
-1.0,8.0,1.0,-1.0,-8.0,0.0,-2.0,-2.0,1650848917042632.0
0.0,-4.0,-4.0,1.0,-3.0,-14.0,-3.0,0.0,1650848917066626.0
-5.0,-2.0,-2.0,-5.0,-2.0,-2.0,-2.0,1.0,1650848917066626.0
1.0,0.0,2.0,2.0,-2.0,0.0,0.0,-1.0,1650848917068594.0
3.0,2.0,-4.0,1.0,-1.0,-9.0,-2.0,-2.0,1650848917068594.0
1.0,-5.0,-1.0,1.0,1.0,7.0,3.0,1.0,1650848917081558.0
-1.0,1.0,3.0,1.0,-3.0,8.0,-1.0,-3.0,1650848917081558.0
-1.0,-2.0,4.0,-1.0,6.0,13.0,5.0,1.0,1650848917083559.0
-2.0,-4.0,-2.0,-1.0,-2.0,-4.0,-3.0,-2.0,1650848917083559.0
1.0,1.0,-1.0,-4.0,-4.0,-6.0,-2.0,0.0,1650848917096546.0
-2.0,-2.0,-4.0,2.0,0.0,-10.0,-2.0,1.0,1650848917096546.0
0.0,0.0,0.0,-3.0,-2.0,-5.0,-2.0,0.0,1650848917102504.0
-1.0,3.0,1.0,-3.0,-7.0,5.0,-1.0,-2.0,1650848917102504.0
-1.0,-3.0,-1.0,2.0,-1.0,-21.0,-1.0,1.0,1650848917119458.0
-2.0,2.0,2.0,0.0,12.0,28.0,3.0,0.0,1650848917119458.0
2.0,-2.0,-2.0,-7.0,-8.0,-7.0,0.0,1.0,1650848917120455.0
0.0,-2.0,2.0,3.0,6.0,4.0,0.0,-1.0,1650848917120455.0
-2.0,-1.0,1.0,-2.0,-8.0,-10.0,-3.0,-2.0,1650848917141453.0
-2.0,-3.0,-3.0,0.0,-3.0,-10.0,-1.0,-3.0,1650848917141453.0
3.0,1.0,0.0,-2.0,-1.0,7.0,2.0,0.0,1650848917143394.0
0.0,-4.0,-2.0,1.0,2.0,3.0,-2.0,1.0,1650848917143394.0
-1.0,-1.0,0.0,-6.0,1.0,2.0,0.0,0.0,1650848917155447.0
0.0,-1.0,0.0,1.0,2.0,1.0,2.0,-1.0,1650848917155447.0
-2.0,-1.0,0.0,3.0,-6.0,-26.0,-7.0,-3.0,1650848917164425.0
0.0,-1.0,2.0,9.0,4.0,39.0,10.0,3.0,1650848917164425.0
-1.0,-1.0,4.0,-4.0,8.0,0.0,-3.0,-1.0,1650848917178556.0
-2.0,0.0,-7.0,-3.0,-5.0,0.0,-1.0,0.0,1650848917178556.0
-1.0,0.0,1.0,-6.0,-12.0,-23.0,-3.0,-1.0,1650848917180556.0
-1.0,-1.0,-2.0,-1.0,2.0,5.0,-3.0,1.0,1650848917180556.0
-2.0,-5.0,-4.0,0.0,3.0,3.0,1.0,0.0,1650848917201495.0
0.0,1.0,0.0,-1.0,-2.0,-2.0,1.0,0.0,1650848917201495.0
0.0,-1.0,-3.0,3.0,0.0,-6.0,-3.0,0.0,1650848917203491.0
-2.0,0.0,0.0,-4.0,3.0,3.0,-1.0,-1.0,1650848917203491.0
0.0,4.0,1.0,-1.0,-2.0,3.0,2.0,0.0,1650848917215458.0
0.0,-1.0,2.0,-3.0,-6.0,-8.0,-3.0,1.0,1650848917215458.0
0.0,-4.0,-5.0,-2.0,-2.0,7.0,0.0,-1.0,1650848917224434.0
-2.0,0.0,0.0,-2.0,-2.0,-11.0,-1.0,-1.0,1650848917224434.0
0.0,3.0,0.0,6.0,9.0,8.0,3.0,0.0,1650848917239397.0
0.0,-1.0,0.0,3.0,-1.0,-2.0,1.0,1.0,1650848917239397.0
-1.0,0.0,4.0,1.0,0.0,6.0,1.0,1.0,1650848917240405.0
-2.0,-1.0,1.0,-3.0,-5.0,-23.0,-5.0,-1.0,1650848917240405.0
0.0,0.0,-4.0,3.0,-12.0,12.0,0.0,0.0,1650848917261372.0
2.0,-1.0,0.0,-1.0,18.0,11.0,4.0,0.0,1650848917261372.0
0.0,0.0,-2.0,1.0,5.0,9.0,1.0,0.0,1650848917263354.0
2.0,0.0,-3.0,-2.0,-7.0,-9.0,0.0,-1.0,1650848917263354.0
-4.0,-3.0,0.0,-1.0,-6.0,-14.0,-6.0,-3.0,1650848917275324.0
-2.0,-2.0,-3.0,-1.0,-5.0,-4.0,-2.0,-1.0,1650848917275324.0
0.0,-1.0,-4.0,3.0,0.0,7.0,0.0,0.0,1650848917284298.0
0.0,-2.0,4.0,-3.0,6.0,-7.0,-2.0,-1.0,1650848917284298.0
0.0,0.0,-2.0,-4.0,-1.0,15.0,9.0,1.0,1650848917299257.0
-2.0,2.0,4.0,11.0,0.0,-5.0,-2.0,0.0,1650848917299257.0
0.0,-1.0,-3.0,-2.0,7.0,10.0,1.0,0.0,1650848917300267.0
-1.0,-1.0,-4.0,-4.0,-10.0,-20.0,-3.0,-3.0,1650848917300267.0
0.0,0.0,4.0,4.0,5.0,11.0,-2.0,0.0,1650848917321199.0
0.0,-2.0,-3.0,-9.0,0.0,-5.0,1.0,-1.0,1650848917321199.0
-2.0,-1.0,-1.0,-1.0,-5.0,-11.0,-2.0,-1.0,1650848917323194.0
-2.0,1.0,-2.0,1.0,8.0,20.0,3.0,0.0,1650848917323194.0
0.0,-3.0,-4.0,2.0,-8.0,-14.0,-3.0,-2.0,1650848917335161.0
0.0,0.0,-1.0,-1.0,3.0,4.0,0.0,-1.0,1650848917335161.0
1.0,1.0,3.0,-4.0,-5.0,-5.0,1.0,1.0,1650848917344137.0
1.0,-1.0,4.0,5.0,-2.0,-8.0,-4.0,-1.0,1650848917344137.0
-1.0,0.0,1.0,8.0,11.0,10.0,-1.0,1.0,1650848917359106.0
0.0,0.0,-2.0,-9.0,-16.0,-7.0,-2.0,0.0,1650848917359106.0
3.0,-1.0,-10.0,1.0,13.0,14.0,4.0,1.0,1650848917361093.0
1.0,-1.0,-3.0,-4.0,-5.0,-4.0,0.0,2.0,1650848917361093.0
-3.0,-2.0,1.0,-4.0,-3.0,-9.0,-4.0,-2.0,1650848917381148.0
-2.0,-1.0,8.0,7.0,-5.0,-5.0,-2.0,1.0,1650848917381148.0
-2.0,-1.0,-1.0,4.0,6.0,6.0,-1.0,1.0,1650848917383143.0
-2.0,2.0,-3.0,-7.0,-3.0,2.0,0.0,-1.0,1650848917383143.0
0.0,-5.0,0.0,-3.0,-1.0,-8.0,-3.0,-3.0,1650848917395111.0
-1.0,-2.0,-4.0,-2.0,1.0,4.0,1.0,1.0,1650848917395111.0
-1.0,3.0,-5.0,-6.0,-11.0,-26.0,-4.0,-2.0,1650848917404087.0
1.0,3.0,5.0,16.0,12.0,36.0,10.0,3.0,1650848917404087.0
-1.0,-1.0,2.0,-10.0,-7.0,-4.0,-1.0,-1.0,1650848917419046.0
0.0,-2.0,-4.0,4.0,9.0,-3.0,-3.0,-1.0,1650848917419046.0
-1.0,-4.0,-1.0,-10.0,-9.0,-3.0,2.0,-1.0,1650848917421043.0
2.0,0.0,-2.0,2.0,-3.0,-12.0,-4.0,-4.0,1650848917421043.0
1.0,2.0,1.0,2.0,4.0,0.0,0.0,3.0,1650848917441988.0
0.0,-2.0,-1.0,-5.0,-7.0,-8.0,-1.0,2.0,1650848917441988.0
-3.0,-2.0,1.0,2.0,-1.0,10.0,0.0,-2.0,1650848917442983.0
-2.0,-1.0,2.0,-3.0,2.0,8.0,-4.0,-2.0,1650848917442983.0
0.0,0.0,3.0,7.0,-4.0,-6.0,1.0,1.0,1650848917455626.0
0.0,2.0,5.0,2.0,7.0,6.0,2.0,-3.0,1650848917455626.0
-3.0,-3.0,-6.0,-6.0,-8.0,-7.0,-3.0,-1.0,1650848917464618.0
0.0,0.0,-4.0,-8.0,-12.0,-11.0,-2.0,-1.0,1650848917464618.0
1.0,1.0,0.0,-2.0,1.0,-1.0,-1.0,-2.0,1650848917478695.0
0.0,2.0,1.0,-3.0,1.0,0.0,0.0,-1.0,1650848917478695.0
-1.0,1.0,2.0,3.0,-4.0,0.0,-1.0,-1.0,1650848917480653.0
-2.0,-3.0,-4.0,3.0,12.0,10.0,3.0,-1.0,1650848917480653.0
-2.0,1.0,-4.0,-8.0,-10.0,-12.0,-3.0,-1.0,1650848917501597.0
-2.0,1.0,3.0,0.0,-2.0,1.0,-2.0,-3.0,1650848917501597.0
1.0,0.0,2.0,1.0,3.0,2.0,-3.0,-1.0,1650848917503591.0
1.0,0.0,-3.0,-9.0,-2.0,-14.0,-4.0,-1.0,1650848917503591.0
-1.0,-1.0,-4.0,5.0,0.0,1.0,3.0,0.0,1650848917515593.0
-2.0,-3.0,-1.0,-2.0,-13.0,3.0,-2.0,1.0,1650848917515593.0
2.0,-2.0,2.0,3.0,18.0,14.0,7.0,2.0,1650848917524569.0
-2.0,-4.0,2.0,-1.0,0.0,-16.0,-7.0,-2.0,1650848917524569.0
-1.0,1.0,-3.0,-1.0,-9.0,-6.0,-2.0,-1.0,1650848917539496.0
1.0,0.0,2.0,5.0,3.0,-1.0,2.0,-1.0,1650848917539496.0
0.0,0.0,0.0,-5.0,-8.0,-2.0,0.0,-1.0,1650848917540492.0
-1.0,1.0,-3.0,-1.0,15.0,7.0,4.0,0.0,1650848917540492.0
-1.0,-3.0,-2.0,5.0,-1.0,8.0,-1.0,0.0,1650848917561532.0
-2.0,-4.0,-3.0,-1.0,-6.0,-8.0,-1.0,-1.0,1650848917561532.0
2.0,4.0,8.0,8.0,4.0,-1.0,0.0,0.0,1650848917563533.0
0.0,-1.0,1.0,1.0,-1.0,5.0,0.0,0.0,1650848917563533.0
0.0,0.0,-4.0,-14.0,-5.0,-9.0,-5.0,-3.0,1650848917575621.0
-2.0,-4.0,-9.0,-5.0,4.0,1.0,-1.0,-1.0,1650848917575621.0
-7.0,-2.0,-6.0,4.0,-1.0,0.0,-2.0,-3.0,1650848917584634.0
6.0,1.0,-4.0,9.0,0.0,2.0,5.0,6.0,1650848917584634.0
2.0,0.0,6.0,-13.0,3.0,-1.0,1.0,3.0,1650848917598559.0
0.0,7.0,11.0,4.0,0.0,1.0,-3.0,-3.0,1650848917598559.0
-3.0,-5.0,0.0,-1.0,-1.0,-8.0,-3.0,-4.0,1650848917605600.0
-5.0,-2.0,0.0,1.0,-18.0,-3.0,-2.0,-5.0,1650848917605600.0
0.0,-1.0,-10.0,2.0,7.0,4.0,4.0,0.0,1650848917621563.0
0.0,-2.0,-7.0,-5.0,15.0,12.0,2.0,3.0,1650848917621563.0
-1.0,0.0,5.0,-3.0,-2.0,1.0,-1.0,-1.0,1650848917623556.0
-2.0,1.0,-1.0,5.0,-7.0,-5.0,-2.0,-1.0,1650848917623556.0
0.0,-1.0,0.0,1.0,2.0,2.0,2.0,-1.0,1650848917643503.0
-2.0,-1.0,-2.0,-8.0,-7.0,-10.0,-5.0,-5.0,1650848917643503.0
-1.0,0.0,-6.0,-9.0,-1.0,-6.0,-2.0,-3.0,1650848917645498.0
-1.0,-3.0,0.0,1.0,-4.0,-25.0,-8.0,-2.0,1650848917645498.0
-1.0,3.0,1.0,3.0,11.0,64.0,9.0,2.0,1650848917659473.0
-2.0,-4.0,1.0,12.0,2.0,-4.0,-1.0,-2.0,1650848917659473.0
4.0,-5.0,-2.0,-7.0,-1.0,2.0,1.0,2.0,1650848917660458.0
-3.0,-2.0,-7.0,-11.0,-7.0,-17.0,-3.0,-5.0,1650848917660458.0
-1.0,-2.0,-1.0,5.0,2.0,-17.0,-2.0,2.0,1650848917681476.0
-5.0,-6.0,-7.0,-5.0,-7.0,1.0,-6.0,-5.0,1650848917681476.0
1.0,-5.0,2.0,3.0,-4.0,3.0,0.0,1.0,1650848917683485.0
1.0,6.0,4.0,-2.0,-5.0,0.0,-5.0,-4.0,1650848917683485.0
-2.0,-8.0,1.0,1.0,-4.0,-7.0,1.0,-1.0,1650848917704426.0
-1.0,-3.0,-2.0,2.0,7.0,6.0,5.0,5.0,1650848917704426.0
-1.0,2.0,4.0,2.0,1.0,-8.0,-6.0,-4.0,1650848917705406.0
-3.0,0.0,0.0,3.0,-3.0,13.0,5.0,0.0,1650848917705406.0
-1.0,0.0,-7.0,-10.0,3.0,-10.0,-5.0,-4.0,1650848917719497.0
12.0,8.0,3.0,-2.0,-8.0,-7.0,0.0,4.0,1650848917719497.0
3.0,-6.0,-4.0,-5.0,4.0,3.0,-1.0,2.0,1650848917720486.0
6.0,5.0,1.0,-2.0,2.0,3.0,-1.0,-2.0,1650848917720486.0
-11.0,-6.0,7.0,7.0,-3.0,-7.0,-7.0,-6.0,1650848917741455.0
0.0,17.0,2.0,-7.0,-6.0,-3.0,1.0,2.0,1650848917741455.0
0.0,4.0,3.0,9.0,3.0,5.0,5.0,1.0,1650848917743448.0
-2.0,5.0,-2.0,11.0,1.0,8.0,4.0,-1.0,1650848917743448.0
-8.0,-41.0,-5.0,-3.0,-11.0,-37.0,-6.0,-5.0,1650848917764435.0
4.0,3.0,-3.0,1.0,15.0,37.0,10.0,3.0,1650848917764435.0
9.0,13.0,8.0,-4.0,-7.0,-3.0,1.0,5.0,1650848917765378.0
2.0,-10.0,-13.0,-19.0,2.0,2.0,1.0,3.0,1650848917765378.0
0.0,34.0,22.0,10.0,0.0,-10.0,-9.0,-9.0,1650848917786336.0
-19.0,-20.0,-2.0,19.0,-8.0,-29.0,-17.0,-20.0,1650848917786336.0
-14.0,-2.0,-9.0,-7.0,14.0,32.0,9.0,7.0,1650848917788303.0
36.0,6.0,-6.0,6.0,6.0,13.0,15.0,18.0,1650848917788303.0
8.0,-5.0,-3.0,0.0,4.0,-1.0,3.0,9.0,1650848917801335.0
-2.0,-6.0,24.0,2.0,1.0,-4.0,1.0,-2.0,1650848917801335.0
-16.0,-3.0,-7.0,1.0,-19.0,-17.0,-11.0,-14.0,1650848917803263.0
-18.0,-11.0,-4.0,-13.0,3.0,-15.0,-9.0,-10.0,1650848917803263.0
5.0,1.0,-9.0,7.0,4.0,24.0,3.0,4.0,1650848917824289.0
-1.0,8.0,1.0,-1.0,3.0,-2.0,-1.0,0.0,1650848917824289.0
-7.0,-28.0,-2.0,-4.0,-3.0,-7.0,-2.0,-3.0,1650848917825295.0
3.0,11.0,-4.0,-11.0,-6.0,4.0,3.0,5.0,1650848917825295.0
0.0,-1.0,4.0,8.0,-5.0,-9.0,0.0,-2.0,1650848917838255.0
1.0,0.0,-7.0,-11.0,-9.0,-10.0,-6.0,0.0,1650848917838255.0
4.0,7.0,-2.0,3.0,7.0,7.0,5.0,1.0,1650848917845263.0
-9.0,-7.0,5.0,10.0,-2.0,-13.0,-1.0,0.0,1650848917845263.0
12.0,17.0,-5.0,-2.0,3.0,21.0,3.0,4.0,1650848917861896.0
-5.0,-9.0,-7.0,-16.0,-3.0,-5.0,2.0,1.0,1650848917861896.0
-3.0,-19.0,-7.0,2.0,-3.0,12.0,-3.0,-4.0,1650848917862887.0
8.0,23.0,11.0,6.0,5.0,6.0,5.0,9.0,1650848917862887.0
-9.0,-16.0,-4.0,-5.0,4.0,-10.0,0.0,-1.0,1650848917883855.0
-8.0,2.0,-6.0,-4.0,-4.0,-4.0,-1.0,-4.0,1650848917883855.0
24.0,18.0,4.0,12.0,2.0,-5.0,-2.0,7.0,1650848917885842.0
-4.0,-6.0,10.0,3.0,-1.0,-2.0,-6.0,-8.0,1650848917885842.0
-4.0,-1.0,-2.0,-8.0,-6.0,-2.0,3.0,3.0,1650848917898786.0
12.0,4.0,-4.0,10.0,5.0,5.0,3.0,6.0,1650848917898786.0
-5.0,5.0,-1.0,-11.0,-2.0,-5.0,-2.0,-6.0,1650848917904779.0
-8.0,-6.0,0.0,3.0,0.0,4.0,0.0,-4.0,1650848917904779.0
4.0,4.0,2.0,-7.0,-2.0,-9.0,-3.0,-3.0,1650848917921749.0
-12.0,-8.0,-7.0,-2.0,-5.0,4.0,-4.0,-8.0,1650848917921749.0
7.0,6.0,-4.0,-1.0,3.0,6.0,4.0,5.0,1650848917922753.0
-1.0,-20.0,-3.0,-8.0,-7.0,-8.0,-6.0,-3.0,1650848917922753.0
5.0,7.0,7.0,10.0,5.0,0.0,0.0,1.0,1650848917943666.0
-1.0,-5.0,-6.0,-7.0,4.0,-1.0,0.0,0.0,1650848917943666.0
-2.0,2.0,-2.0,-2.0,-6.0,-4.0,0.0,-3.0,1650848917945661.0
-4.0,1.0,-3.0,4.0,2.0,2.0,-1.0,-3.0,1650848917945661.0
-5.0,0.0,-6.0,-8.0,-10.0,-7.0,1.0,-2.0,1650848917958916.0
4.0,-4.0,6.0,3.0,4.0,6.0,-1.0,0.0,1650848917958916.0
3.0,8.0,2.0,7.0,-5.0,-7.0,1.0,1.0,1650848917964928.0
-6.0,-2.0,0.0,-4.0,-2.0,8.0,3.0,1.0,1650848917964928.0
1.0,-2.0,-1.0,-1.0,0.0,-2.0,-3.0,-1.0,1650848917981855.0
9.0,6.0,5.0,3.0,-6.0,-13.0,1.0,6.0,1650848917981855.0
-4.0,-1.0,-4.0,-8.0,-1.0,-2.0,-3.0,-2.0,1650848917982853.0
-5.0,-15.0,3.0,3.0,2.0,24.0,4.0,0.0,1650848917982853.0
-2.0,2.0,-1.0,1.0,6.0,-1.0,-2.0,-5.0,1650848918003809.0
2.0,-1.0,-2.0,-6.0,-13.0,-10.0,-1.0,1.0,1650848918003809.0
-3.0,1.0,-2.0,-3.0,-2.0,-20.0,-3.0,2.0,1650848918005813.0
1.0,-4.0,3.0,-1.0,4.0,17.0,-1.0,0.0,1650848918005813.0
-1.0,3.0,-1.0,4.0,2.0,2.0,2.0,1.0,1650848918017787.0
0.0,-2.0,0.0,1.0,4.0,10.0,2.0,2.0,1650848918017787.0
-1.0,-4.0,2.0,-5.0,-16.0,-23.0,-5.0,-4.0,1650848918026735.0
0.0,6.0,-4.0,9.0,12.0,6.0,0.0,1.0,1650848918026735.0
-2.0,0.0,4.0,0.0,-2.0,0.0,2.0,1.0,1650848918041697.0
-1.0,-5.0,0.0,-2.0,0.0,4.0,2.0,0.0,1650848918041697.0
2.0,2.0,4.0,7.0,7.0,6.0,0.0,1.0,1650848918042693.0
1.0,6.0,2.0,2.0,-7.0,-12.0,-2.0,1.0,1650848918042693.0
-3.0,-11.0,-10.0,-7.0,-4.0,3.0,-1.0,1.0,1650848918063905.0
1.0,4.0,2.0,2.0,3.0,-3.0,0.0,0.0,1650848918063905.0
-2.0,-8.0,-2.0,-4.0,-1.0,3.0,-2.0,-4.0,1650848918065892.0
1.0,6.0,-2.0,5.0,5.0,-4.0,-1.0,-2.0,1650848918065892.0
2.0,-1.0,-2.0,-3.0,2.0,8.0,1.0,3.0,1650848918078604.0
-1.0,3.0,2.0,8.0,0.0,1.0,1.0,-2.0,1650848918078604.0
1.0,4.0,3.0,2.0,15.0,14.0,4.0,3.0,1650848918085585.0
-7.0,-4.0,-5.0,-9.0,-13.0,-19.0,-3.0,-3.0,1650848918085585.0
1.0,3.0,-3.0,3.0,1.0,-4.0,-6.0,-3.0,1650848918101582.0
-2.0,-2.0,-5.0,-5.0,-5.0,6.0,1.0,1.0,1650848918101582.0
-1.0,0.0,1.0,2.0,-5.0,-5.0,-1.0,-3.0,1650848918103597.0
4.0,1.0,4.0,-2.0,3.0,3.0,1.0,3.0,1650848918103597.0
1.0,4.0,1.0,3.0,5.0,1.0,0.0,-1.0,1650848918124544.0
-2.0,-3.0,-4.0,0.0,1.0,3.0,1.0,2.0,1650848918124544.0
-4.0,-3.0,-2.0,-8.0,-7.0,-2.0,-2.0,-2.0,1650848918125532.0
1.0,1.0,6.0,10.0,1.0,-4.0,0.0,0.0,1650848918125532.0
-2.0,-1.0,-7.0,-4.0,-3.0,-3.0,-3.0,-3.0,1650848918137486.0
0.0,0.0,2.0,0.0,-5.0,-9.0,-2.0,0.0,1650848918137486.0
0.0,-2.0,1.0,1.0,-1.0,10.0,2.0,0.0,1650848918146462.0
-1.0,0.0,-1.0,-2.0,11.0,6.0,0.0,0.0,1650848918146462.0
-1.0,-1.0,0.0,-2.0,-7.0,-4.0,0.0,-2.0,1650848918161443.0
1.0,2.0,-2.0,-1.0,1.0,-1.0,-1.0,0.0,1650848918161443.0
0.0,-2.0,-4.0,0.0,-6.0,-10.0,-1.0,-1.0,1650848918163438.0
-7.0,-4.0,-2.0,3.0,6.0,-7.0,-4.0,-1.0,1650848918163438.0
5.0,0.0,-3.0,-6.0,-4.0,22.0,8.0,1.0,1650848918183906.0
1.0,3.0,1.0,0.0,13.0,2.0,4.0,2.0,1650848918183906.0
-2.0,-1.0,2.0,-4.0,-16.0,-7.0,-6.0,-3.0,1650848918185892.0
1.0,-2.0,1.0,5.0,4.0,-12.0,1.0,2.0,1650848918185892.0
-4.0,3.0,0.0,-6.0,-9.0,-14.0,-5.0,-5.0,1650848918197873.0
0.0,-3.0,-4.0,-4.0,-7.0,-7.0,-1.0,-3.0,1650848918197873.0
-5.0,-2.0,-3.0,-4.0,7.0,14.0,-1.0,-1.0,1650848918213796.0
-5.0,1.0,0.0,-6.0,-11.0,-5.0,-6.0,-11.0,1650848918213796.0
4.0,-1.0,-2.0,2.0,-1.0,-1.0,3.0,7.0,1650848918221784.0
8.0,-3.0,0.0,0.0,5.0,8.0,7.0,9.0,1650848918221784.0
2.0,1.0,6.0,-1.0,2.0,-3.0,-1.0,1.0,1650848918222772.0
-3.0,0.0,0.0,1.0,-1.0,3.0,-2.0,-3.0,1650848918222772.0
-7.0,-5.0,2.0,2.0,-1.0,-4.0,-3.0,-6.0,1650848918243836.0
-2.0,2.0,-2.0,-4.0,-2.0,-6.0,-4.0,-4.0,1650848918243836.0
1.0,-5.0,-6.0,-1.0,-2.0,-10.0,0.0,2.0,1650848918245796.0
2.0,1.0,-2.0,0.0,4.0,24.0,5.0,2.0,1650848918245796.0
-3.0,-4.0,4.0,-5.0,-3.0,-11.0,-4.0,-2.0,1650848918257926.0
-1.0,-1.0,-1.0,1.0,-4.0,-8.0,-2.0,-3.0,1650848918257926.0
0.0,2.0,2.0,5.0,3.0,2.0,1.0,0.0,1650848918266905.0
-1.0,-1.0,-3.0,-4.0,-1.0,24.0,5.0,1.0,1650848918266905.0
1.0,3.0,2.0,-2.0,6.0,3.0,2.0,3.0,1650848918281892.0
1.0,-1.0,-4.0,-3.0,-7.0,-1.0,-2.0,-1.0,1650848918281892.0
-4.0,0.0,2.0,9.0,8.0,0.0,-1.0,-2.0,1650848918282867.0
2.0,-4.0,-4.0,-14.0,-10.0,-19.0,-5.0,-3.0,1650848918282867.0
-2.0,-6.0,-3.0,4.0,-6.0,-7.0,-2.0,-1.0,1650848918303805.0
-2.0,4.0,4.0,4.0,5.0,14.0,1.0,1.0,1650848918303805.0
0.0,0.0,-2.0,-4.0,5.0,-3.0,2.0,-1.0,1650848918305807.0
-2.0,-1.0,-3.0,-4.0,2.0,-1.0,0.0,0.0,1650848918305807.0
-1.0,-3.0,-2.0,0.0,-1.0,-1.0,-2.0,-2.0,1650848918317768.0
-3.0,-5.0,-1.0,-3.0,-11.0,-11.0,-2.0,-4.0,1650848918317768.0
-2.0,-3.0,0.0,2.0,3.0,10.0,3.0,0.0,1650848918326757.0
1.0,-3.0,-1.0,0.0,-4.0,2.0,2.0,2.0,1650848918326757.0
-1.0,2.0,1.0,0.0,1.0,-4.0,-2.0,0.0,1650848918341721.0
0.0,-3.0,-2.0,-2.0,-3.0,-12.0,-3.0,-1.0,1650848918341721.0
2.0,1.0,2.0,1.0,9.0,15.0,1.0,2.0,1650848918342717.0
-1.0,-2.0,-1.0,-3.0,-2.0,2.0,3.0,-2.0,1650848918342717.0
0.0,0.0,-1.0,0.0,-6.0,-15.0,-4.0,-2.0,1650848918363660.0
0.0,2.0,2.0,3.0,4.0,13.0,1.0,-1.0,1650848918363660.0
-1.0,-2.0,-4.0,-4.0,-7.0,-9.0,-3.0,-2.0,1650848918365655.0
0.0,-1.0,-1.0,-1.0,6.0,-4.0,-2.0,1.0,1650848918365655.0
0.0,-1.0,0.0,-2.0,-3.0,-1.0,1.0,-1.0,1650848918377650.0
-1.0,-1.0,2.0,3.0,4.0,-5.0,-2.0,-1.0,1650848918377650.0
0.0,-1.0,1.0,0.0,-4.0,-5.0,-2.0,-1.0,1650848918386599.0
-1.0,-3.0,0.0,3.0,0.0,-3.0,-1.0,-2.0,1650848918386599.0
2.0,1.0,0.0,5.0,15.0,13.0,3.0,3.0,1650848918401705.0
-2.0,1.0,-1.0,-5.0,-7.0,1.0,-2.0,-1.0,1650848918401705.0
1.0,-1.0,-1.0,-3.0,4.0,3.0,1.0,0.0,1650848918402696.0
0.0,-2.0,-2.0,-4.0,-12.0,-15.0,-3.0,0.0,1650848918402696.0
0.0,0.0,-5.0,3.0,-6.0,-7.0,-3.0,-1.0,1650848918423686.0
0.0,0.0,0.0,-2.0,3.0,-3.0,-1.0,-2.0,1650848918423686.0
0.0,0.0,0.0,-1.0,-1.0,20.0,3.0,-1.0,1650848918425615.0
-1.0,-1.0,-1.0,-2.0,-5.0,-10.0,-2.0,0.0,1650848918425615.0
0.0,-1.0,2.0,1.0,3.0,4.0,2.0,0.0,1650848918437609.0
0.0,-4.0,0.0,-5.0,-8.0,-23.0,-4.0,0.0,1650848918437609.0
-5.0,5.0,-16.0,1.0,1.0,28.0,2.0,-1.0,1650848918446681.0
2.0,1.0,6.0,1.0,8.0,3.0,-1.0,1.0,1650848918446681.0
-2.0,-1.0,0.0,-5.0,-5.0,-3.0,-1.0,-1.0,1650848918461642.0
0.0,-2.0,7.0,9.0,14.0,17.0,3.0,-2.0,1650848918461642.0
-2.0,-4.0,-15.0,-8.0,-9.0,-31.0,-5.0,-1.0,1650848918462638.0
-3.0,-2.0,-1.0,3.0,-11.0,9.0,1.0,2.0,1650848918462638.0
-3.0,1.0,0.0,0.0,14.0,5.0,1.0,-2.0,1650848918482730.0
0.0,0.0,0.0,-1.0,-3.0,-7.0,0.0,1.0,1650848918482730.0
-2.0,-4.0,6.0,2.0,5.0,-1.0,-1.0,0.0,1650848918499761.0
-2.0,-3.0,-8.0,-8.0,-17.0,-3.0,0.0,-2.0,1650848918499761.0
2.0,0.0,1.0,3.0,5.0,-4.0,1.0,0.0,1650848918500758.0
0.0,-4.0,-4.0,2.0,6.0,3.0,0.0,1.0,1650848918500758.0
0.0,-1.0,5.0,0.0,4.0,14.0,4.0,-1.0,1650848918506746.0
-1.0,-7.0,-5.0,-4.0,2.0,-17.0,-6.0,-2.0,1650848918506746.0
-2.0,3.0,-4.0,1.0,-11.0,14.0,-1.0,-2.0,1650848918521702.0
0.0,1.0,4.0,-4.0,-6.0,0.0,1.0,-1.0,1650848918521702.0
-1.0,-4.0,-6.0,-6.0,-9.0,-32.0,-7.0,0.0,1650848918522700.0
0.0,7.0,6.0,8.0,10.0,24.0,1.0,-1.0,1650848918522700.0
0.0,-2.0,-3.0,-3.0,-3.0,-6.0,-1.0,0.0,1650848918544504.0
0.0,1.0,-4.0,-1.0,6.0,-5.0,-1.0,0.0,1650848918544504.0
1.0,2.0,6.0,0.0,-7.0,10.0,0.0,1.0,1650848918545685.0
0.0,0.0,-5.0,-9.0,-5.0,-14.0,-3.0,-3.0,1650848918545685.0
-2.0,-2.0,3.0,4.0,1.0,1.0,-1.0,-2.0,1650848918566654.0
-1.0,1.0,-7.0,-3.0,-1.0,7.0,1.0,0.0,1650848918566654.0
-1.0,-3.0,5.0,4.0,1.0,-9.0,-1.0,0.0,1650848918568631.0
0.0,7.0,6.0,4.0,5.0,-2.0,1.0,2.0,1650848918568631.0
0.0,-9.0,-8.0,-10.0,-5.0,2.0,-1.0,1.0,1650848918581588.0
-1.0,9.0,6.0,3.0,-2.0,0.0,0.0,-1.0,1650848918581588.0
4.0,-8.0,2.0,2.0,3.0,-2.0,-1.0,0.0,1650848918583583.0
-2.0,8.0,-5.0,-5.0,2.0,8.0,0.0,-1.0,1650848918583583.0
-1.0,-10.0,11.0,3.0,0.0,-5.0,0.0,1.0,1650848918604527.0
0.0,7.0,1.0,4.0,1.0,2.0,-1.0,0.0,1650848918604527.0
-2.0,-2.0,1.0,-7.0,-1.0,-7.0,-1.0,-3.0,1650848918605525.0
-2.0,-8.0,-14.0,2.0,-1.0,4.0,2.0,0.0,1650848918605525.0
0.0,4.0,-8.0,-3.0,-2.0,-11.0,-1.0,-1.0,1650848918626549.0
1.0,0.0,0.0,-1.0,17.0,40.0,5.0,2.0,1650848918626549.0
-2.0,-5.0,10.0,-5.0,-12.0,-14.0,-1.0,-2.0,1650848918628559.0
-2.0,-8.0,-14.0,-2.0,-6.0,-19.0,-5.0,-1.0,1650848918628559.0
0.0,5.0,3.0,1.0,5.0,15.0,5.0,0.0,1650848918641520.0
-1.0,-10.0,-16.0,-6.0,-13.0,-21.0,-2.0,-2.0,1650848918641520.0
1.0,1.0,4.0,11.0,18.0,12.0,-1.0,2.0,1650848918643533.0
2.0,6.0,20.0,-4.0,2.0,15.0,4.0,3.0,1650848918643533.0
-4.0,-8.0,-12.0,-2.0,-8.0,-12.0,-8.0,-5.0,1650848918664449.0
2.0,2.0,12.0,6.0,-5.0,0.0,2.0,3.0,1650848918664449.0
0.0,0.0,-11.0,-4.0,-3.0,-9.0,1.0,-1.0,1650848918665448.0
1.0,10.0,7.0,3.0,-1.0,-8.0,-3.0,-1.0,1650848918665448.0
2.0,5.0,13.0,-3.0,3.0,8.0,0.0,1.0,1650848918686391.0
-3.0,-5.0,-7.0,-1.0,-1.0,-3.0,1.0,-1.0,1650848918686391.0
-4.0,-6.0,-10.0,-2.0,-3.0,1.0,-1.0,-1.0,1650848918688386.0
0.0,-7.0,-2.0,0.0,2.0,1.0,1.0,-2.0,1650848918688386.0
3.0,8.0,3.0,-2.0,-7.0,-7.0,-2.0,1.0,1650848918700353.0
-2.0,-3.0,-6.0,0.0,-4.0,-1.0,-4.0,-1.0,1650848918700353.0
-2.0,4.0,3.0,-5.0,5.0,12.0,3.0,1.0,1650848918707336.0
-2.0,-6.0,2.0,0.0,2.0,-4.0,2.0,-2.0,1650848918707336.0
-2.0,-3.0,-6.0,-3.0,-4.0,-5.0,0.0,-1.0,1650848918724504.0
-1.0,-5.0,-6.0,1.0,-5.0,-9.0,-2.0,-1.0,1650848918724504.0
2.0,7.0,8.0,12.0,1.0,-2.0,1.0,0.0,1650848918725362.0
-1.0,-2.0,-9.0,-10.0,-1.0,-13.0,-6.0,-2.0,1650848918725362.0
1.0,3.0,6.0,1.0,5.0,27.0,11.0,3.0,1650848918746335.0
1.0,-4.0,-2.0,2.0,4.0,6.0,-2.0,-2.0,1650848918746335.0
0.0,-3.0,-6.0,-3.0,-11.0,-13.0,-2.0,-1.0,1650848918748323.0
0.0,1.0,4.0,2.0,10.0,3.0,-1.0,2.0,1650848918748323.0
2.0,2.0,-2.0,-6.0,-2.0,-9.0,-2.0,0.0,1650848918761269.0
-2.0,0.0,6.0,2.0,-4.0,-4.0,-1.0,-2.0,1650848918761269.0
0.0,3.0,3.0,9.0,5.0,3.0,2.0,0.0,1650848918767279.0
-3.0,-2.0,-3.0,-4.0,-9.0,-5.0,0.0,-2.0,1650848918767279.0
-4.0,-4.0,-7.0,-8.0,-11.0,-27.0,-16.0,-13.0,1650848918783906.0
-1.0,2.0,2.0,5.0,19.0,45.0,11.0,5.0,1650848918783906.0
8.0,4.0,1.0,-9.0,-7.0,-14.0,16.0,21.0,1650848918785894.0
2.0,-4.0,1.0,-2.0,-8.0,-4.0,1.0,4.0,1650848918785894.0
-1.0,-1.0,1.0,11.0,12.0,7.0,3.0,4.0,1650848918806972.0
-5.0,-2.0,-1.0,-8.0,-1.0,-11.0,-12.0,-11.0,1650848918806972.0
-4.0,2.0,3.0,3.0,-9.0,-1.0,-15.0,-15.0,1650848918807961.0
2.0,4.0,4.0,8.0,2.0,5.0,3.0,-1.0,1650848918807961.0
0.0,1.0,-1.0,2.0,1.0,-11.0,4.0,7.0,1650848918820926.0
0.0,-2.0,2.0,-2.0,-3.0,-4.0,-4.0,-5.0,1650848918820926.0
-1.0,-7.0,-6.0,-13.0,4.0,11.0,4.0,2.0,1650848918827936.0
-2.0,3.0,1.0,7.0,-8.0,-6.0,-1.0,3.0,1650848918827936.0
-2.0,-7.0,-4.0,7.0,3.0,-1.0,-2.0,-5.0,1650848918843932.0
8.0,3.0,1.0,-8.0,-3.0,-3.0,4.0,9.0,1650848918843932.0
0.0,-3.0,-4.0,4.0,0.0,9.0,-8.0,-15.0,1650848918845860.0
15.0,5.0,-2.0,-2.0,-4.0,-9.0,-2.0,-3.0,1650848918845860.0
-30.0,0.0,3.0,-1.0,5.0,8.0,1.0,11.0,1650848918866988.0
3.0,-7.0,-4.0,-5.0,-3.0,-19.0,7.0,15.0,1650848918866988.0
-7.0,-6.0,0.0,3.0,1.0,18.0,-3.0,-7.0,1650848918867953.0
27.0,4.0,-2.0,-3.0,0.0,-2.0,5.0,-4.0,1650848918867953.0
2.0,-1.0,-3.0,0.0,-5.0,0.0,-12.0,-29.0,1650848918879920.0
-6.0,-9.0,1.0,3.0,-2.0,-6.0,3.0,23.0,1650848918879920.0
19.0,19.0,13.0,3.0,1.0,-1.0,4.0,15.0,1650848918888897.0
0.0,-3.0,-5.0,-3.0,-2.0,2.0,-5.0,-5.0,1650848918888897.0
24.0,5.0,-2.0,4.0,-4.0,6.0,6.0,-1.0,1650848918904105.0
-26.0,-8.0,0.0,-1.0,-1.0,-3.0,-8.0,-2.0,1650848918904105.0
13.0,-6.0,1.0,-2.0,4.0,-5.0,0.0,-4.0,1650848918906110.0
-11.0,4.0,6.0,6.0,6.0,-2.0,-1.0,4.0,1650848918906110.0
-3.0,-9.0,-8.0,-10.0,-13.0,4.0,4.0,2.0,1650848918927111.0
18.0,10.0,0.0,3.0,-4.0,-6.0,-6.0,-16.0,1650848918927111.0
3.0,-3.0,-7.0,-2.0,4.0,7.0,4.0,6.0,1650848918929047.0
6.0,-3.0,5.0,5.0,5.0,1.0,-2.0,3.0,1650848918929047.0
-18.0,0.0,2.0,-2.0,-11.0,-38.0,-16.0,-13.0,1650848918941007.0
15.0,7.0,3.0,5.0,13.0,53.0,21.0,0.0,1650848918941007.0
-55.0,-6.0,-4.0,-10.0,-10.0,-18.0,-4.0,4.0,1650848918947988.0
-10.0,-19.0,0.0,-3.0,8.0,7.0,8.0,9.0,1650848918947988.0
-4.0,1.0,2.0,-2.0,2.0,2.0,-6.0,-7.0,1650848918963973.0
4.0,5.0,-3.0,2.0,-5.0,-15.0,0.0,-3.0,1650848918963973.0
6.0,9.0,0.0,-1.0,-5.0,-7.0,-2.0,1.0,1650848918965968.0
-9.0,-9.0,-5.0,0.0,0.0,4.0,-8.0,-9.0,1650848918965968.0
-1.0,-2.0,-1.0,-3.0,8.0,8.0,4.0,3.0,1650848918986991.0
-3.0,-7.0,0.0,-1.0,-14.0,-5.0,-9.0,-9.0,1650848918986991.0
10.0,-2.0,-7.0,2.0,15.0,7.0,2.0,10.0,1650848918987963.0
13.0,16.0,4.0,-2.0,-6.0,-3.0,5.0,10.0,1650848918987963.0
-26.0,-14.0,10.0,-4.0,5.0,7.0,4.0,2.0,1650848919008914.0
-30.0,-9.0,-11.0,1.0,3.0,-5.0,2.0,-4.0,1650848919008914.0
9.0,-6.0,1.0,-1.0,-9.0,-4.0,1.0,-6.0,1650848919010842.0
-41.0,3.0,-3.0,1.0,6.0,4.0,-9.0,-6.0,1650848919010842.0
34.0,-5.0,-4.0,1.0,1.0,1.0,-1.0,1.0,1650848919023828.0
-13.0,-4.0,1.0,-6.0,-1.0,-17.0,-1.0,-2.0,1650848919023828.0
-13.0,1.0,-1.0,-2.0,4.0,27.0,11.0,-2.0,1650848919025802.0
18.0,5.0,-1.0,-4.0,-5.0,-3.0,-13.0,-10.0,1650848919025802.0
-72.0,-1.0,2.0,8.0,-4.0,-9.0,6.0,-4.0,1650848919046892.0
9.0,6.0,2.0,-1.0,8.0,4.0,4.0,7.0,1650848919046892.0
23.0,0.0,-3.0,-3.0,0.0,-3.0,-3.0,4.0,1650848919047863.0
4.0,-14.0,-5.0,0.0,3.0,16.0,1.0,-14.0,1650848919047863.0
61.0,18.0,-5.0,-1.0,-10.0,-6.0,-4.0,20.0,1650848919059897.0
-2.0,18.0,14.0,6.0,-3.0,-8.0,-9.0,-35.0,1650848919059897.0
8.0,0.0,-5.0,5.0,1.0,-9.0,0.0,7.0,1650848919068821.0
3.0,-5.0,-2.0,-6.0,7.0,8.0,3.0,7.0,1650848919068821.0
18.0,-8.0,-5.0,-4.0,-8.0,-6.0,-1.0,-3.0,1650848919084790.0
-22.0,1.0,0.0,4.0,9.0,8.0,-3.0,1.0,1650848919084790.0
27.0,1.0,0.0,4.0,-7.0,-5.0,-3.0,-9.0,1650848919089751.0
5.0,-8.0,-1.0,-6.0,-13.0,-18.0,-8.0,-4.0,1650848919089751.0
33.0,6.0,-3.0,1.0,4.0,8.0,16.0,18.0,1650848919106063.0
-19.0,-11.0,-2.0,-10.0,-5.0,-24.0,-8.0,-7.0,1650848919106063.0
35.0,8.0,-2.0,-1.0,3.0,28.0,-14.0,-5.0,1650848919108059.0
-34.0,-6.0,-1.0,4.0,6.0,4.0,12.0,-15.0,1650848919108059.0
-4.0,7.0,5.0,-3.0,2.0,-2.0,9.0,32.0,1650848919120054.0
31.0,2.0,0.0,-3.0,-6.0,-4.0,2.0,-3.0,1650848919120054.0
-7.0,-10.0,-4.0,-4.0,-11.0,-31.0,-13.0,-11.0,1650848919129002.0
-4.0,13.0,1.0,5.0,-2.0,6.0,-3.0,2.0,1650848919129002.0
-23.0,-19.0,0.0,-3.0,7.0,15.0,-8.0,-15.0,1650848919144060.0
11.0,-2.0,-1.0,0.0,-5.0,8.0,3.0,8.0,1650848919144060.0
25.0,11.0,2.0,6.0,14.0,2.0,7.0,4.0,1650848919146078.0
14.0,-1.0,2.0,2.0,-10.0,-6.0,2.0,4.0,1650848919146078.0
-2.0,-12.0,-2.0,0.0,-4.0,-9.0,-4.0,-10.0,1650848919166003.0
-13.0,-2.0,-4.0,-1.0,0.0,0.0,-4.0,-4.0,1650848919166003.0
8.0,5.0,1.0,-3.0,-7.0,-1.0,3.0,7.0,1650848919172986.0
32.0,3.0,2.0,-4.0,7.0,-1.0,0.0,2.0,1650848919172986.0
-59.0,-12.0,-3.0,2.0,-2.0,-1.0,-7.0,-9.0,1650848919179995.0
-52.0,-9.0,-3.0,-5.0,-1.0,6.0,-8.0,-11.0,1650848919179995.0
-7.0,7.0,4.0,3.0,0.0,-4.0,6.0,0.0,1650848919188959.0
2.0,0.0,2.0,-6.0,-2.0,-3.0,1.0,5.0,1650848919188959.0
-3.0,2.0,-1.0,-1.0,-1.0,5.0,4.0,22.0,1650848919204927.0
14.0,1.0,-3.0,2.0,3.0,4.0,-2.0,4.0,1650848919204927.0
-39.0,-16.0,-1.0,-11.0,-6.0,-9.0,-6.0,-2.0,1650848919205903.0
39.0,11.0,2.0,10.0,-4.0,0.0,-2.0,2.0,1650848919205903.0
-46.0,10.0,2.0,0.0,0.0,1.0,-1.0,-16.0,1650848919226907.0
41.0,5.0,-2.0,4.0,-2.0,-18.0,-1.0,5.0,1650848919226907.0
-8.0,0.0,-2.0,3.0,23.0,43.0,9.0,9.0,1650848919227907.0
-12.0,-15.0,-5.0,-4.0,-5.0,-20.0,3.0,1.0,1650848919227907.0
24.0,3.0,-3.0,-5.0,-15.0,12.0,-6.0,-6.0,1650848919239874.0
-1.0,0.0,-5.0,-7.0,17.0,-2.0,6.0,4.0,1650848919239874.0
-6.0,8.0,9.0,4.0,-8.0,-10.0,-2.0,-5.0,1650848919248880.0
-26.0,-6.0,2.0,-3.0,-2.0,-8.0,-5.0,-3.0,1650848919248880.0
27.0,5.0,1.0,3.0,4.0,3.0,3.0,3.0,1650848919264453.0
51.0,1.0,-2.0,3.0,-12.0,6.0,-3.0,-2.0,1650848919264453.0
-16.0,-8.0,-4.0,-2.0,-3.0,-12.0,-4.0,-8.0,1650848919265906.0
-34.0,-1.0,-7.0,-8.0,6.0,11.0,3.0,2.0,1650848919265906.0
32.0,5.0,2.0,6.0,3.0,-7.0,2.0,6.0,1650848919286849.0
11.0,0.0,4.0,3.0,-3.0,0.0,-2.0,3.0,1650848919286849.0
-1.0,-1.0,-4.0,-4.0,-3.0,0.0,0.0,-1.0,1650848919288844.0
-20.0,-3.0,-2.0,0.0,-8.0,-9.0,-2.0,-7.0,1650848919288844.0
-1.0,4.0,-3.0,6.0,2.0,-20.0,-7.0,-21.0,1650848919299843.0
-3.0,8.0,7.0,-5.0,6.0,38.0,9.0,20.0,1650848919299843.0
-4.0,-7.0,2.0,0.0,-3.0,-15.0,8.0,-3.0,1650848919308860.0
15.0,1.0,-6.0,3.0,9.0,5.0,-2.0,4.0,1650848919308860.0
-38.0,2.0,4.0,-2.0,3.0,3.0,5.0,-12.0,1650848919323754.0
-13.0,-6.0,-8.0,-19.0,-8.0,-13.0,-13.0,1.0,1650848919323754.0
-41.0,-7.0,-7.0,-4.0,-7.0,-8.0,-3.0,-9.0,1650848919325746.0
47.0,2.0,10.0,14.0,-2.0,5.0,2.0,1.0,1650848919325746.0
47.0,0.0,1.0,-2.0,3.0,3.0,-2.0,4.0,1650848919346860.0
-25.0,0.0,3.0,-2.0,-4.0,-7.0,2.0,4.0,1650848919346860.0
9.0,3.0,-5.0,-5.0,-2.0,4.0,1.0,-3.0,1650848919347858.0
-36.0,-2.0,1.0,-3.0,0.0,-2.0,0.0,-2.0,1650848919347858.0
6.0,3.0,7.0,3.0,1.0,8.0,0.0,1.0,1650848919359890.0
18.0,-1.0,-1.0,6.0,10.0,3.0,2.0,-8.0,1650848919359890.0
17.0,-6.0,-5.0,-6.0,-5.0,-3.0,-2.0,18.0,1650848919368819.0
10.0,4.0,-3.0,-6.0,2.0,-1.0,0.0,0.0,1650848919368819.0
-10.0,1.0,5.0,3.0,-5.0,-11.0,-5.0,-7.0,1650848919383790.0
33.0,0.0,-11.0,6.0,-6.0,6.0,-2.0,2.0,1650848919383790.0
-64.0,-5.0,1.0,-4.0,-13.0,-16.0,-1.0,-6.0,1650848919385777.0
-15.0,5.0,-2.0,-2.0,23.0,34.0,4.0,-3.0,1650848919385777.0
15.0,4.0,-3.0,-8.0,-6.0,-16.0,-1.0,11.0,1650848919406749.0
-30.0,-10.0,2.0,3.0,6.0,16.0,3.0,-8.0,1650848919406749.0
-37.0,-2.0,4.0,-7.0,-7.0,-10.0,-7.0,-10.0,1650848919408745.0
19.0,-5.0,-3.0,3.0,-15.0,-9.0,1.0,10.0,1650848919408745.0
-6.0,9.0,-5.0,-2.0,5.0,9.0,1.0,-3.0,1650848919419714.0
-12.0,-16.0,1.0,-5.0,-8.0,-20.0,-4.0,4.0,1650848919419714.0
25.0,3.0,1.0,7.0,16.0,12.0,1.0,0.0,1650848919428763.0
8.0,7.0,1.0,-2.0,-6.0,-2.0,0.0,-3.0,1650848919428763.0
20.0,-5.0,-9.0,-2.0,1.0,0.0,-4.0,-10.0,1650848919445039.0
13.0,-16.0,0.0,-7.0,-18.0,-23.0,5.0,26.0,1650848919445039.0
31.0,6.0,2.0,12.0,18.0,24.0,4.0,1.0,1650848919446040.0
-6.0,1.0,2.0,0.0,-10.0,-7.0,-5.0,-6.0,1650848919446040.0
15.0,-1.0,-4.0,-5.0,8.0,9.0,2.0,6.0,1650848919466986.0
-16.0,8.0,1.0,7.0,-2.0,-4.0,-3.0,-10.0,1650848919466986.0
8.0,-6.0,-2.0,-2.0,-4.0,-5.0,-4.0,2.0,1650848919467980.0
2.0,-6.0,0.0,-3.0,-3.0,-7.0,-3.0,-1.0,1650848919467980.0
-31.0,-7.0,-3.0,-1.0,-1.0,1.0,0.0,-5.0,1650848919479976.0
43.0,12.0,0.0,2.0,0.0,1.0,2.0,4.0,1650848919479976.0
-24.0,-4.0,-4.0,1.0,-3.0,-22.0,-3.0,-4.0,1650848919488924.0
-10.0,5.0,1.0,4.0,11.0,37.0,4.0,0.0,1650848919488924.0
5.0,-3.0,5.0,-1.0,-8.0,-13.0,-2.0,2.0,1650848919503911.0
-20.0,-3.0,-4.0,6.0,19.0,32.0,9.0,-2.0,1650848919503911.0
42.0,5.0,1.0,-2.0,-10.0,-18.0,-2.0,0.0,1650848919505899.0
-91.0,-13.0,-3.0,-12.0,-11.0,-17.0,-5.0,-6.0,1650848919505899.0
0.0,1.0,-2.0,1.0,-1.0,4.0,-2.0,1.0,1650848919525827.0
7.0,6.0,-2.0,-5.0,-7.0,-14.0,0.0,-3.0,1650848919525827.0
0.0,2.0,1.0,3.0,-3.0,1.0,-1.0,-4.0,1650848919533824.0
42.0,0.0,-2.0,8.0,17.0,13.0,5.0,13.0,1650848919533824.0
-5.0,-3.0,4.0,-1.0,-4.0,6.0,-1.0,-3.0,1650848919548915.0
-18.0,-8.0,-2.0,-2.0,2.0,-8.0,-5.0,-7.0,1650848919548915.0
18.0,1.0,-3.0,-2.0,1.0,12.0,2.0,-1.0,1650848919550898.0
8.0,4.0,3.0,3.0,-5.0,-16.0,-7.0,-3.0,1650848919550898.0
4.0,0.0,3.0,7.0,3.0,0.0,2.0,-10.0,1650848919563871.0
20.0,2.0,0.0,2.0,-1.0,2.0,2.0,12.0,1650848919563871.0
-2.0,-4.0,-6.0,-10.0,-14.0,-35.0,-6.0,-4.0,1650848919565859.0
19.0,8.0,0.0,0.0,9.0,39.0,4.0,4.0,1650848919565859.0
-7.0,-8.0,-1.0,3.0,15.0,12.0,4.0,7.0,1650848919586782.0
-21.0,-2.0,-1.0,-2.0,-11.0,-7.0,-4.0,-8.0,1650848919586782.0
-6.0,2.0,-1.0,-3.0,-1.0,3.0,2.0,-2.0,1650848919587782.0
0.0,2.0,-4.0,-1.0,-14.0,-36.0,-7.0,-2.0,1650848919587782.0
6.0,8.0,10.0,14.0,4.0,15.0,-3.0,0.0,1650848919608727.0
-44.0,-6.0,-1.0,-10.0,0.0,1.0,1.0,-6.0,1650848919608727.0
14.0,-11.0,-3.0,-6.0,-4.0,-2.0,-2.0,5.0,1650848919610745.0
-24.0,-6.0,-1.0,7.0,1.0,-8.0,1.0,-4.0,1650848919610745.0
-6.0,2.0,-2.0,-4.0,-2.0,1.0,0.0,0.0,1650848919623684.0
36.0,7.0,0.0,0.0,0.0,-5.0,1.0,4.0,1650848919623684.0
6.0,4.0,2.0,3.0,7.0,11.0,-9.0,-10.0,1650848919625678.0
-8.0,-6.0,-4.0,-5.0,-6.0,-8.0,5.0,7.0,1650848919625678.0
-5.0,-8.0,-3.0,-7.0,-1.0,-4.0,-1.0,1.0,1650848919646744.0
-58.0,-2.0,2.0,1.0,0.0,-2.0,-3.0,-9.0,1650848919646744.0
9.0,-2.0,-1.0,3.0,2.0,-2.0,-1.0,-3.0,1650848919647741.0
3.0,-2.0,1.0,2.0,1.0,20.0,2.0,0.0,1650848919647741.0
6.0,6.0,2.0,5.0,5.0,-4.0,1.0,-1.0,1650848919668716.0
10.0,-7.0,-4.0,-3.0,-2.0,-4.0,2.0,4.0,1650848919668716.0
-4.0,7.0,1.0,-2.0,2.0,6.0,3.0,4.0,1650848919670681.0
-1.0,-7.0,-2.0,-8.0,-13.0,-26.0,-6.0,1.0,1650848919670681.0
-4.0,1.0,-3.0,-2.0,-8.0,-5.0,-3.0,-3.0,1650848919683673.0
9.0,2.0,2.0,2.0,7.0,18.0,-2.0,-10.0,1650848919683673.0
2.0,5.0,5.0,5.0,-1.0,0.0,8.0,11.0,1650848919689657.0
9.0,2.0,-1.0,3.0,15.0,3.0,-1.0,0.0,1650848919689657.0
10.0,-2.0,-4.0,-4.0,-11.0,-6.0,-2.0,3.0,1650848919706611.0
12.0,6.0,-2.0,-2.0,0.0,-2.0,1.0,-3.0,1650848919706611.0
27.0,-6.0,-4.0,-3.0,-3.0,0.0,-4.0,-3.0,1650848919708620.0
-8.0,1.0,3.0,1.0,-8.0,-7.0,0.0,-4.0,1650848919708620.0
3.0,-1.0,9.0,6.0,8.0,2.0,0.0,1.0,1650848919728592.0
6.0,1.0,-1.0,-3.0,-4.0,-3.0,-5.0,-4.0,1650848919728592.0
5.0,-2.0,-2.0,4.0,8.0,11.0,3.0,1.0,1650848919730531.0
-3.0,-5.0,-7.0,-3.0,-2.0,-7.0,-3.0,-4.0,1650848919730531.0
2.0,-4.0,-6.0,-13.0,-11.0,-20.0,-9.0,-2.0,1650848919743552.0
12.0,8.0,6.0,6.0,8.0,29.0,11.0,10.0,1650848919743552.0
-4.0,0.0,4.0,-2.0,-4.0,-4.0,0.0,-3.0,1650848919750466.0
-20.0,-4.0,-4.0,0.0,-2.0,-12.0,-5.0,-7.0,1650848919750466.0
-16.0,-4.0,-2.0,1.0,3.0,16.0,0.0,-1.0,1650848919766423.0
5.0,2.0,-1.0,-1.0,-8.0,-20.0,-2.0,-2.0,1650848919766423.0
-9.0,4.0,0.0,1.0,-2.0,-9.0,-5.0,-1.0,1650848919768419.0
8.0,-1.0,2.0,-2.0,14.0,26.0,8.0,0.0,1650848919768419.0
7.0,-6.0,-5.0,-1.0,-9.0,-14.0,4.0,-2.0,1650848919789362.0
-3.0,1.0,1.0,5.0,0.0,-2.0,5.0,10.0,1650848919789362.0
-16.0,-2.0,2.0,-4.0,0.0,3.0,1.0,0.0,1650848919790360.0
8.0,2.0,-2.0,2.0,-2.0,-11.0,-5.0,-3.0,1650848919790360.0
-1.0,0.0,-3.0,-2.0,1.0,6.0,-1.0,-1.0,1650848919803325.0
-1.0,-2.0,-2.0,-6.0,1.0,-1.0,-1.0,-1.0,1650848919803325.0
-15.0,-4.0,-1.0,-6.0,-8.0,-8.0,-2.0,-4.0,1650848919810374.0
6.0,2.0,-3.0,-10.0,-7.0,14.0,-8.0,-1.0,1650848919810374.0
3.0,2.0,-2.0,6.0,8.0,-1.0,3.0,-4.0,1650848919826265.0
1.0,3.0,3.0,9.0,-4.0,-17.0,9.0,14.0,1650848919826265.0
-4.0,-4.0,1.0,2.0,5.0,26.0,-1.0,0.0,1650848919828288.0
4.0,0.0,1.0,-3.0,0.0,-9.0,1.0,-2.0,1650848919828288.0
-5.0,-4.0,-5.0,-10.0,-9.0,-11.0,-6.0,-3.0,1650848919849322.0
-9.0,-5.0,-4.0,-4.0,1.0,5.0,-11.0,-9.0,1650848919849322.0
-7.0,-3.0,-5.0,1.0,-2.0,-7.0,2.0,-2.0,1650848919850334.0
6.0,2.0,0.0,-3.0,-12.0,-11.0,-3.0,-1.0,1650848919850334.0
0.0,2.0,1.0,2.0,-6.0,4.0,-4.0,-2.0,1650848919863257.0
0.0,0.0,1.0,10.0,19.0,-5.0,2.0,0.0,1650848919863257.0
-4.0,0.0,-1.0,-5.0,-4.0,9.0,4.0,3.0,1650848919878259.0
0.0,-2.0,1.0,2.0,3.0,4.0,0.0,-2.0,1650848919878259.0
-1.0,1.0,-1.0,0.0,2.0,-2.0,3.0,3.0,1650848919886224.0
-4.0,-4.0,-3.0,-14.0,-20.0,-15.0,-12.0,-14.0,1650848919886224.0
-2.0,1.0,2.0,14.0,13.0,8.0,0.0,3.0,1650848919888191.0
5.0,1.0,2.0,-1.0,2.0,7.0,10.0,6.0,1650848919888191.0
-1.0,-2.0,-5.0,-1.0,-3.0,-10.0,-1.0,-1.0,1650848919909134.0
2.0,1.0,0.0,-6.0,10.0,28.0,0.0,-4.0,1650848919909134.0
-10.0,-6.0,-3.0,-4.0,-9.0,-15.0,0.0,-7.0,1650848919911129.0
6.0,1.0,-1.0,9.0,3.0,-3.0,-5.0,-2.0,1650848919911129.0
0.0,1.0,1.0,-5.0,0.0,-4.0,-1.0,1.0,1650848919923122.0
-3.0,-3.0,-3.0,-3.0,-15.0,-7.0,1.0,-1.0,1650848919923122.0
0.0,0.0,3.0,3.0,18.0,11.0,-6.0,-3.0,1650848919930106.0
-2.0,-1.0,2.0,6.0,1.0,-1.0,14.0,7.0,1650848919930106.0
3.0,4.0,-2.0,-11.0,3.0,-5.0,-7.0,0.0,1650848919946104.0
-1.0,-2.0,1.0,4.0,-11.0,0.0,-6.0,-3.0,1650848919946104.0
-3.0,1.0,-6.0,-1.0,-4.0,-1.0,3.0,2.0,1650848919948032.0
2.0,0.0,3.0,-2.0,4.0,-2.0,-3.0,-1.0,1650848919948032.0
-3.0,-4.0,-3.0,0.0,-6.0,4.0,2.0,2.0,1650848919969002.0
-4.0,1.0,0.0,3.0,4.0,-8.0,-5.0,-2.0,1650848919969002.0
1.0,1.0,0.0,-6.0,-1.0,-2.0,1.0,1.0,1650848919970990.0
1.0,-2.0,-1.0,0.0,-6.0,-11.0,-4.0,-2.0,1650848919970990.0
1.0,-2.0,0.0,2.0,0.0,14.0,6.0,4.0,1650848919982936.0
3.0,5.0,-3.0,-2.0,4.0,13.0,3.0,1.0,1650848919982936.0
-2.0,-1.0,6.0,2.0,-1.0,-6.0,-2.0,0.0,1650848919989946.0
2.0,1.0,3.0,6.0,0.0,2.0,-5.0,-2.0,1650848919989946.0
-1.0,-1.0,-5.0,0.0,-5.0,-7.0,4.0,5.0,1650848920006274.0
1.0,-2.0,0.0,-6.0,-1.0,-7.0,-2.0,-2.0,1650848920006274.0
-1.0,0.0,-3.0,1.0,9.0,23.0,3.0,-2.0,1650848920008272.0
-2.0,1.0,-3.0,-2.0,-8.0,-10.0,-7.0,-4.0,1650848920008272.0
-1.0,1.0,10.0,3.0,2.0,4.0,1.0,-1.0,1650848920029309.0
-1.0,-1.0,-2.0,-2.0,4.0,-10.0,-1.0,1.0,1650848920029309.0
0.0,-1.0,-17.0,-2.0,-6.0,2.0,6.0,0.0,1650848920035225.0
1.0,-2.0,4.0,-1.0,4.0,0.0,0.0,-1.0,1650848920035225.0
-3.0,2.0,8.0,2.0,1.0,3.0,1.0,-1.0,1650848920043257.0
-1.0,-4.0,-15.0,-1.0,-3.0,-5.0,-3.0,-2.0,1650848920043257.0
0.0,0.0,9.0,4.0,-3.0,-8.0,-4.0,-3.0,1650848920052152.0
0.0,-3.0,-10.0,-6.0,-2.0,4.0,2.0,0.0,1650848920052152.0
0.0,-2.0,-3.0,-8.0,0.0,1.0,0.0,0.0,1650848920066183.0
-1.0,1.0,5.0,3.0,-6.0,-16.0,-4.0,0.0,1650848920066183.0
-1.0,-1.0,2.0,2.0,9.0,22.0,1.0,2.0,1650848920068113.0
-2.0,-1.0,0.0,-5.0,-3.0,0.0,2.0,1.0,1650848920068113.0
-1.0,-3.0,-6.0,2.0,2.0,5.0,1.0,-1.0,1650848920089053.0
0.0,0.0,2.0,-6.0,-5.0,-3.0,0.0,-3.0,1650848920089053.0
2.0,2.0,-3.0,-1.0,-5.0,-15.0,-4.0,-2.0,1650848920091049.0
0.0,-1.0,4.0,1.0,-6.0,-16.0,-6.0,-1.0,1650848920091049.0
1.0,-1.0,-2.0,0.0,7.0,15.0,1.0,-1.0,1650848920103044.0
-1.0,-3.0,-5.0,-2.0,6.0,20.0,5.0,-1.0,1650848920103044.0
-1.0,-2.0,12.0,-2.0,-8.0,-16.0,1.0,0.0,1650848920111993.0
0.0,1.0,-11.0,-3.0,6.0,3.0,1.0,-1.0,1650848920111993.0
0.0,-1.0,-13.0,2.0,-4.0,-10.0,-3.0,-4.0,1650848920127007.0
-2.0,-4.0,10.0,0.0,-7.0,-4.0,-3.0,-1.0,1650848920127007.0
1.0,-1.0,-27.0,-3.0,0.0,-1.0,-3.0,-1.0,1650848920127950.0
0.0,-1.0,7.0,2.0,-6.0,-4.0,-1.0,-1.0,1650848920127950.0
-1.0,-1.0,-3.0,-5.0,-3.0,4.0,1.0,1.0,1650848920156896.0
-2.0,-1.0,1.0,0.0,10.0,4.0,1.0,-1.0,1650848920156896.0
-4.0,0.0,6.0,1.0,-14.0,-23.0,-6.0,-2.0,1650848920157866.0
1.0,1.0,-10.0,-2.0,17.0,41.0,9.0,3.0,1650848920157866.0
1.0,0.0,9.0,-1.0,-4.0,-1.0,0.0,0.0,1650848920162880.0
1.0,-4.0,-2.0,4.0,-2.0,-3.0,-1.0,2.0,1650848920162880.0
-1.0,6.0,15.0,-1.0,0.0,-4.0,0.0,0.0,1650848920171829.0
-2.0,-4.0,1.0,-1.0,-11.0,-17.0,-3.0,-4.0,1650848920171829.0
1.0,0.0,-1.0,8.0,5.0,8.0,1.0,0.0,1650848920186818.0
1.0,-1.0,-5.0,-10.0,-1.0,-4.0,2.0,1.0,1650848920186818.0
-3.0,-8.0,-11.0,-7.0,-4.0,-3.0,-1.0,-3.0,1650848920187807.0
1.0,1.0,8.0,2.0,1.0,3.0,-1.0,1.0,1650848920187807.0
-1.0,-1.0,-5.0,-3.0,-4.0,-4.0,-1.0,-1.0,1650848920208739.0
0.0,1.0,9.0,2.0,-7.0,-7.0,-3.0,-1.0,1650848920208739.0
-1.0,-1.0,-13.0,0.0,2.0,4.0,0.0,1.0,1650848920210726.0
-1.0,1.0,-1.0,-2.0,8.0,-2.0,-1.0,0.0,1650848920210726.0
0.0,3.0,6.0,-5.0,-2.0,3.0,0.0,-1.0,1650848920222692.0
-1.0,-2.0,-7.0,2.0,0.0,-4.0,-2.0,-3.0,1650848920222692.0
-1.0,-4.0,-1.0,1.0,-3.0,12.0,0.0,0.0,1650848920231700.0
-1.0,-4.0,-4.0,-3.0,-5.0,-25.0,-4.0,0.0,1650848920231700.0
0.0,2.0,-6.0,0.0,12.0,34.0,4.0,0.0,1650848920246783.0
1.0,3.0,10.0,2.0,-2.0,-4.0,-1.0,-1.0,1650848920246783.0
-1.0,0.0,13.0,3.0,-3.0,-9.0,-4.0,-2.0,1650848920247733.0
-1.0,-4.0,-1.0,-1.0,-8.0,-14.0,-4.0,-3.0,1650848920247733.0
-1.0,-3.0,-2.0,5.0,3.0,6.0,6.0,2.0,1650848920268656.0
1.0,2.0,-19.0,-7.0,5.0,5.0,0.0,0.0,1650848920268656.0
1.0,3.0,11.0,-4.0,3.0,3.0,1.0,1.0,1650848920270651.0
-4.0,-5.0,-13.0,-6.0,-11.0,-11.0,-6.0,-4.0,1650848920270651.0
0.0,4.0,1.0,6.0,0.0,-14.0,-2.0,-1.0,1650848920282647.0
-2.0,-1.0,2.0,5.0,3.0,9.0,1.0,-1.0,1650848920282647.0
3.0,1.0,1.0,-2.0,1.0,-5.0,1.0,-1.0,1650848920291595.0
2.0,-3.0,-7.0,-3.0,2.0,13.0,3.0,2.0,1650848920291595.0
-1.0,-3.0,16.0,6.0,1.0,-3.0,0.0,0.0,1650848920306554.0
-1.0,-5.0,-5.0,-6.0,-1.0,-4.0,-3.0,-1.0,1650848920306554.0
0.0,3.0,-5.0,0.0,-2.0,-1.0,-2.0,-1.0,1650848920308550.0
1.0,4.0,2.0,7.0,4.0,7.0,3.0,0.0,1650848920308550.0
3.0,1.0,6.0,-3.0,6.0,6.0,4.0,3.0,1650848920329538.0
-3.0,3.0,-11.0,-3.0,-4.0,-10.0,-3.0,-2.0,1650848920329538.0
0.0,-7.0,4.0,-1.0,-3.0,3.0,2.0,0.0,1650848920330492.0
0.0,7.0,-3.0,-2.0,-10.0,-6.0,-2.0,-3.0,1650848920330492.0
-3.0,-4.0,2.0,-1.0,11.0,5.0,-2.0,-1.0,1650848920342807.0
1.0,0.0,6.0,0.0,-4.0,1.0,2.0,2.0,1650848920342807.0
-3.0,-5.0,-9.0,-5.0,-4.0,-1.0,-2.0,0.0,1650848920351792.0
-1.0,7.0,11.0,4.0,2.0,0.0,0.0,-1.0,1650848920351792.0
-3.0,-11.0,-1.0,6.0,-3.0,-14.0,-7.0,-3.0,1650848920366886.0
1.0,9.0,0.0,-1.0,1.0,6.0,1.0,1.0,1650848920366886.0
1.0,1.0,-2.0,-7.0,-11.0,-13.0,-3.0,-2.0,1650848920367860.0
0.0,-6.0,4.0,3.0,4.0,26.0,2.0,2.0,1650848920367860.0
-3.0,1.0,-1.0,-3.0,2.0,-9.0,-3.0,-2.0,1650848920388828.0
0.0,-11.0,0.0,2.0,-3.0,-1.0,-2.0,0.0,1650848920388828.0
0.0,-2.0,-4.0,-1.0,6.0,-1.0,0.0,-1.0,1650848920390816.0
1.0,10.0,1.0,-8.0,-9.0,-5.0,-3.0,0.0,1650848920390816.0
0.0,-5.0,-12.0,-1.0,-11.0,-8.0,-1.0,-3.0,1650848920402790.0
-2.0,-3.0,14.0,9.0,17.0,4.0,0.0,-1.0,1650848920402790.0
1.0,3.0,-7.0,-4.0,4.0,4.0,3.0,1.0,1650848920411739.0
-2.0,-8.0,1.0,6.0,5.0,9.0,-1.0,-2.0,1650848920411739.0
0.0,-6.0,0.0,-4.0,0.0,0.0,1.0,1.0,1650848920425702.0
-3.0,13.0,-1.0,-5.0,-11.0,-11.0,-1.0,-2.0,1650848920425702.0
-1.0,3.0,7.0,11.0,6.0,7.0,0.0,1.0,1650848920432747.0
0.0,-6.0,0.0,-5.0,5.0,1.0,2.0,1.0,1650848920432747.0
0.0,4.0,-5.0,-12.0,-13.0,-10.0,-3.0,-3.0,1650848920448793.0
-1.0,-2.0,1.0,5.0,1.0,2.0,-2.0,-1.0,1650848920448793.0
-1.0,-2.0,6.0,10.0,6.0,1.0,1.0,1.0,1650848920450721.0
0.0,0.0,-6.0,-2.0,3.0,1.0,0.0,-1.0,1650848920450721.0
0.0,1.0,0.0,-2.0,-10.0,-15.0,-1.0,-1.0,1650848920471692.0
1.0,2.0,2.0,5.0,8.0,24.0,3.0,1.0,1650848920471692.0
0.0,-2.0,-2.0,-12.0,1.0,5.0,2.0,0.0,1650848920473660.0
-2.0,-2.0,-4.0,0.0,-7.0,-9.0,1.0,0.0,1650848920473660.0
-1.0,2.0,0.0,3.0,-3.0,-1.0,-1.0,0.0,1650848920486651.0
0.0,-3.0,1.0,-4.0,-4.0,-10.0,-3.0,0.0,1650848920486651.0
0.0,-1.0,3.0,-1.0,0.0,1.0,-3.0,-1.0,1650848920488632.0
0.0,1.0,7.0,2.0,8.0,7.0,-1.0,0.0,1650848920488632.0
-1.0,-1.0,-4.0,-5.0,-15.0,-23.0,-6.0,-1.0,1650848920508566.0
-1.0,-4.0,-5.0,1.0,1.0,10.0,2.0,0.0,1650848920508566.0
-1.0,0.0,0.0,2.0,9.0,19.0,0.0,0.0,1650848920510570.0
1.0,-2.0,3.0,0.0,-1.0,-2.0,4.0,-1.0,1650848920510570.0
0.0,1.0,-3.0,-4.0,-1.0,-1.0,-3.0,-2.0,1650848920531511.0
2.0,-2.0,6.0,-3.0,-8.0,-11.0,0.0,0.0,1650848920531511.0
-3.0,2.0,-10.0,2.0,-5.0,-11.0,-6.0,-3.0,1650848920533520.0
-1.0,-3.0,-2.0,-3.0,-4.0,-2.0,-1.0,1.0,1650848920533520.0
1.0,1.0,2.0,3.0,5.0,4.0,1.0,-1.0,1650848920546555.0
2.0,2.0,5.0,2.0,7.0,4.0,2.0,2.0,1650848920546555.0
1.0,-1.0,-1.0,-1.0,2.0,3.0,3.0,1.0,1650848920548552.0
-1.0,-2.0,-2.0,-5.0,-4.0,-2.0,-1.0,-1.0,1650848920548552.0
0.0,0.0,1.0,6.0,-1.0,-3.0,-1.0,0.0,1650848920569504.0
-1.0,-2.0,-7.0,-5.0,-3.0,-2.0,-2.0,-3.0,1650848920569504.0
-1.0,0.0,0.0,-2.0,-5.0,2.0,4.0,-2.0,1650848920570502.0
-1.0,0.0,-4.0,-1.0,-6.0,-7.0,0.0,-2.0,1650848920570502.0
-1.0,2.0,2.0,12.0,12.0,2.0,2.0,1.0,1650848920591437.0
-2.0,-3.0,-7.0,-6.0,4.0,11.0,-2.0,-1.0,1650848920591437.0
-1.0,1.0,3.0,-6.0,-4.0,-3.0,-1.0,0.0,1650848920593432.0
-2.0,2.0,5.0,4.0,-4.0,-5.0,-2.0,-1.0,1650848920593432.0
-3.0,-3.0,-4.0,-5.0,-3.0,4.0,0.0,-2.0,1650848920605400.0
0.0,-1.0,2.0,-1.0,-6.0,-11.0,-1.0,-2.0,1650848920605400.0
-2.0,1.0,-2.0,1.0,-7.0,-8.0,-4.0,0.0,1650848920612382.0
-1.0,-2.0,-4.0,1.0,2.0,8.0,0.0,-2.0,1650848920612382.0
1.0,0.0,-3.0,-6.0,4.0,11.0,3.0,2.0,1650848920629402.0
0.0,1.0,-4.0,-1.0,3.0,-1.0,1.0,-1.0,1650848920629402.0
1.0,-4.0,12.0,4.0,-7.0,-6.0,0.0,-2.0,1650848920630333.0
0.0,1.0,-15.0,-4.0,0.0,-6.0,0.0,0.0,1650848920630333.0
-2.0,0.0,5.0,1.0,-2.0,-2.0,-2.0,-3.0,1650848920651276.0
1.0,1.0,0.0,2.0,3.0,2.0,1.0,1.0,1650848920651276.0
2.0,0.0,1.0,-1.0,-5.0,1.0,-2.0,-1.0,1650848920653271.0
-1.0,-1.0,5.0,1.0,10.0,2.0,0.0,1.0,1650848920653271.0
-1.0,-3.0,-6.0,-3.0,-4.0,-12.0,-3.0,-2.0,1650848920674359.0
1.0,3.0,1.0,3.0,-2.0,21.0,3.0,1.0,1650848920674359.0
-1.0,-4.0,-3.0,-5.0,-8.0,-16.0,-3.0,-1.0,1650848920675357.0
1.0,1.0,7.0,10.0,13.0,11.0,2.0,2.0,1650848920675357.0
1.0,-2.0,-4.0,-7.0,2.0,3.0,0.0,-1.0,1650848920689348.0
-3.0,2.0,2.0,1.0,-8.0,-15.0,-3.0,-2.0,1650848920689348.0
-1.0,0.0,-7.0,1.0,-1.0,-8.0,0.0,0.0,1650848920695331.0
-2.0,-1.0,-6.0,-4.0,-7.0,-5.0,-3.0,-1.0,1650848920695331.0
0.0,1.0,5.0,3.0,7.0,19.0,4.0,0.0,1650848920711263.0
0.0,-3.0,-1.0,-2.0,3.0,-7.0,-1.0,-1.0,1650848920711263.0
0.0,0.0,0.0,3.0,4.0,8.0,1.0,-2.0,1650848920713256.0
-2.0,0.0,-2.0,-3.0,-9.0,-11.0,-2.0,-1.0,1650848920713256.0
0.0,-2.0,4.0,-2.0,-2.0,-3.0,-2.0,-1.0,1650848920726221.0
-1.0,0.0,-3.0,-4.0,-4.0,-6.0,-1.0,0.0,1650848920726221.0
0.0,-1.0,-1.0,5.0,3.0,2.0,1.0,0.0,1650848920734206.0
1.0,1.0,0.0,2.0,0.0,0.0,-1.0,-1.0,1650848920734206.0
-1.0,0.0,4.0,3.0,4.0,15.0,2.0,1.0,1650848920749187.0
0.0,-2.0,-9.0,-3.0,-5.0,-3.0,-2.0,-2.0,1650848920749187.0
-1.0,0.0,2.0,-7.0,-2.0,-7.0,-1.0,1.0,1650848920751154.0
-2.0,-2.0,-7.0,-3.0,-5.0,-3.0,-1.0,-1.0,1650848920751154.0
-2.0,1.0,-2.0,0.0,-3.0,-6.0,-2.0,1.0,1650848920771245.0
-1.0,-2.0,0.0,2.0,-3.0,-5.0,-2.0,0.0,1650848920771245.0
-2.0,-2.0,-1.0,-1.0,11.0,8.0,0.0,-1.0,1650848920773211.0
2.0,2.0,3.0,-3.0,-7.0,0.0,1.0,1.0,1650848920773211.0
-1.0,4.0,2.0,3.0,5.0,-1.0,0.0,0.0,1650848920786197.0
-1.0,-1.0,-1.0,-2.0,6.0,2.0,1.0,0.0,1650848920786197.0
-2.0,-2.0,-1.0,-2.0,-14.0,-26.0,-5.0,-2.0,1650848920792172.0
1.0,0.0,2.0,5.0,15.0,29.0,5.0,1.0,1650848920792172.0
1.0,-1.0,-2.0,-1.0,-3.0,3.0,6.0,1.0,1650848920809096.0
1.0,-1.0,3.0,-2.0,-1.0,-13.0,-2.0,-1.0,1650848920809096.0
-1.0,2.0,-4.0,0.0,0.0,11.0,0.0,1.0,1650848920811091.0
-2.0,-2.0,0.0,-2.0,6.0,-15.0,-3.0,-2.0,1650848920811091.0
-2.0,-1.0,-5.0,-4.0,-12.0,-7.0,-4.0,-4.0,1650848920832034.0
1.0,1.0,2.0,5.0,0.0,7.0,0.0,0.0,1650848920832034.0
-1.0,-1.0,-2.0,-2.0,-2.0,-7.0,0.0,-1.0,1650848920833033.0
-1.0,-3.0,0.0,-2.0,-9.0,-1.0,-2.0,1.0,1650848920833033.0
0.0,0.0,0.0,-1.0,12.0,8.0,1.0,0.0,1650848920846325.0
-2.0,-1.0,2.0,2.0,-5.0,-6.0,1.0,0.0,1650848920846325.0
0.0,0.0,-2.0,5.0,5.0,7.0,-2.0,-2.0,1650848920852837.0
-3.0,-1.0,3.0,-4.0,-4.0,2.0,0.0,-2.0,1650848920852837.0
0.0,2.0,3.0,2.0,-1.0,-5.0,-2.0,-1.0,1650848920868885.0
1.0,-1.0,0.0,-1.0,-1.0,-3.0,0.0,0.0,1650848920868885.0
1.0,1.0,0.0,-5.0,1.0,5.0,2.0,2.0,1650848920870900.0
-1.0,-3.0,-5.0,0.0,-5.0,-9.0,-1.0,-1.0,1650848920870900.0
0.0,0.0,-3.0,0.0,-1.0,-1.0,-2.0,1.0,1650848920891824.0
0.0,0.0,2.0,1.0,10.0,9.0,3.0,-1.0,1650848920891824.0
1.0,1.0,-1.0,-2.0,1.0,7.0,0.0,-2.0,1650848920892822.0
-2.0,-5.0,-4.0,-2.0,-6.0,-14.0,-3.0,-2.0,1650848920892822.0
-2.0,-3.0,-4.0,-1.0,-17.0,-5.0,-3.0,-3.0,1650848920905787.0
0.0,1.0,2.0,-1.0,7.0,7.0,5.0,4.0,1650848920905787.0
1.0,3.0,6.0,2.0,2.0,-1.0,2.0,0.0,1650848920912770.0
0.0,2.0,0.0,1.0,-4.0,-18.0,-6.0,-2.0,1650848920912770.0
0.0,-3.0,-4.0,0.0,12.0,33.0,1.0,1.0,1650848920928728.0
-3.0,-4.0,-4.0,-4.0,-5.0,-8.0,-5.0,-3.0,1650848920928728.0
-1.0,1.0,2.0,0.0,-1.0,1.0,-2.0,0.0,1650848920930720.0
-1.0,0.0,3.0,-4.0,-5.0,-7.0,-2.0,-2.0,1650848920930720.0
1.0,1.0,-1.0,-4.0,-7.0,-13.0,-3.0,0.0,1650848920951684.0
-1.0,-2.0,5.0,5.0,-2.0,5.0,-1.0,0.0,1650848920951684.0
0.0,-1.0,-3.0,-1.0,10.0,2.0,-1.0,-1.0,1650848920953679.0
0.0,1.0,3.0,-4.0,-6.0,2.0,-2.0,-1.0,1650848920953679.0
-2.0,-2.0,-4.0,-2.0,-1.0,-7.0,1.0,0.0,1650848920964743.0
0.0,0.0,-3.0,-1.0,3.0,5.0,-2.0,0.0,1650848920964743.0
-2.0,-4.0,-3.0,-6.0,-7.0,-8.0,0.0,-2.0,1650848920973741.0
2.0,2.0,3.0,9.0,4.0,9.0,0.0,0.0,1650848920973741.0
0.0,1.0,3.0,7.0,3.0,-6.0,-1.0,2.0,1650848920988702.0
1.0,-1.0,0.0,-5.0,11.0,15.0,2.0,0.0,1650848920988702.0
-1.0,-1.0,0.0,1.0,-6.0,1.0,-1.0,-2.0,1650848920990677.0
-1.0,0.0,-2.0,3.0,8.0,3.0,2.0,0.0,1650848920990677.0
-1.0,-1.0,0.0,-3.0,-11.0,-12.0,-3.0,-2.0,1650848921011619.0
-2.0,0.0,1.0,-2.0,-14.0,-14.0,-6.0,-3.0,1650848921011619.0
0.0,-1.0,1.0,3.0,8.0,3.0,0.0,1.0,1650848921012652.0
-1.0,-4.0,-3.0,-6.0,3.0,3.0,2.0,-1.0,1650848921012652.0
-1.0,-1.0,0.0,0.0,-9.0,-3.0,-2.0,1.0,1650848921025617.0
2.0,1.0,-3.0,3.0,9.0,11.0,1.0,2.0,1650848921025617.0
2.0,-1.0,-2.0,-5.0,-4.0,5.0,1.0,-2.0,1650848921034586.0
-1.0,-1.0,-1.0,-1.0,-6.0,-11.0,-2.0,-1.0,1650848921034586.0
0.0,-2.0,-2.0,-4.0,-3.0,-3.0,-2.0,-3.0,1650848921048589.0
-2.0,-1.0,-1.0,-2.0,-7.0,-11.0,-5.0,-1.0,1650848921048589.0
0.0,0.0,-2.0,3.0,4.0,1.0,2.0,1.0,1650848921050517.0
-1.0,-1.0,2.0,0.0,7.0,9.0,1.0,-2.0,1650848921050517.0
0.0,1.0,2.0,0.0,-4.0,-9.0,-1.0,-1.0,1650848921071566.0
0.0,-3.0,-1.0,0.0,4.0,5.0,2.0,-1.0,1650848921071566.0
-1.0,-2.0,-3.0,-5.0,-5.0,-3.0,1.0,1.0,1650848921073581.0
-1.0,-2.0,-4.0,-4.0,-4.0,1.0,-1.0,0.0,1650848921073581.0
0.0,5.0,0.0,0.0,-3.0,-23.0,-4.0,-3.0,1650848921085528.0
1.0,-1.0,-1.0,2.0,4.0,33.0,4.0,1.0,1650848921085528.0
0.0,-1.0,-1.0,2.0,4.0,5.0,0.0,0.0,1650848921094511.0
1.0,1.0,0.0,3.0,-7.0,-1.0,1.0,0.0,1650848921094511.0
-2.0,-2.0,-1.0,-2.0,9.0,-4.0,-2.0,-1.0,1650848921109473.0
-4.0,-2.0,-3.0,-7.0,-17.0,-27.0,-6.0,-4.0,1650848921109473.0
-1.0,-1.0,-5.0,-3.0,-2.0,1.0,-1.0,-1.0,1650848921110462.0
0.0,1.0,5.0,8.0,3.0,20.0,3.0,3.0,1650848921110462.0
0.0,-3.0,7.0,2.0,4.0,1.0,0.0,-1.0,1650848921131417.0
-1.0,-3.0,-6.0,4.0,1.0,-4.0,2.0,-2.0,1650848921131417.0
-1.0,-1.0,0.0,-2.0,-4.0,-4.0,0.0,-3.0,1650848921133421.0
-2.0,-1.0,-5.0,-7.0,-9.0,-12.0,-5.0,-3.0,1650848921133421.0
1.0,1.0,0.0,1.0,4.0,12.0,4.0,0.0,1650848921145599.0
2.0,1.0,5.0,4.0,0.0,-7.0,0.0,5.0,1650848921145599.0
0.0,0.0,1.0,-5.0,3.0,-10.0,-5.0,-3.0,1650848921154437.0
-2.0,-3.0,-4.0,-1.0,-8.0,11.0,-2.0,-1.0,1650848921154437.0
0.0,-1.0,4.0,6.0,1.0,6.0,5.0,0.0,1650848921169594.0
2.0,2.0,-7.0,-5.0,9.0,-1.0,-1.0,-2.0,1650848921169594.0
-2.0,-1.0,2.0,-3.0,-4.0,-1.0,-1.0,0.0,1650848921171522.0
0.0,0.0,0.0,1.0,2.0,-8.0,-3.0,-1.0,1650848921171522.0
-1.0,-2.0,-4.0,-4.0,-4.0,-1.0,-2.0,-1.0,1650848921191468.0
-2.0,1.0,0.0,-5.0,-12.0,-13.0,-2.0,-2.0,1650848921191468.0
-2.0,-1.0,0.0,5.0,-2.0,-4.0,-3.0,0.0,1650848921193463.0
0.0,1.0,-4.0,-2.0,10.0,20.0,4.0,2.0,1650848921193463.0
-2.0,-3.0,2.0,-3.0,-10.0,-9.0,0.0,-1.0,1650848921205458.0
0.0,1.0,10.0,0.0,-3.0,-3.0,2.0,-3.0,1650848921205458.0
0.0,-2.0,-5.0,1.0,4.0,5.0,0.0,0.0,1650848921214432.0
-1.0,-1.0,-2.0,-3.0,-3.0,-2.0,1.0,1.0,1650848921214432.0
1.0,-3.0,-5.0,-8.0,1.0,3.0,0.0,0.0,1650848921229465.0
-2.0,-1.0,0.0,1.0,-3.0,-8.0,-4.0,-2.0,1650848921229465.0
0.0,-1.0,0.0,0.0,-9.0,-5.0,-1.0,0.0,1650848921230391.0
-1.0,-1.0,-2.0,-5.0,-7.0,-3.0,1.0,0.0,1650848921230391.0
1.0,1.0,0.0,8.0,19.0,9.0,1.0,0.0,1650848921251453.0
1.0,-1.0,1.0,0.0,-1.0,5.0,1.0,0.0,1650848921251453.0
-2.0,0.0,1.0,0.0,-2.0,2.0,0.0,0.0,1650848921253469.0
-1.0,-2.0,-3.0,-4.0,1.0,-1.0,0.0,-3.0,1650848921253469.0
0.0,2.0,0.0,3.0,-3.0,-2.0,-3.0,1.0,1650848921265533.0
-1.0,-2.0,-3.0,-4.0,-9.0,-14.0,-4.0,-3.0,1650848921265533.0
1.0,-1.0,-1.0,0.0,0.0,1.0,-1.0,-1.0,1650848921274524.0
2.0,3.0,6.0,6.0,10.0,27.0,9.0,2.0,1650848921274524.0
-1.0,1.0,-3.0,-2.0,9.0,1.0,0.0,1.0,1650848921289455.0
1.0,-2.0,-2.0,-7.0,0.0,0.0,0.0,-2.0,1650848921289455.0
-2.0,-2.0,-1.0,-4.0,-10.0,-14.0,-2.0,-1.0,1650848921290453.0
-2.0,0.0,-1.0,0.0,-5.0,-16.0,-8.0,-2.0,1650848921290453.0
0.0,-3.0,-2.0,-1.0,-1.0,7.0,0.0,-1.0,1650848921311398.0
-1.0,-1.0,1.0,1.0,-2.0,2.0,0.0,-1.0,1650848921311398.0
-2.0,0.0,-2.0,1.0,4.0,1.0,-1.0,-1.0,1650848921313392.0
0.0,-1.0,0.0,-2.0,-8.0,-32.0,-5.0,-2.0,1650848921313392.0
1.0,0.0,0.0,3.0,1.0,41.0,3.0,0.0,1650848921325359.0
1.0,-1.0,-4.0,0.0,-1.0,-7.0,-1.0,-1.0,1650848921325359.0
2.0,0.0,-2.0,2.0,12.0,20.0,3.0,1.0,1650848921334336.0
-3.0,-1.0,6.0,0.0,2.0,-5.0,2.0,0.0,1650848921334336.0
-2.0,0.0,3.0,-3.0,-5.0,-19.0,-6.0,-3.0,1650848921349323.0
-2.0,-2.0,-3.0,-1.0,-9.0,-2.0,-3.0,-2.0,1650848921349323.0
-1.0,-4.0,-2.0,-2.0,-5.0,2.0,1.0,-2.0,1650848921350295.0
-1.0,-1.0,-5.0,2.0,7.0,1.0,0.0,-1.0,1650848921350295.0
-2.0,-2.0,-3.0,-1.0,-5.0,-10.0,-2.0,-1.0,1650848921371366.0
0.0,1.0,1.0,2.0,5.0,12.0,1.0,1.0,1650848921371366.0
0.0,-1.0,3.0,-8.0,-6.0,-15.0,-3.0,1.0,1650848921373355.0
1.0,0.0,-1.0,7.0,1.0,12.0,-1.0,-1.0,1650848921373355.0
-1.0,0.0,-1.0,1.0,5.0,-9.0,1.0,0.0,1650848921394299.0
1.0,1.0,0.0,-3.0,4.0,27.0,9.0,4.0,1650848921394299.0
-1.0,-1.0,1.0,-1.0,-3.0,-4.0,0.0,-1.0,1650848921395300.0
0.0,1.0,0.0,-3.0,-8.0,-13.0,-4.0,-1.0,1650848921395300.0
0.0,0.0,-3.0,-5.0,-3.0,-3.0,-2.0,0.0,1650848921409286.0
-1.0,-1.0,3.0,1.0,4.0,-4.0,-3.0,0.0,1650848921409286.0
0.0,0.0,-3.0,1.0,-3.0,-4.0,-2.0,-1.0,1650848921410256.0
-1.0,-2.0,-2.0,-1.0,-5.0,5.0,2.0,-2.0,1650848921410256.0
2.0,0.0,-1.0,-1.0,7.0,6.0,3.0,0.0,1650848921431267.0
0.0,1.0,-1.0,1.0,6.0,-1.0,0.0,0.0,1650848921431267.0
0.0,1.0,3.0,3.0,-3.0,-1.0,2.0,-1.0,1650848921433195.0
0.0,-1.0,-2.0,-4.0,-1.0,-6.0,-4.0,-2.0,1650848921433195.0
-2.0,-3.0,0.0,0.0,-5.0,8.0,1.0,1.0,1650848921453905.0
-3.0,-1.0,-3.0,2.0,-6.0,-5.0,-3.0,-2.0,1650848921453905.0
-2.0,-2.0,-2.0,0.0,1.0,-4.0,-2.0,-1.0,1650848921455874.0
-2.0,-3.0,1.0,-1.0,3.0,0.0,1.0,1.0,1650848921455874.0
-2.0,3.0,-1.0,0.0,-6.0,-2.0,-3.0,0.0,1650848921468838.0
1.0,0.0,4.0,1.0,13.0,16.0,7.0,4.0,1650848921468838.0
-1.0,-3.0,-1.0,1.0,-3.0,-9.0,-3.0,-2.0,1650848921470834.0
-1.0,0.0,-5.0,-1.0,1.0,2.0,-1.0,-1.0,1650848921470834.0
-1.0,-2.0,4.0,3.0,-6.0,-9.0,1.0,0.0,1650848921491804.0
-3.0,-3.0,-2.0,-6.0,-8.0,-10.0,-3.0,-1.0,1650848921491804.0
-2.0,-1.0,-2.0,-1.0,6.0,13.0,1.0,2.0,1650848921492785.0
0.0,5.0,0.0,2.0,0.0,-7.0,-2.0,-2.0,1650848921492785.0
1.0,-2.0,-2.0,-1.0,2.0,3.0,1.0,1.0,1650848921514501.0
-1.0,1.0,-1.0,1.0,4.0,-16.0,-4.0,-1.0,1650848921514501.0
-2.0,2.0,1.0,-2.0,-1.0,27.0,8.0,1.0,1650848921515735.0
1.0,-6.0,0.0,1.0,3.0,2.0,0.0,0.0,1650848921515735.0
-3.0,-1.0,-3.0,-8.0,-10.0,-8.0,-3.0,-3.0,1650848921528701.0
-2.0,-2.0,-4.0,2.0,-4.0,-9.0,-4.0,-3.0,1650848921528701.0
1.0,1.0,-1.0,-2.0,3.0,7.0,0.0,0.0,1650848921535724.0
1.0,2.0,0.0,-5.0,-5.0,-2.0,3.0,0.0,1650848921535724.0
-1.0,0.0,-1.0,4.0,5.0,3.0,-2.0,-2.0,1650848921551639.0
-1.0,-4.0,-2.0,0.0,-10.0,-16.0,-3.0,-2.0,1650848921551639.0
1.0,0.0,1.0,2.0,11.0,17.0,2.0,-2.0,1650848921552663.0
-3.0,-2.0,-1.0,-3.0,0.0,6.0,1.0,-1.0,1650848921552663.0
-1.0,-2.0,2.0,-4.0,-2.0,-7.0,-2.0,-1.0,1650848921573606.0
-1.0,1.0,-5.0,-7.0,-10.0,-17.0,-4.0,-3.0,1650848921573606.0
-3.0,-3.0,-2.0,3.0,-4.0,4.0,-1.0,-1.0,1650848921575575.0
2.0,-2.0,1.0,9.0,16.0,4.0,3.0,1.0,1650848921575575.0
1.0,1.0,-3.0,-7.0,-10.0,-4.0,0.0,0.0,1650848921588657.0
0.0,-2.0,2.0,1.0,7.0,8.0,-3.0,1.0,1650848921588657.0
-1.0,-3.0,-5.0,-6.0,-11.0,-12.0,-4.0,-3.0,1650848921595638.0
-2.0,3.0,3.0,-5.0,-4.0,1.0,-1.0,-1.0,1650848921595638.0
-2.0,-5.0,-3.0,4.0,-4.0,-4.0,-1.0,1.0,1650848921611596.0
-1.0,2.0,4.0,6.0,-1.0,-7.0,0.0,0.0,1650848921611596.0
1.0,0.0,2.0,3.0,5.0,15.0,0.0,0.0,1650848921613590.0
-1.0,-3.0,0.0,-2.0,4.0,-1.0,1.0,-1.0,1650848921613590.0
0.0,0.0,1.0,-2.0,-3.0,-5.0,-1.0,-3.0,1650848921633605.0
0.0,2.0,-1.0,-1.0,-2.0,3.0,-1.0,0.0,1650848921633605.0
-1.0,-2.0,-3.0,5.0,-3.0,-21.0,-4.0,0.0,1650848921635532.0
-1.0,2.0,-1.0,1.0,-4.0,-6.0,-4.0,-2.0,1650848921635532.0
0.0,2.0,3.0,2.0,23.0,36.0,7.0,3.0,1650848921648565.0
-2.0,-4.0,-2.0,-11.0,-15.0,-8.0,-2.0,-4.0,1650848921648565.0
-1.0,1.0,0.0,2.0,-4.0,-8.0,-1.0,-1.0,1650848921655477.0
-2.0,-1.0,-3.0,-5.0,-3.0,-6.0,-1.0,-1.0,1650848921655477.0
-1.0,-1.0,-1.0,0.0,-5.0,-9.0,-2.0,0.0,1650848921671524.0
0.0,0.0,0.0,4.0,11.0,7.0,0.0,-1.0,1650848921671524.0
-2.0,3.0,2.0,-11.0,-5.0,4.0,3.0,1.0,1650848921673517.0
1.0,2.0,-2.0,5.0,1.0,5.0,2.0,1.0,1650848921673517.0
0.0,-2.0,-1.0,3.0,3.0,-3.0,-2.0,-1.0,1650848921694462.0
2.0,2.0,2.0,-1.0,0.0,5.0,3.0,2.0,1650848921694462.0
-1.0,-2.0,0.0,5.0,-1.0,-14.0,-6.0,0.0,1650848921695459.0
-1.0,-1.0,-2.0,-3.0,-1.0,-2.0,-4.0,-2.0,1650848921695459.0
-1.0,1.0,-2.0,-2.0,1.0,11.0,9.0,1.0,1650848921707456.0
-1.0,-5.0,-1.0,1.0,-1.0,8.0,1.0,-1.0,1650848921707456.0
-3.0,-3.0,-2.0,4.0,6.0,-2.0,0.0,-1.0,1650848921716434.0
3.0,0.0,1.0,-1.0,-5.0,-9.0,-4.0,0.0,1650848921716434.0
-1.0,4.0,1.0,-5.0,-13.0,-12.0,-3.0,-3.0,1650848921731398.0
-1.0,1.0,-2.0,4.0,13.0,11.0,5.0,0.0,1650848921731398.0
-3.0,-3.0,-4.0,-7.0,-8.0,-21.0,-3.0,-3.0,1650848921733392.0
-1.0,0.0,3.0,3.0,2.0,25.0,4.0,-1.0,1650848921733392.0
-1.0,-2.0,-1.0,3.0,-2.0,-6.0,-4.0,-1.0,1650848921754336.0
0.0,0.0,-3.0,0.0,10.0,10.0,5.0,3.0,1650848921754336.0
1.0,1.0,0.0,-7.0,-7.0,-8.0,-2.0,-2.0,1650848921756330.0
-1.0,-3.0,-2.0,3.0,-2.0,-7.0,-4.0,-3.0,1650848921756330.0
1.0,-1.0,0.0,-5.0,-9.0,-4.0,-1.0,0.0,1650848921768409.0
0.0,-1.0,-1.0,0.0,1.0,1.0,0.0,0.0,1650848921768409.0
1.0,7.0,2.0,0.0,0.0,-2.0,1.0,0.0,1650848921782411.0
0.0,2.0,1.0,2.0,2.0,3.0,0.0,1.0,1650848921782411.0
-1.0,-3.0,0.0,5.0,1.0,-3.0,0.0,-1.0,1650848921792347.0
-1.0,0.0,-2.0,-4.0,3.0,14.0,-2.0,-2.0,1650848921792347.0
0.0,-1.0,0.0,-1.0,-3.0,-1.0,0.0,-1.0,1650848921793335.0
-2.0,0.0,-2.0,2.0,-5.0,-9.0,-2.0,0.0,1650848921793335.0
-3.0,-2.0,-2.0,-8.0,5.0,-2.0,-5.0,-3.0,1650848921821353.0
1.0,0.0,3.0,9.0,-3.0,15.0,7.0,1.0,1650848921821353.0
3.0,-1.0,2.0,0.0,3.0,3.0,4.0,3.0,1650848921823325.0
0.0,-2.0,-2.0,-2.0,-7.0,-7.0,-1.0,-2.0,1650848921823325.0
-1.0,-3.0,-5.0,-5.0,-6.0,-23.0,-10.0,-3.0,1650848921828312.0
-1.0,2.0,-2.0,0.0,4.0,19.0,3.0,1.0,1650848921828312.0
-2.0,0.0,1.0,2.0,4.0,3.0,0.0,0.0,1650848921835313.0
0.0,-4.0,0.0,-1.0,0.0,1.0,2.0,0.0,1650848921835313.0
0.0,0.0,1.0,7.0,-11.0,-12.0,0.0,-1.0,1650848921851279.0
1.0,2.0,3.0,0.0,2.0,-2.0,-4.0,0.0,1650848921851279.0
1.0,-4.0,-1.0,-4.0,1.0,0.0,-1.0,0.0,1650848921853266.0
-1.0,1.0,-4.0,-6.0,6.0,7.0,3.0,0.0,1650848921853266.0
0.0,1.0,2.0,1.0,-2.0,0.0,-2.0,-1.0,1650848921874269.0
-1.0,-2.0,-1.0,-4.0,-3.0,-15.0,-1.0,-2.0,1650848921874269.0
0.0,-1.0,1.0,0.0,-3.0,-1.0,2.0,3.0,1650848921875267.0
-5.0,-4.0,-1.0,-3.0,2.0,-1.0,-4.0,-3.0,1650848921875267.0
0.0,0.0,-3.0,0.0,7.0,11.0,5.0,1.0,1650848921888235.0
0.0,-3.0,0.0,-3.0,-9.0,-14.0,-10.0,-6.0,1650848921888235.0
-2.0,-2.0,0.0,1.0,0.0,-2.0,-3.0,-2.0,1650848921897216.0
1.0,1.0,0.0,6.0,-1.0,2.0,3.0,1.0,1650848921897216.0
-2.0,-1.0,-1.0,-15.0,-1.0,2.0,2.0,0.0,1650848921911171.0
2.0,0.0,3.0,4.0,-6.0,-8.0,3.0,5.0,1650848921911171.0
0.0,1.0,4.0,13.0,8.0,4.0,0.0,4.0,1650848921913168.0
-7.0,-4.0,-3.0,-12.0,-1.0,3.0,-17.0,-17.0,1650848921913168.0
-1.0,1.0,-2.0,7.0,0.0,0.0,12.0,0.0,1650848921934254.0
6.0,4.0,2.0,-2.0,1.0,0.0,2.0,22.0,1650848921934254.0
4.0,3.0,-1.0,-10.0,-2.0,-4.0,2.0,4.0,1650848921940240.0
2.0,-2.0,1.0,3.0,4.0,-5.0,-6.0,-6.0,1650848921940240.0
-15.0,-6.0,1.0,3.0,6.0,18.0,6.0,3.0,1650848921948219.0
-2.0,-4.0,-7.0,-1.0,-8.0,-15.0,-14.0,-15.0,1650848921948219.0
-1.0,-2.0,-2.0,3.0,1.0,6.0,5.0,-1.0,1650848921963183.0
3.0,1.0,0.0,-5.0,-7.0,-9.0,-5.0,1.0,1650848921963183.0
-13.0,-1.0,-4.0,0.0,8.0,3.0,-8.0,-5.0,1650848921971179.0
3.0,0.0,0.0,2.0,-2.0,5.0,17.0,-3.0,1650848921971179.0
2.0,-3.0,-2.0,-1.0,8.0,2.0,12.0,18.0,1650848921973152.0
17.0,2.0,-3.0,-9.0,-11.0,-4.0,-2.0,2.0,1650848921973152.0
-16.0,0.0,4.0,2.0,-5.0,-7.0,-16.0,-19.0,1650848921994295.0
-40.0,-2.0,-1.0,-5.0,1.0,-1.0,0.0,8.0,1650848921994295.0
6.0,3.0,-2.0,1.0,0.0,0.0,-11.0,-2.0,1650848921995266.0
-8.0,-1.0,2.0,7.0,-3.0,-9.0,-2.0,-6.0,1650848921995266.0
18.0,-1.0,1.0,-8.0,11.0,15.0,-5.0,9.0,1650848922007260.0
17.0,-4.0,-4.0,-3.0,-6.0,-17.0,-7.0,-12.0,1650848922007260.0
-29.0,-1.0,3.0,11.0,3.0,47.0,30.0,6.0,1650848922016369.0
53.0,0.0,-3.0,-2.0,0.0,-13.0,1.0,14.0,1650848922016369.0
-73.0,-15.0,-2.0,-7.0,-8.0,-6.0,-25.0,-19.0,1650848922032395.0
28.0,10.0,2.0,1.0,-2.0,-1.0,20.0,7.0,1650848922032395.0
-42.0,-17.0,-3.0,-5.0,-1.0,-15.0,-11.0,-13.0,1650848922033326.0
-26.0,6.0,4.0,5.0,2.0,6.0,-13.0,7.0,1650848922033326.0
82.0,-11.0,-10.0,-3.0,-5.0,-19.0,0.0,-20.0,1650848922054298.0
-85.0,-1.0,0.0,-3.0,0.0,4.0,-2.0,0.0,1650848922054298.0
14.0,3.0,6.0,3.0,-4.0,6.0,7.0,-3.0,1650848922055267.0
27.0,-6.0,-11.0,-4.0,0.0,2.0,0.0,-11.0,1650848922055267.0
-59.0,0.0,-1.0,2.0,1.0,-1.0,10.0,15.0,1650848922076296.0
10.0,-12.0,-2.0,-6.0,2.0,1.0,-14.0,-9.0,1650848922076296.0
9.0,-4.0,-3.0,-2.0,-2.0,-9.0,-15.0,-19.0,1650848922078292.0
15.0,5.0,-2.0,0.0,-4.0,-1.0,3.0,14.0,1650848922078292.0
-26.0,31.0,11.0,-3.0,-2.0,0.0,3.0,-3.0,1650848922091286.0
47.0,-3.0,-8.0,-9.0,-2.0,3.0,-5.0,11.0,1650848922091286.0
-55.0,-3.0,-5.0,-4.0,-5.0,-21.0,-8.0,-13.0,1650848922105247.0
58.0,-1.0,2.0,1.0,3.0,5.0,-9.0,-22.0,1650848922105247.0
26.0,-7.0,0.0,1.0,-6.0,0.0,-2.0,-1.0,1650848922115205.0
-6.0,0.0,-1.0,11.0,7.0,8.0,-5.0,-2.0,1650848922115205.0
52.0,6.0,8.0,4.0,11.0,15.0,18.0,10.0,1650848922116191.0
-4.0,12.0,3.0,-1.0,-5.0,6.0,26.0,21.0,1650848922116191.0
-13.0,-15.0,-10.0,-11.0,-15.0,-31.0,-13.0,-3.0,1650848922128158.0
-11.0,4.0,5.0,3.0,1.0,11.0,-13.0,-11.0,1650848922128158.0
37.0,6.0,-8.0,-1.0,-1.0,-10.0,-17.0,0.0,1650848922142150.0
-33.0,3.0,3.0,5.0,11.0,13.0,10.0,-1.0,1650848922142150.0
-34.0,3.0,6.0,6.0,-2.0,-18.0,9.0,-6.0,1650848922151097.0
51.0,-11.0,-8.0,-4.0,0.0,22.0,27.0,24.0,1650848922151097.0
0.0,0.0,-3.0,-14.0,-6.0,-9.0,-13.0,-6.0,1650848922153098.0
29.0,4.0,9.0,11.0,-5.0,-11.0,-1.0,6.0,1650848922153098.0
-18.0,-6.0,-8.0,4.0,9.0,29.0,7.0,6.0,1650848922174035.0
22.0,8.0,4.0,-5.0,-11.0,-22.0,-11.0,-5.0,1650848922174035.0
-34.0,-1.0,2.0,4.0,8.0,8.0,4.0,4.0,1650848922176030.0
-32.0,-12.0,-6.0,-13.0,-4.0,-7.0,0.0,-3.0,1650848922176030.0
93.0,8.0,-4.0,9.0,-2.0,0.0,-2.0,34.0,1650848922188026.0
-45.0,-13.0,-6.0,-4.0,-9.0,-23.0,1.0,-24.0,1650848922188026.0
27.0,10.0,8.0,5.0,0.0,23.0,-5.0,8.0,1650848922196984.0
12.0,2.0,-1.0,0.0,11.0,-14.0,-27.0,-8.0,1650848922196984.0
-66.0,14.0,8.0,0.0,16.0,42.0,41.0,24.0,1650848922218919.0
-14.0,-24.0,-3.0,-6.0,-2.0,-4.0,0.0,-9.0,1650848922218919.0
-11.0,-8.0,-8.0,-6.0,-13.0,-23.0,-6.0,-6.0,1650848922224875.0
-24.0,-1.0,10.0,15.0,6.0,3.0,-1.0,-1.0,1650848922224875.0
4.0,0.0,-8.0,-15.0,-1.0,-2.0,-4.0,1.0,1650848922233573.0
-3.0,12.0,5.0,10.0,1.0,-9.0,-11.0,0.0,1650848922233573.0
-41.0,-14.0,0.0,-2.0,-2.0,-1.0,7.0,-9.0,1650848922241850.0
38.0,-4.0,-6.0,-4.0,-5.0,7.0,3.0,3.0,1650848922241850.0
61.0,6.0,0.0,10.0,0.0,-6.0,-12.0,-4.0,1650848922247899.0
61.0,8.0,0.0,2.0,1.0,4.0,2.0,0.0,1650848922247899.0
21.0,15.0,10.0,6.0,-4.0,-7.0,-12.0,2.0,1650848922256834.0
-3.0,1.0,-4.0,0.0,0.0,7.0,11.0,2.0,1650848922256834.0
4.0,-16.0,-9.0,-4.0,1.0,-6.0,-3.0,-6.0,1650848922271886.0
0.0,7.0,9.0,3.0,1.0,-2.0,-6.0,1.0,1650848922271886.0
11.0,1.0,-14.0,-12.0,-5.0,-1.0,4.0,0.0,1650848922272854.0
-5.0,2.0,-2.0,3.0,-2.0,1.0,2.0,0.0,1650848922272854.0
-51.0,-11.0,5.0,1.0,7.0,1.0,2.0,-22.0,1650848922293797.0
-38.0,-3.0,3.0,-5.0,-3.0,4.0,-2.0,8.0,1650848922293797.0
13.0,1.0,1.0,6.0,12.0,-8.0,6.0,3.0,1650848922295792.0
-50.0,-6.0,-6.0,-7.0,-6.0,19.0,8.0,-5.0,1650848922295792.0
41.0,6.0,0.0,1.0,-1.0,-5.0,-13.0,-7.0,1650848922316803.0
12.0,5.0,-4.0,-1.0,-1.0,2.0,19.0,15.0,1650848922316803.0
3.0,-11.0,0.0,1.0,-8.0,-3.0,0.0,-4.0,1650848922317733.0
-53.0,21.0,7.0,-5.0,2.0,-11.0,-6.0,-1.0,1650848922317733.0
33.0,-23.0,-8.0,-6.0,-3.0,-4.0,-5.0,-6.0,1650848922331709.0
20.0,11.0,-1.0,3.0,-3.0,-11.0,-9.0,1.0,1650848922331709.0
35.0,7.0,5.0,11.0,1.0,9.0,-5.0,6.0,1650848922332693.0
2.0,-14.0,-4.0,-4.0,7.0,9.0,11.0,-3.0,1650848922332693.0
25.0,14.0,0.0,-5.0,0.0,-1.0,-3.0,11.0,1650848922353704.0
-22.0,-3.0,-5.0,-14.0,0.0,-8.0,-3.0,-5.0,1650848922353704.0
28.0,6.0,7.0,13.0,-4.0,-5.0,-3.0,6.0,1650848922355641.0
0.0,6.0,11.0,7.0,-6.0,-5.0,-8.0,-5.0,1650848922355641.0
-7.0,-7.0,-4.0,2.0,-5.0,-4.0,7.0,4.0,1650848922376897.0
-2.0,-10.0,-7.0,-6.0,9.0,8.0,1.0,-2.0,1650848922376897.0
-33.0,-6.0,-7.0,-17.0,-6.0,-21.0,-12.0,-9.0,1650848922377868.0
16.0,11.0,8.0,10.0,4.0,24.0,4.0,2.0,1650848922377868.0
21.0,-3.0,3.0,4.0,1.0,4.0,1.0,5.0,1650848922391857.0
-2.0,-4.0,2.0,1.0,-7.0,1.0,-2.0,-3.0,1650848922391857.0
-24.0,-10.0,-4.0,0.0,9.0,8.0,3.0,-4.0,1650848922392828.0
8.0,-6.0,-3.0,-6.0,6.0,-14.0,2.0,6.0,1650848922392828.0
-6.0,0.0,-3.0,-7.0,-11.0,-9.0,-5.0,3.0,1650848922414511.0
7.0,8.0,0.0,8.0,1.0,6.0,-1.0,-11.0,1650848922414511.0
13.0,5.0,1.0,-8.0,-4.0,-4.0,-2.0,2.0,1650848922415519.0
-16.0,-7.0,-5.0,-7.0,-8.0,-7.0,2.0,-1.0,1650848922415519.0
3.0,9.0,4.0,10.0,4.0,3.0,-1.0,-2.0,1650848922436592.0
8.0,2.0,2.0,-1.0,8.0,1.0,-6.0,-10.0,1650848922436592.0
26.0,0.0,-2.0,3.0,-3.0,0.0,7.0,5.0,1650848922438578.0
0.0,-7.0,-5.0,1.0,3.0,8.0,6.0,0.0,1650848922438578.0
-3.0,15.0,9.0,-3.0,-1.0,2.0,8.0,-3.0,1650848922451533.0
-61.0,-12.0,-5.0,1.0,3.0,-4.0,-3.0,-3.0,1650848922451533.0
11.0,7.0,0.0,-11.0,-9.0,-16.0,-5.0,0.0,1650848922453554.0
-38.0,-7.0,0.0,4.0,-2.0,19.0,-5.0,-6.0,1650848922453554.0
-11.0,-3.0,-2.0,6.0,3.0,-7.0,4.0,-2.0,1650848922474470.0
23.0,-2.0,-1.0,-5.0,-8.0,-4.0,1.0,4.0,1650848922474470.0
-32.0,-4.0,-2.0,1.0,10.0,12.0,6.0,3.0,1650848922475467.0
26.0,-8.0,1.0,-4.0,-4.0,-20.0,-11.0,-2.0,1650848922475467.0
-22.0,13.0,3.0,5.0,5.0,11.0,4.0,3.0,1650848922497420.0
15.0,4.0,-2.0,-6.0,-3.0,2.0,20.0,10.0,1650848922497420.0
-11.0,-7.0,-4.0,5.0,-7.0,-4.0,-9.0,-9.0,1650848922498407.0
-9.0,-3.0,-8.0,-10.0,-7.0,-21.0,-5.0,3.0,1650848922498407.0
0.0,-2.0,2.0,-2.0,-4.0,9.0,-11.0,-8.0,1650848922510408.0
10.0,8.0,11.0,16.0,16.0,12.0,6.0,-4.0,1650848922510408.0
8.0,8.0,-5.0,-3.0,1.0,4.0,8.0,15.0,1650848922517395.0
4.0,-10.0,1.0,-4.0,-3.0,2.0,2.0,-4.0,1650848922517395.0
8.0,-5.0,-5.0,-4.0,-1.0,-14.0,-2.0,0.0,1650848922534338.0
-29.0,-5.0,-2.0,0.0,-8.0,-4.0,-10.0,-5.0,1650848922534338.0
4.0,-3.0,-4.0,-7.0,4.0,9.0,8.0,0.0,1650848922535308.0
-9.0,-8.0,-11.0,-8.0,-7.0,-8.0,0.0,1.0,1650848922535308.0
5.0,0.0,4.0,16.0,3.0,0.0,0.0,-1.0,1650848922556271.0
-36.0,2.0,7.0,-4.0,-6.0,-10.0,-9.0,-5.0,1650848922556271.0
-17.0,-4.0,-4.0,-6.0,-3.0,7.0,-3.0,-8.0,1650848922558246.0
14.0,3.0,-4.0,0.0,-5.0,11.0,3.0,5.0,1650848922558246.0
1.0,-2.0,-1.0,-3.0,5.0,6.0,1.0,0.0,1650848922571246.0
2.0,-8.0,-3.0,-5.0,4.0,-5.0,-3.0,-7.0,1650848922571246.0
3.0,-10.0,-10.0,-5.0,-4.0,-6.0,-4.0,1.0,1650848922577223.0
-78.0,-3.0,4.0,0.0,1.0,-5.0,1.0,-2.0,1650848922577223.0
17.0,2.0,7.0,-1.0,-5.0,-1.0,4.0,18.0,1650848922594176.0
12.0,5.0,0.0,2.0,-12.0,-5.0,-14.0,-6.0,1650848922594176.0
-13.0,2.0,-5.0,-1.0,1.0,-5.0,0.0,-8.0,1650848922595167.0
28.0,-7.0,-5.0,-1.0,-1.0,-1.0,-4.0,-2.0,1650848922595167.0
-7.0,-6.0,-3.0,-2.0,11.0,5.0,0.0,-11.0,1650848922616131.0
-10.0,-3.0,0.0,-6.0,-5.0,4.0,-12.0,3.0,1650848922616131.0
29.0,0.0,1.0,3.0,-4.0,3.0,15.0,7.0,1650848922618087.0
5.0,-2.0,-6.0,-8.0,3.0,-4.0,-3.0,2.0,1650848922618087.0
10.0,13.0,3.0,5.0,0.0,-7.0,-5.0,-3.0,1650848922631052.0
-37.0,5.0,16.0,19.0,5.0,1.0,4.0,3.0,1650848922631052.0
17.0,1.0,-3.0,-3.0,0.0,6.0,0.0,-7.0,1650848922638032.0
15.0,5.0,-3.0,0.0,0.0,-3.0,0.0,-2.0,1650848922638032.0
-35.0,-18.0,-11.0,-11.0,-6.0,-14.0,0.0,1.0,1650848922654026.0
-6.0,-1.0,-8.0,-6.0,7.0,25.0,4.0,-2.0,1650848922654026.0
1.0,1.0,5.0,0.0,13.0,-1.0,-3.0,-1.0,1650848922656004.0
-3.0,0.0,4.0,5.0,0.0,10.0,5.0,-2.0,1650848922656004.0
4.0,1.0,0.0,0.0,-9.0,-15.0,0.0,6.0,1650848922676934.0
49.0,9.0,-1.0,-2.0,-7.0,-1.0,0.0,-1.0,1650848922676934.0
-15.0,-4.0,3.0,0.0,6.0,-5.0,-4.0,-3.0,1650848922677926.0
12.0,4.0,-1.0,0.0,0.0,-5.0,-7.0,-4.0,1650848922677926.0
-60.0,-15.0,-4.0,-10.0,-2.0,-4.0,12.0,-4.0,1650848922690924.0
17.0,8.0,-4.0,-3.0,-6.0,0.0,-2.0,6.0,1650848922690924.0
-7.0,-1.0,2.0,3.0,-3.0,5.0,-8.0,-4.0,1650848922697912.0
25.0,7.0,2.0,7.0,8.0,3.0,4.0,-1.0,1650848922697912.0
23.0,0.0,3.0,2.0,-4.0,7.0,-1.0,2.0,1650848922713926.0
-7.0,-4.0,-4.0,-3.0,2.0,-14.0,0.0,4.0,1650848922713926.0
6.0,-3.0,1.0,0.0,-3.0,-3.0,-8.0,-4.0,1650848922715941.0
-25.0,1.0,0.0,-5.0,0.0,10.0,5.0,1.0,1650848922715941.0
-18.0,-6.0,-1.0,-3.0,-1.0,-5.0,-8.0,-12.0,1650848922736999.0
14.0,-5.0,-5.0,1.0,5.0,1.0,4.0,1.0,1650848922736999.0
-3.0,0.0,-1.0,2.0,-8.0,-3.0,1.0,5.0,1650848922738960.0
34.0,3.0,3.0,4.0,-5.0,-10.0,-6.0,3.0,1650848922738960.0
1.0,10.0,0.0,-5.0,5.0,8.0,6.0,4.0,1650848922750996.0
-9.0,-12.0,-7.0,-6.0,2.0,8.0,0.0,-4.0,1650848922750996.0
-9.0,6.0,11.0,11.0,-2.0,-6.0,1.0,0.0,1650848922757939.0
23.0,5.0,0.0,0.0,4.0,9.0,1.0,-2.0,1650848922757939.0
6.0,-4.0,-5.0,-1.0,-9.0,-3.0,-4.0,4.0,1650848922773887.0
23.0,-8.0,-4.0,-4.0,-1.0,-18.0,-5.0,-2.0,1650848922773887.0
-13.0,2.0,-2.0,-2.0,-4.0,8.0,3.0,3.0,1650848922775862.0
-8.0,1.0,2.0,0.0,-1.0,-6.0,1.0,-1.0,1650848922775862.0
20.0,-3.0,-4.0,-2.0,-2.0,-5.0,-6.0,1.0,1650848922796806.0
-16.0,-1.0,5.0,5.0,8.0,14.0,8.0,1.0,1650848922796806.0
32.0,0.0,-2.0,-3.0,-2.0,-8.0,-7.0,0.0,1650848922797803.0
-55.0,1.0,2.0,-3.0,4.0,-7.0,0.0,-7.0,1650848922797803.0
7.0,7.0,-1.0,-3.0,-4.0,25.0,4.0,0.0,1650848922810795.0
-7.0,-2.0,-3.0,1.0,-10.0,-15.0,-5.0,-1.0,1650848922810795.0
20.0,8.0,2.0,-1.0,-2.0,-3.0,-2.0,4.0,1650848922817817.0
8.0,-9.0,1.0,2.0,6.0,2.0,2.0,5.0,1650848922817817.0
-14.0,6.0,4.0,2.0,6.0,0.0,-4.0,-7.0,1650848922834535.0
9.0,9.0,-1.0,2.0,0.0,5.0,4.0,1.0,1650848922834535.0
-11.0,-10.0,-1.0,-6.0,0.0,3.0,2.0,-4.0,1650848922835535.0
10.0,-1.0,-8.0,-8.0,-6.0,-9.0,-3.0,4.0,1650848922835535.0
13.0,3.0,1.0,5.0,-1.0,-4.0,-4.0,-2.0,1650848922856505.0
-9.0,-1.0,5.0,-1.0,-3.0,-2.0,-3.0,-1.0,1650848922856505.0
6.0,-6.0,0.0,-1.0,3.0,-2.0,-1.0,0.0,1650848922858494.0
7.0,3.0,0.0,4.0,-8.0,0.0,-2.0,-5.0,1650848922858494.0
-1.0,-2.0,-1.0,-2.0,7.0,-5.0,2.0,1.0,1650848922870474.0
7.0,0.0,-4.0,-5.0,7.0,17.0,-2.0,0.0,1650848922870474.0
-18.0,4.0,-5.0,-9.0,-5.0,-4.0,-5.0,-9.0,1650848922879445.0
-3.0,-1.0,6.0,6.0,-10.0,0.0,1.0,6.0,1650848922879445.0
3.0,-6.0,3.0,9.0,11.0,3.0,0.0,-3.0,1650848922893497.0
27.0,12.0,1.0,3.0,-14.0,-23.0,-3.0,1.0,1650848922893497.0
-25.0,-10.0,-5.0,-1.0,6.0,20.0,3.0,-5.0,1650848922901487.0
-3.0,-2.0,-5.0,-10.0,0.0,0.0,2.0,2.0,1650848922901487.0
1.0,-1.0,1.0,-2.0,-3.0,-4.0,-1.0,-6.0,1650848922916892.0
-7.0,-3.0,0.0,2.0,-2.0,-6.0,-1.0,-5.0,1650848922916892.0
13.0,9.0,-1.0,1.0,3.0,5.0,2.0,9.0,1650848922917897.0
-2.0,-6.0,-3.0,-1.0,3.0,-2.0,-3.0,-3.0,1650848922917897.0
26.0,10.0,7.0,10.0,-8.0,-5.0,-5.0,1.0,1650848922929860.0
-29.0,-10.0,-4.0,-5.0,2.0,-2.0,2.0,0.0,1650848922929860.0
1.0,4.0,1.0,-2.0,-3.0,0.0,1.0,2.0,1650848922938835.0
-1.0,2.0,0.0,2.0,0.0,5.0,3.0,0.0,1650848922938835.0
9.0,-3.0,-1.0,-1.0,8.0,2.0,-9.0,-10.0,1650848922953834.0
3.0,-3.0,-1.0,-1.0,-6.0,1.0,4.0,10.0,1650848922953834.0
-4.0,-1.0,3.0,1.0,0.0,-8.0,-4.0,-4.0,1650848922955810.0
-8.0,0.0,-5.0,0.0,-2.0,-6.0,-2.0,-1.0,1650848922955810.0
-10.0,-3.0,-4.0,-11.0,-17.0,-13.0,-4.0,-4.0,1650848922976754.0
11.0,2.0,0.0,5.0,4.0,14.0,0.0,-1.0,1650848922976754.0
1.0,-7.0,-3.0,-1.0,11.0,5.0,4.0,0.0,1650848922977732.0
1.0,4.0,11.0,10.0,-3.0,-8.0,-4.0,-4.0,1650848922977732.0
9.0,-4.0,-4.0,-7.0,-4.0,-2.0,3.0,5.0,1650848922989733.0
29.0,1.0,-2.0,-2.0,-4.0,-15.0,-5.0,0.0,1650848922989733.0
-14.0,-1.0,-4.0,4.0,-3.0,-3.0,-2.0,-2.0,1650848922999672.0
-2.0,-2.0,-3.0,-6.0,7.0,10.0,-1.0,-3.0,1650848922999672.0
0.0,0.0,-6.0,-4.0,-5.0,-6.0,-1.0,5.0,1650848923013644.0
-4.0,-3.0,1.0,1.0,-2.0,1.0,2.0,1.0,1650848923013644.0
3.0,1.0,4.0,10.0,4.0,3.0,-2.0,-1.0,1650848923015630.0
-5.0,3.0,1.0,-2.0,-8.0,-9.0,0.0,3.0,1650848923015630.0
-9.0,0.0,-3.0,1.0,12.0,16.0,2.0,2.0,1650848923036608.0
-6.0,-4.0,-3.0,-5.0,4.0,4.0,3.0,1.0,1650848923036608.0
-5.0,-2.0,1.0,-2.0,-10.0,-7.0,-6.0,-7.0,1650848923038569.0
-16.0,-6.0,-1.0,1.0,5.0,-1.0,3.0,5.0,1650848923038569.0
2.0,6.0,2.0,2.0,-3.0,-7.0,-1.0,-1.0,1650848923050603.0
-4.0,2.0,1.0,-3.0,4.0,5.0,-1.0,-1.0,1650848923050603.0
1.0,0.0,1.0,-5.0,-6.0,-11.0,-4.0,-6.0,1650848923059540.0
7.0,0.0,-4.0,3.0,-4.0,-1.0,-4.0,-1.0,1650848923059540.0
-8.0,-6.0,-2.0,-1.0,3.0,18.0,0.0,-2.0,1650848923074472.0
-13.0,-6.0,0.0,0.0,3.0,-13.0,-1.0,-3.0,1650848923074472.0
1.0,7.0,2.0,-2.0,-6.0,0.0,4.0,10.0,1650848923075478.0
7.0,0.0,0.0,1.0,6.0,3.0,0.0,0.0,1650848923075478.0
-7.0,-8.0,-6.0,-5.0,-7.0,-11.0,-2.0,-3.0,1650848923096524.0
-2.0,7.0,11.0,6.0,0.0,-1.0,-4.0,-6.0,1650848923096524.0
4.0,-2.0,-4.0,-2.0,4.0,10.0,1.0,3.0,1650848923098494.0
0.0,-3.0,-2.0,-8.0,9.0,4.0,2.0,1.0,1650848923098494.0
-1.0,8.0,0.0,-2.0,-3.0,0.0,-1.0,1.0,1650848923110127.0
-2.0,-8.0,-6.0,3.0,-3.0,-4.0,1.0,1.0,1650848923110127.0
1.0,-1.0,0.0,5.0,-5.0,-4.0,-1.0,1.0,1650848923119076.0
3.0,0.0,1.0,-4.0,3.0,3.0,-2.0,-1.0,1650848923119076.0
-1.0,-5.0,4.0,7.0,7.0,-3.0,0.0,-2.0,1650848923134474.0
-1.0,4.0,-3.0,-10.0,-9.0,-4.0,1.0,0.0,1650848923134474.0
-4.0,-4.0,-15.0,-6.0,-7.0,13.0,-1.0,-5.0,1650848923135474.0
2.0,-2.0,1.0,1.0,4.0,-6.0,1.0,-2.0,1650848923135474.0
1.0,3.0,3.0,0.0,-1.0,-6.0,-3.0,0.0,1650848923156501.0
-3.0,-1.0,7.0,-1.0,1.0,3.0,-2.0,-1.0,1650848923156501.0
-1.0,-2.0,1.0,-3.0,-5.0,-18.0,-2.0,0.0,1650848923158496.0
0.0,2.0,-4.0,4.0,-2.0,3.0,-6.0,-3.0,1650848923158496.0
0.0,-1.0,1.0,-1.0,6.0,12.0,13.0,2.0,1650848923170465.0
-1.0,-2.0,-6.0,-4.0,-7.0,-4.0,0.0,2.0,1650848923170465.0
2.0,1.0,3.0,0.0,4.0,-3.0,-1.0,-1.0,1650848923179440.0
0.0,-3.0,-3.0,1.0,-8.0,-13.0,-6.0,-2.0,1650848923179440.0
-2.0,-3.0,2.0,2.0,0.0,-4.0,-5.0,-3.0,1650848923193546.0
-1.0,0.0,1.0,6.0,11.0,16.0,1.0,-1.0,1650848923193546.0
-1.0,-3.0,0.0,1.0,-2.0,-10.0,2.0,-1.0,1650848923195516.0
-2.0,-3.0,0.0,-5.0,-3.0,-2.0,-1.0,0.0,1650848923195516.0
1.0,-1.0,-2.0,0.0,-6.0,4.0,1.0,0.0,1650848923216895.0
1.0,1.0,-4.0,2.0,4.0,3.0,3.0,3.0,1650848923216895.0
-1.0,0.0,3.0,-1.0,0.0,0.0,-2.0,-1.0,1650848923217895.0
-1.0,-2.0,0.0,-2.0,-3.0,-2.0,1.0,0.0,1650848923217895.0
0.0,0.0,0.0,1.0,1.0,0.0,-2.0,-1.0,1650848923229862.0
-1.0,-1.0,3.0,0.0,-3.0,-6.0,-1.0,0.0,1650848923229862.0
-2.0,-4.0,-13.0,-4.0,-3.0,1.0,-4.0,-4.0,1650848923238860.0
-1.0,1.0,6.0,1.0,-11.0,-8.0,1.0,1.0,1650848923238860.0
-1.0,1.0,-3.0,1.0,2.0,7.0,1.0,3.0,1650848923253798.0
1.0,0.0,3.0,0.0,12.0,9.0,4.0,1.0,1650848923253798.0
0.0,4.0,3.0,1.0,-4.0,-11.0,-3.0,-4.0,1650848923255793.0
4.0,-1.0,-8.0,-4.0,1.0,21.0,3.0,1.0,1650848923255793.0
-2.0,-3.0,0.0,5.0,-10.0,-19.0,-5.0,-4.0,1650848923276691.0
-2.0,1.0,-1.0,-6.0,-2.0,-4.0,-3.0,-2.0,1650848923276691.0
1.0,-1.0,5.0,3.0,8.0,7.0,1.0,2.0,1650848923277661.0
0.0,1.0,-2.0,-2.0,-3.0,-7.0,-1.0,-1.0,1650848923277661.0
-1.0,-3.0,-4.0,-2.0,-5.0,-13.0,-3.0,-1.0,1650848923298606.0
1.0,1.0,-2.0,4.0,6.0,24.0,4.0,0.0,1650848923298606.0
-2.0,-4.0,3.0,-5.0,-6.0,-23.0,-2.0,-2.0,1650848923300277.0
-1.0,6.0,4.0,1.0,0.0,17.0,-1.0,0.0,1650848923300277.0
0.0,-1.0,2.0,0.0,9.0,9.0,4.0,1.0,1650848923314180.0
-2.0,-6.0,-4.0,0.0,-11.0,-19.0,-6.0,-4.0,1650848923314180.0
-1.0,1.0,2.0,-2.0,0.0,1.0,0.0,-1.0,1650848923315177.0
-1.0,-4.0,5.0,-4.0,-6.0,4.0,0.0,-2.0,1650848923315177.0
0.0,1.0,-1.0,0.0,4.0,-3.0,-1.0,1.0,1650848923336227.0
-1.0,-1.0,-17.0,-10.0,-11.0,-5.0,-1.0,1.0,1650848923336227.0
0.0,1.0,6.0,3.0,16.0,9.0,1.0,2.0,1650848923338245.0
-5.0,-6.0,-1.0,3.0,-10.0,-17.0,-6.0,-4.0,1650848923338245.0
-2.0,3.0,-13.0,3.0,-2.0,9.0,2.0,2.0,1650848923359195.0
0.0,-3.0,9.0,-4.0,1.0,-9.0,-3.0,-2.0,1650848923359195.0
-1.0,-1.0,-17.0,-6.0,-7.0,10.0,1.0,0.0,1650848923361163.0
4.0,4.0,8.0,9.0,16.0,10.0,1.0,2.0,1650848923361163.0
0.0,-8.0,-2.0,-7.0,-5.0,-4.0,-1.0,1.0,1650848923374128.0
-1.0,5.0,3.0,1.0,1.0,-7.0,-2.0,-2.0,1650848923374128.0
-1.0,2.0,0.0,3.0,-2.0,0.0,-1.0,-1.0,1650848923376126.0
-2.0,-2.0,-4.0,-5.0,-4.0,-19.0,-3.0,-3.0,1650848923376126.0
2.0,-2.0,-4.0,-4.0,2.0,21.0,6.0,6.0,1650848923396097.0
1.0,0.0,3.0,-1.0,-2.0,5.0,2.0,2.0,1650848923396097.0
-1.0,0.0,10.0,11.0,3.0,4.0,1.0,0.0,1650848923398065.0
4.0,5.0,6.0,-2.0,6.0,-1.0,1.0,2.0,1650848923398065.0
-3.0,-8.0,-23.0,-4.0,-5.0,-11.0,-6.0,-5.0,1650848923419076.0
-2.0,0.0,-5.0,-5.0,-5.0,0.0,3.0,1.0,1650848923419076.0
-1.0,1.0,10.0,1.0,1.0,3.0,-2.0,-1.0,1650848923421020.0
1.0,-3.0,-8.0,0.0,-5.0,-5.0,1.0,1.0,1650848923421020.0
0.0,3.0,-3.0,-3.0,2.0,1.0,-1.0,1.0,1650848923433034.0
1.0,0.0,-6.0,0.0,0.0,0.0,-1.0,-2.0,1650848923433034.0
-4.0,-6.0,-6.0,-9.0,-4.0,-7.0,-2.0,-2.0,1650848923447931.0
3.0,2.0,4.0,4.0,6.0,9.0,3.0,2.0,1650848923447931.0
-5.0,-3.0,8.0,-3.0,0.0,-1.0,1.0,-2.0,1650848923456297.0
-1.0,2.0,1.0,2.0,-5.0,-3.0,-2.0,-3.0,1650848923456297.0
8.0,-4.0,6.0,-2.0,1.0,3.0,2.0,3.0,1650848923456827.0
-3.0,-4.0,-1.0,3.0,1.0,-3.0,0.0,1.0,1650848923456827.0
-2.0,3.0,3.0,1.0,-5.0,-1.0,-1.0,-1.0,1650848923478770.0
-1.0,-1.0,11.0,10.0,8.0,0.0,0.0,0.0,1650848923478770.0
-5.0,3.0,-6.0,-2.0,-10.0,-9.0,-2.0,-1.0,1650848923478770.0
1.0,-2.0,-9.0,-5.0,2.0,8.0,3.0,2.0,1650848923478770.0
-3.0,0.0,5.0,-7.0,0.0,-5.0,-2.0,-3.0,1650848923492754.0
-4.0,-5.0,-6.0,3.0,-7.0,-6.0,-3.0,-3.0,1650848923492754.0
6.0,8.0,2.0,1.0,10.0,6.0,2.0,2.0,1650848923500779.0
-1.0,4.0,4.0,-5.0,-6.0,-3.0,0.0,-1.0,1650848923500779.0
-5.0,-2.0,-4.0,-1.0,-5.0,-10.0,-2.0,-2.0,1650848923515673.0
-1.0,2.0,1.0,10.0,6.0,4.0,-4.0,-2.0,1650848923515673.0
0.0,-3.0,1.0,4.0,7.0,15.0,5.0,3.0,1650848923516670.0
-3.0,1.0,-3.0,-4.0,-1.0,-2.0,1.0,-3.0,1650848923516670.0
2.0,0.0,-1.0,-6.0,-3.0,-2.0,-1.0,0.0,1650848923538610.0
0.0,-5.0,-3.0,-8.0,-9.0,-8.0,-2.0,-2.0,1650848923538610.0
-5.0,-1.0,-1.0,-1.0,-8.0,-6.0,-3.0,-3.0,1650848923538610.0
3.0,5.0,5.0,9.0,6.0,-5.0,-1.0,2.0,1650848923538610.0
1.0,1.0,8.0,6.0,14.0,24.0,4.0,0.0,1650848923552640.0
-1.0,-9.0,-7.0,-12.0,-10.0,-15.0,-3.0,-2.0,1650848923552640.0
0.0,7.0,-1.0,0.0,-1.0,-1.0,-4.0,-1.0,1650848923560580.0
7.0,10.0,-6.0,-6.0,-2.0,16.0,10.0,3.0,1650848923560580.0
-2.0,-18.0,5.0,4.0,1.0,-8.0,0.0,0.0,1650848923575540.0
2.0,7.0,2.0,-5.0,2.0,2.0,-3.0,-2.0,1650848923575540.0
-4.0,-5.0,-1.0,1.0,-8.0,-12.0,-6.0,-3.0,1650848923576509.0
-8.0,2.0,6.0,16.0,18.0,-3.0,-4.0,-1.0,1650848923576509.0
9.0,8.0,-2.0,-2.0,-3.0,5.0,3.0,1.0,1650848923598452.0
-2.0,-1.0,4.0,11.0,3.0,7.0,3.0,0.0,1650848923598452.0
0.0,-3.0,-6.0,-11.0,0.0,-1.0,0.0,-2.0,1650848923605432.0
-4.0,-2.0,-2.0,-10.0,-13.0,-6.0,-6.0,-2.0,1650848923605432.0
-1.0,4.0,3.0,7.0,7.0,4.0,2.0,1.0,1650848923612441.0
-1.0,2.0,-6.0,-7.0,-6.0,-3.0,-2.0,0.0,1650848923612441.0
-1.0,-5.0,-7.0,-8.0,-11.0,-6.0,-1.0,-3.0,1650848923620392.0
1.0,-12.0,-6.0,-2.0,10.0,9.0,2.0,1.0,1650848923620392.0
0.0,4.0,7.0,4.0,-4.0,-6.0,-2.0,-2.0,1650848923636376.0
-3.0,-3.0,-5.0,-4.0,-5.0,-10.0,-3.0,0.0,1650848923636376.0
2.0,1.0,1.0,4.0,12.0,27.0,9.0,5.0,1650848923636376.0
-4.0,-4.0,0.0,-4.0,-11.0,-13.0,-3.0,-2.0,1650848923636376.0
-2.0,-1.0,-2.0,-4.0,-9.0,-5.0,-4.0,-1.0,1650848923658319.0
-1.0,-1.0,0.0,0.0,0.0,-10.0,0.0,-1.0,1650848923658319.0
1.0,0.0,2.0,2.0,2.0,8.0,-1.0,-1.0,1650848923659316.0
4.0,1.0,1.0,1.0,-3.0,-2.0,0.0,1.0,1650848923659316.0
-2.0,2.0,1.0,-1.0,10.0,2.0,-1.0,-1.0,1650848923672310.0
0.0,2.0,-3.0,0.0,-6.0,4.0,2.0,1.0,1650848923672310.0
-2.0,-4.0,2.0,3.0,-4.0,-9.0,-1.0,-1.0,1650848923681259.0
-2.0,-5.0,-5.0,0.0,-3.0,2.0,-3.0,-3.0,1650848923681259.0
1.0,-1.0,-1.0,-9.0,-18.0,-9.0,-3.0,-2.0,1650848923696238.0
-2.0,2.0,5.0,10.0,16.0,8.0,0.0,3.0,1650848923696238.0
-3.0,-1.0,1.0,4.0,2.0,-11.0,0.0,0.0,1650848923696238.0
0.0,2.0,2.0,4.0,14.0,31.0,8.0,2.0,1650848923696238.0
2.0,-5.0,-3.0,0.0,-1.0,-7.0,-3.0,0.0,1650848923726159.0
1.0,-5.0,-4.0,-11.0,-7.0,-4.0,-1.0,-2.0,1650848923726159.0
1.0,5.0,-2.0,-5.0,-9.0,0.0,2.0,1.0,1650848923727135.0
-4.0,-5.0,0.0,3.0,2.0,-7.0,-2.0,-1.0,1650848923727135.0
1.0,1.0,-4.0,-1.0,-8.0,-4.0,-2.0,-3.0,1650848923733120.0
2.0,1.0,2.0,0.0,-2.0,-16.0,-4.0,1.0,1650848923733120.0
1.0,0.0,-1.0,5.0,12.0,22.0,3.0,-1.0,1650848923741099.0
0.0,1.0,0.0,-6.0,-6.0,7.0,0.0,0.0,1650848923741099.0
-1.0,0.0,1.0,-1.0,-1.0,1.0,1.0,-1.0,1650848923756234.0
1.0,-1.0,0.0,-1.0,1.0,-6.0,-1.0,0.0,1650848923756234.0
-2.0,-2.0,-2.0,-1.0,0.0,2.0,-4.0,-3.0,1650848923756234.0
-4.0,1.0,-2.0,1.0,-5.0,-13.0,-3.0,0.0,1650848923756234.0
3.0,4.0,3.0,2.0,5.0,5.0,4.0,4.0,1650848923778175.0
-3.0,-4.0,2.0,1.0,-1.0,7.0,-1.0,-4.0,1650848923778175.0
1.0,-1.0,-4.0,-3.0,-1.0,-9.0,-2.0,1.0,1650848923779173.0
3.0,-2.0,2.0,-1.0,0.0,2.0,0.0,-2.0,1650848923779173.0
-2.0,0.0,1.0,4.0,-2.0,-6.0,-2.0,-1.0,1650848923793143.0
1.0,-3.0,1.0,4.0,6.0,10.0,3.0,4.0,1650848923793143.0
-1.0,-3.0,0.0,-1.0,7.0,5.0,3.0,1.0,1650848923801183.0
-3.0,-2.0,-4.0,-6.0,-9.0,-14.0,-5.0,-3.0,1650848923801183.0
1.0,-1.0,2.0,5.0,0.0,-1.0,0.0,0.0,1650848923816074.0
0.0,3.0,2.0,1.0,2.0,7.0,-1.0,-1.0,1650848923816074.0
-1.0,-1.0,1.0,-2.0,-3.0,-6.0,-2.0,-2.0,1650848923817079.0
0.0,-8.0,-10.0,0.0,1.0,-6.0,-1.0,-2.0,1650848923817079.0
0.0,2.0,-2.0,0.0,-13.0,0.0,-1.0,0.0,1650848923838201.0
-3.0,1.0,-1.0,1.0,14.0,13.0,1.0,0.0,1650848923838201.0
4.0,-1.0,2.0,-5.0,-2.0,-10.0,0.0,-1.0,1650848923839144.0
1.0,2.0,1.0,2.0,-4.0,-14.0,-2.0,-1.0,1650848923839144.0
0.0,-4.0,0.0,0.0,13.0,29.0,6.0,2.0,1650848923853177.0
-1.0,-4.0,-2.0,-5.0,-7.0,-4.0,-2.0,-1.0,1650848923853177.0
1.0,6.0,1.0,7.0,-4.0,-6.0,-5.0,-2.0,1650848923861208.0
1.0,-6.0,0.0,-3.0,-7.0,-16.0,-1.0,1.0,1650848923861208.0
0.0,0.0,1.0,0.0,3.0,7.0,-2.0,-3.0,1650848923884517.0
-1.0,0.0,0.0,1.0,4.0,11.0,9.0,2.0,1650848923884517.0
-1.0,0.0,-1.0,1.0,3.0,-2.0,-1.0,-1.0,1650848923884517.0
2.0,1.0,-4.0,-5.0,-12.0,2.0,-1.0,0.0,1650848923884517.0
-4.0,1.0,0.0,0.0,5.0,-15.0,-5.0,-3.0,1650848923898482.0
3.0,5.0,3.0,1.0,-4.0,-3.0,-1.0,0.0,1650848923898482.0
-1.0,-2.0,-1.0,-1.0,3.0,11.0,1.0,-1.0,1650848923899480.0
-3.0,-3.0,0.0,-5.0,-6.0,-2.0,0.0,-1.0,1650848923899480.0
2.0,7.0,-1.0,1.0,2.0,1.0,3.0,1.0,1650848923921448.0
0.0,-2.0,-4.0,3.0,0.0,-2.0,-1.0,0.0,1650848923921448.0
-3.0,-3.0,-2.0,-5.0,-2.0,-6.0,-1.0,0.0,1650848923922417.0
-3.0,1.0,4.0,1.0,-9.0,-18.0,-5.0,-3.0,1650848923922417.0
0.0,-2.0,-3.0,-2.0,13.0,32.0,5.0,2.0,1650848923935468.0
-1.0,-1.0,1.0,-4.0,-10.0,-9.0,-1.0,-4.0,1650848923935468.0
0.0,-3.0,-2.0,-6.0,0.0,-8.0,-2.0,-1.0,1650848923936467.0
-4.0,-3.0,-6.0,-2.0,-3.0,0.0,-1.0,-1.0,1650848923936467.0
0.0,-2.0,1.0,0.0,-8.0,-3.0,-1.0,0.0,1650848923957869.0
4.0,5.0,0.0,1.0,5.0,0.0,-2.0,-2.0,1650848923957869.0
4.0,-2.0,0.0,1.0,-12.0,0.0,2.0,2.0,1650848923958850.0
0.0,4.0,6.0,5.0,15.0,6.0,0.0,-1.0,1650848923958850.0
-3.0,-1.0,-1.0,-5.0,-2.0,-12.0,0.0,-3.0,1650848923972826.0
-4.0,-4.0,-1.0,-3.0,-4.0,3.0,-2.0,0.0,1650848923972826.0
-3.0,0.0,-5.0,1.0,-7.0,-17.0,-4.0,-1.0,1650848923980805.0
2.0,-1.0,-2.0,0.0,12.0,40.0,11.0,3.0,1650848923980805.0
-5.0,-1.0,-2.0,-7.0,-12.0,-22.0,-6.0,-4.0,1650848924003783.0
4.0,6.0,6.0,8.0,0.0,7.0,0.0,1.0,1650848924003783.0
4.0,1.0,1.0,3.0,17.0,9.0,4.0,2.0,1650848924004714.0
-3.0,-1.0,-3.0,-8.0,-7.0,-11.0,-3.0,-3.0,1650848924004714.0
-2.0,-3.0,0.0,3.0,0.0,-2.0,0.0,1.0,1650848924026654.0
-4.0,-4.0,-6.0,-7.0,-13.0,-31.0,-4.0,-3.0,1650848924026654.0
-3.0,-3.0,-3.0,5.0,-5.0,17.0,-2.0,-1.0,1650848924027652.0
4.0,4.0,8.0,10.0,21.0,16.0,6.0,4.0,1650848924027652.0
1.0,-1.0,-3.0,-3.0,2.0,-2.0,2.0,0.0,1650848924032646.0
-2.0,-2.0,0.0,-3.0,-11.0,-3.0,-2.0,-2.0,1650848924032646.0
-1.0,-3.0,0.0,-4.0,0.0,-11.0,-2.0,0.0,1650848924040638.0
-1.0,0.0,-10.0,-3.0,-8.0,-7.0,-2.0,-2.0,1650848924040638.0
1.0,2.0,5.0,0.0,-1.0,0.0,-1.0,1.0,1650848924055577.0
1.0,-4.0,-2.0,1.0,4.0,6.0,1.0,-3.0,1650848924055577.0
-4.0,0.0,1.0,1.0,-3.0,0.0,-1.0,-2.0,1650848924056574.0
-1.0,-1.0,0.0,-1.0,-11.0,-10.0,-2.0,-2.0,1650848924056574.0
5.0,5.0,-1.0,1.0,9.0,5.0,0.0,2.0,1650848924078543.0
-2.0,-1.0,-1.0,1.0,14.0,9.0,2.0,1.0,1650848924078543.0
-1.0,2.0,3.0,-2.0,-9.0,-7.0,-1.0,-1.0,1650848924079534.0
0.0,-1.0,-2.0,1.0,3.0,-4.0,-3.0,-1.0,1650848924079534.0
-5.0,-4.0,-1.0,1.0,-7.0,-6.0,-3.0,-2.0,1650848924092478.0
-1.0,0.0,-2.0,-2.0,0.0,6.0,1.0,0.0,1650848924092478.0
-2.0,-3.0,-3.0,-1.0,-1.0,-2.0,1.0,-1.0,1650848924101468.0
-3.0,1.0,2.0,0.0,-9.0,-28.0,-6.0,0.0,1650848924101468.0
1.0,3.0,0.0,8.0,15.0,42.0,5.0,0.0,1650848924115417.0
-1.0,-6.0,1.0,1.0,-9.0,-4.0,0.0,0.0,1650848924115417.0
-2.0,-1.0,1.0,-5.0,9.0,-2.0,-1.0,1.0,1650848924116428.0
0.0,1.0,-5.0,-8.0,-6.0,4.0,1.0,0.0,1650848924116428.0
2.0,1.0,-3.0,1.0,-6.0,-20.0,-5.0,-1.0,1650848924138941.0
1.0,6.0,5.0,0.0,1.0,1.0,-2.0,0.0,1650848924138941.0
-1.0,-5.0,-4.0,-1.0,1.0,4.0,1.0,0.0,1650848924139930.0
-4.0,4.0,1.0,1.0,0.0,-9.0,-4.0,-3.0,1650848924139930.0
-2.0,-2.0,-5.0,-5.0,-6.0,5.0,1.0,-1.0,1650848924153122.0
0.0,-2.0,0.0,-2.0,-2.0,-5.0,2.0,2.0,1650848924153122.0
-1.0,-1.0,0.0,2.0,3.0,15.0,1.0,-1.0,1650848924160907.0
0.0,-1.0,1.0,-2.0,4.0,4.0,2.0,0.0,1650848924160907.0
0.0,-4.0,1.0,-4.0,-8.0,-19.0,-5.0,-4.0,1650848924175895.0
1.0,-2.0,-3.0,2.0,-1.0,1.0,-1.0,0.0,1650848924175895.0
0.0,3.0,-1.0,5.0,6.0,1.0,-2.0,1.0,1650848924176885.0
0.0,-2.0,4.0,0.0,9.0,23.0,1.0,0.0,1650848924176885.0
-1.0,-1.0,3.0,-4.0,-8.0,-9.0,1.0,1.0,1650848924198818.0
1.0,-1.0,-4.0,0.0,-2.0,-2.0,-3.0,-1.0,1650848924198818.0
2.0,1.0,-3.0,-4.0,-6.0,-11.0,-1.0,-1.0,1650848924198818.0
1.0,-1.0,-2.0,-6.0,2.0,5.0,-1.0,0.0,1650848924198818.0
-1.0,1.0,-2.0,-1.0,-11.0,-23.0,-4.0,1.0,1650848924221747.0
-1.0,-1.0,4.0,13.0,11.0,26.0,4.0,2.0,1650848924221747.0
0.0,5.0,4.0,-4.0,3.0,1.0,0.0,0.0,1650848924222742.0
-1.0,-2.0,-4.0,0.0,-6.0,-8.0,-1.0,-2.0,1650848924222742.0
3.0,-1.0,-1.0,-3.0,4.0,16.0,6.0,0.0,1650848924235775.0
-1.0,-5.0,-7.0,-11.0,-5.0,-11.0,-4.0,-1.0,1650848924235775.0
1.0,-2.0,-2.0,-2.0,-12.0,-4.0,-3.0,-1.0,1650848924236704.0
0.0,1.0,1.0,5.0,5.0,0.0,0.0,0.0,1650848924236704.0
-2.0,-1.0,3.0,2.0,4.0,-3.0,-1.0,-1.0,1650848924258674.0
0.0,0.0,-2.0,-2.0,-1.0,0.0,1.0,0.0,1650848924258674.0
0.0,0.0,0.0,3.0,3.0,3.0,0.0,1.0,1650848924258674.0
1.0,0.0,-3.0,-3.0,-10.0,-8.0,-3.0,-2.0,1650848924258674.0
-2.0,-2.0,0.0,-1.0,0.0,-9.0,-4.0,-3.0,1650848924281584.0
0.0,-2.0,-3.0,4.0,4.0,17.0,4.0,0.0,1650848924281584.0
-1.0,1.0,-1.0,-5.0,-2.0,-6.0,-3.0,0.0,1650848924282583.0
2.0,-1.0,5.0,-2.0,3.0,7.0,0.0,0.0,1650848924282583.0
-1.0,-3.0,-2.0,3.0,6.0,3.0,-1.0,-1.0,1650848924295547.0
0.0,2.0,1.0,1.0,-1.0,-12.0,-4.0,-3.0,1650848924295547.0
-2.0,-3.0,-5.0,-5.0,-12.0,-16.0,-1.0,-1.0,1650848924296546.0
-1.0,1.0,0.0,1.0,-5.0,12.0,0.0,0.0,1650848924296546.0
1.0,-1.0,-3.0,-3.0,2.0,-14.0,0.0,2.0,1650848924318554.0
-1.0,3.0,0.0,-6.0,6.0,16.0,2.0,3.0,1650848924318554.0
1.0,-5.0,-4.0,0.0,8.0,-3.0,-1.0,-1.0,1650848924319511.0
-1.0,-2.0,3.0,2.0,6.0,27.0,7.0,1.0,1650848924319511.0
-2.0,3.0,1.0,0.0,-9.0,-10.0,-5.0,-2.0,1650848924341517.0
-2.0,-1.0,1.0,-9.0,-2.0,-10.0,-4.0,-2.0,1650848924341517.0
0.0,0.0,-3.0,-2.0,-6.0,-6.0,-1.0,1.0,1650848924342505.0
-2.0,-5.0,-3.0,6.0,-3.0,-12.0,-2.0,-1.0,1650848924342505.0
0.0,1.0,0.0,-5.0,6.0,13.0,3.0,-1.0,1650848924355679.0
1.0,1.0,-2.0,0.0,2.0,-1.0,1.0,-3.0,1650848924355679.0
1.0,-2.0,8.0,5.0,-5.0,-2.0,-1.0,-3.0,1650848924356676.0
-1.0,-2.0,-2.0,1.0,0.0,-7.0,-3.0,0.0,1650848924356676.0
-1.0,1.0,-1.0,0.0,5.0,13.0,1.0,1.0,1650848924378617.0
1.0,-2.0,-5.0,-4.0,-4.0,-6.0,-1.0,-1.0,1650848924378617.0
-2.0,2.0,2.0,-1.0,-2.0,2.0,-1.0,0.0,1650848924379627.0
0.0,1.0,-2.0,-3.0,-7.0,-12.0,-2.0,-1.0,1650848924379627.0
-1.0,-1.0,2.0,3.0,7.0,6.0,0.0,-2.0,1650848924401556.0
0.0,-5.0,-1.0,-2.0,1.0,-2.0,0.0,2.0,1650848924401556.0
1.0,1.0,-1.0,1.0,-5.0,0.0,1.0,-1.0,1650848924402566.0
-1.0,-1.0,-2.0,-8.0,-3.0,-8.0,-3.0,-1.0,1650848924402566.0
-2.0,1.0,2.0,4.0,-7.0,-34.0,-5.0,1.0,1650848924415546.0
2.0,1.0,2.0,-1.0,7.0,49.0,4.0,1.0,1650848924415546.0
-2.0,-4.0,-1.0,-6.0,3.0,-3.0,4.0,0.0,1650848924416517.0
-2.0,0.0,1.0,8.0,-3.0,-6.0,-4.0,-2.0,1650848924416517.0
0.0,-1.0,-3.0,-1.0,-5.0,-6.0,0.0,0.0,1650848924437969.0
-2.0,-2.0,-1.0,2.0,-6.0,-32.0,-8.0,-2.0,1650848924437969.0
1.0,2.0,3.0,1.0,17.0,44.0,8.0,2.0,1650848924438899.0
-1.0,-1.0,2.0,-2.0,-4.0,-3.0,-3.0,-3.0,1650848924438899.0
0.0,-3.0,-4.0,3.0,-15.0,-5.0,-2.0,-2.0,1650848924461865.0
0.0,2.0,-1.0,0.0,3.0,-12.0,-2.0,1.0,1650848924461865.0
-1.0,0.0,1.0,-1.0,-3.0,1.0,-3.0,0.0,1650848924461865.0
0.0,-1.0,-3.0,-2.0,10.0,4.0,5.0,1.0,1650848924461865.0
-2.0,-2.0,-1.0,0.0,-7.0,6.0,-1.0,-1.0,1650848924475800.0
2.0,1.0,2.0,5.0,3.0,-1.0,-2.0,-2.0,1650848924475800.0
-1.0,-3.0,-3.0,1.0,-20.0,-36.0,-8.0,-3.0,1650848924476797.0
-1.0,2.0,-4.0,-1.0,12.0,34.0,2.0,2.0,1650848924476797.0
1.0,0.0,-1.0,-5.0,1.0,2.0,3.0,0.0,1650848924498779.0
-2.0,-1.0,-4.0,-2.0,-6.0,-4.0,-1.0,-2.0,1650848924498779.0
-1.0,-3.0,0.0,5.0,8.0,4.0,2.0,0.0,1650848924498779.0
-1.0,3.0,5.0,-4.0,-13.0,-17.0,-2.0,-3.0,1650848924498779.0
-1.0,-1.0,0.0,5.0,1.0,4.0,-2.0,-1.0,1650848924521705.0
-1.0,0.0,-1.0,0.0,5.0,1.0,2.0,1.0,1650848924521705.0
1.0,-1.0,-3.0,-3.0,-6.0,-5.0,-3.0,-3.0,1650848924522675.0
-2.0,-3.0,-4.0,1.0,-1.0,-10.0,-4.0,1.0,1650848924522675.0
1.0,0.0,1.0,-1.0,0.0,19.0,8.0,4.0,1650848924536296.0
-1.0,1.0,0.0,2.0,11.0,0.0,1.0,0.0,1650848924536296.0
-1.0,-1.0,-3.0,-5.0,-3.0,0.0,-1.0,-2.0,1650848924536825.0
-1.0,-4.0,-2.0,3.0,-1.0,-8.0,-1.0,-2.0,1650848924536825.0
0.0,2.0,4.0,0.0,-2.0,-5.0,-4.0,-1.0,1650848924558791.0
-3.0,-4.0,-3.0,-8.0,-11.0,0.0,1.0,-1.0,1650848924558791.0
1.0,2.0,-1.0,2.0,2.0,3.0,0.0,0.0,1650848924558791.0
0.0,1.0,2.0,2.0,15.0,6.0,1.0,1.0,1650848924558791.0
-1.0,-3.0,1.0,-8.0,-5.0,-1.0,-2.0,-3.0,1650848924580738.0
1.0,0.0,6.0,12.0,-5.0,-1.0,0.0,0.0,1650848924580738.0
-2.0,0.0,3.0,1.0,-11.0,-28.0,-5.0,0.0,1650848924581708.0
1.0,1.0,-3.0,-11.0,10.0,35.0,6.0,2.0,1650848924581708.0
-2.0,4.0,-3.0,2.0,2.0,4.0,1.0,-1.0,1650848924595669.0
-1.0,-3.0,-5.0,-13.0,1.0,-6.0,-2.0,-2.0,1650848924595669.0
-4.0,-2.0,2.0,7.0,-11.0,-5.0,-1.0,-2.0,1650848924596667.0
0.0,-2.0,5.0,10.0,-11.0,-15.0,-2.0,-2.0,1650848924596667.0
-1.0,-3.0,-7.0,-8.0,13.0,6.0,-1.0,1.0,1650848924618676.0
-1.0,-3.0,-5.0,-12.0,-7.0,0.0,0.0,0.0,1650848924618676.0
1.0,1.0,4.0,4.0,3.0,4.0,1.0,0.0,1650848924618676.0
0.0,2.0,4.0,8.0,5.0,-3.0,0.0,0.0,1650848924618676.0
0.0,-2.0,-1.0,-3.0,-15.0,-18.0,-4.0,-1.0,1650848924640619.0
0.0,0.0,-9.0,6.0,9.0,32.0,5.0,0.0,1650848924640619.0
0.0,-2.0,1.0,-3.0,3.0,7.0,3.0,1.0,1650848924641550.0
0.0,0.0,1.0,-6.0,-4.0,-11.0,-3.0,-1.0,1650848924641550.0
0.0,1.0,3.0,5.0,2.0,-2.0,0.0,-1.0,1650848924656275.0
1.0,-1.0,2.0,6.0,-12.0,-25.0,-4.0,-3.0,1650848924656275.0
0.0,1.0,-3.0,6.0,16.0,22.0,3.0,-1.0,1650848924656538.0
1.0,-1.0,-3.0,-4.0,3.0,6.0,5.0,3.0,1650848924656538.0
0.0,-9.0,-4.0,-16.0,-12.0,-20.0,-6.0,-2.0,1650848924678508.0
-3.0,4.0,-2.0,7.0,-1.0,-1.0,-3.0,-1.0,1650848924678508.0
1.0,0.0,-2.0,-20.0,4.0,13.0,3.0,1.0,1650848924679479.0
-1.0,-3.0,-1.0,-2.0,-14.0,-17.0,-5.0,-2.0,1650848924679479.0
-4.0,-1.0,2.0,19.0,5.0,12.0,-1.0,-1.0,1650848924700423.0
4.0,4.0,6.0,5.0,-3.0,-10.0,0.0,-2.0,1650848924700423.0
-1.0,4.0,0.0,3.0,2.0,-4.0,1.0,0.0,1650848924701427.0
-2.0,-1.0,-8.0,-7.0,7.0,7.0,1.0,-1.0,1650848924701427.0
-2.0,-2.0,0.0,1.0,2.0,4.0,3.0,-1.0,1650848924715410.0
2.0,-1.0,1.0,-10.0,-4.0,0.0,-1.0,1.0,1650848924715410.0
5.0,0.0,-1.0,6.0,0.0,0.0,0.0,2.0,1650848924716380.0
-10.0,-8.0,-4.0,-2.0,-8.0,-13.0,-3.0,-2.0,1650848924716380.0
2.0,0.0,0.0,4.0,3.0,9.0,-3.0,-2.0,1650848924738502.0
-3.0,-1.0,-3.0,-4.0,-9.0,-4.0,2.0,-1.0,1650848924738502.0
14.0,-3.0,-2.0,3.0,10.0,3.0,1.0,2.0,1650848924739432.0
-26.0,-4.0,-3.0,-10.0,-9.0,-1.0,0.0,-3.0,1650848924739432.0
11.0,6.0,0.0,8.0,10.0,-2.0,0.0,1.0,1650848924760497.0
-5.0,-2.0,4.0,3.0,5.0,-1.0,0.0,2.0,1650848924760497.0
-6.0,0.0,-3.0,-8.0,-10.0,6.0,-2.0,-1.0,1650848924761494.0
11.0,0.0,-1.0,3.0,9.0,-2.0,1.0,2.0,1650848924761494.0
-8.0,-5.0,-2.0,-5.0,-12.0,-11.0,-2.0,-2.0,1650848924775523.0
-3.0,6.0,4.0,2.0,-5.0,-4.0,-1.0,-2.0,1650848924775523.0
0.0,-8.0,-5.0,4.0,4.0,-3.0,-3.0,-2.0,1650848924783436.0
4.0,5.0,0.0,-6.0,-13.0,-7.0,-7.0,-6.0,1650848924783436.0
-1.0,3.0,0.0,-5.0,1.0,6.0,4.0,2.0,1650848924798395.0
4.0,-4.0,-1.0,7.0,7.0,0.0,-4.0,-1.0,1650848924798395.0
-7.0,-9.0,-5.0,-6.0,-10.0,-6.0,6.0,1.0,1650848924799393.0
9.0,-3.0,0.0,1.0,8.0,4.0,-1.0,5.0,1650848924799393.0
2.0,15.0,9.0,3.0,2.0,15.0,2.0,-1.0,1650848924821381.0
3.0,-1.0,-1.0,1.0,4.0,25.0,7.0,-7.0,1650848924821381.0
-40.0,3.0,2.0,-9.0,-9.0,-13.0,2.0,12.0,1650848924821381.0
6.0,2.0,-2.0,3.0,0.0,-9.0,1.0,14.0,1650848924821381.0
12.0,-3.0,-4.0,0.0,-4.0,-13.0,-3.0,-3.0,1650848924835711.0
16.0,4.0,-1.0,-5.0,-3.0,-5.0,-8.0,-6.0,1650848924835711.0
3.0,3.0,5.0,12.0,14.0,1.0,-4.0,-14.0,1650848924843719.0
18.0,2.0,-3.0,3.0,-5.0,25.0,5.0,3.0,1650848924843719.0
-10.0,-7.0,-4.0,-3.0,-2.0,4.0,-2.0,0.0,1650848924858686.0
-2.0,2.0,-1.0,1.0,4.0,-4.0,0.0,-1.0,1650848924858686.0
17.0,8.0,4.0,0.0,-5.0,-5.0,-2.0,-1.0,1650848924858686.0
-10.0,-11.0,-6.0,-1.0,0.0,-11.0,-2.0,-3.0,1650848924858686.0
6.0,-6.0,4.0,-4.0,0.0,2.0,2.0,-3.0,1650848924880620.0
-13.0,-11.0,-4.0,2.0,-7.0,-3.0,-5.0,-1.0,1650848924880620.0
18.0,9.0,4.0,-9.0,-7.0,-6.0,0.0,9.0,1650848924881590.0
-30.0,-5.0,1.0,2.0,3.0,5.0,-6.0,-11.0,1650848924881590.0
-26.0,-4.0,-13.0,-1.0,-2.0,-14.0,-3.0,-8.0,1650848924895554.0
10.0,16.0,12.0,4.0,7.0,36.0,18.0,15.0,1650848924895554.0
-25.0,-18.0,-11.0,-7.0,-3.0,-4.0,2.0,3.0,1650848924903598.0
39.0,1.0,11.0,-4.0,-4.0,-2.0,-4.0,-5.0,1650848924903598.0
21.0,2.0,3.0,6.0,-3.0,-8.0,-3.0,-4.0,1650848924918519.0
-9.0,2.0,-13.0,0.0,0.0,-17.0,-12.0,-10.0,1650848924918519.0
39.0,4.0,4.0,3.0,4.0,8.0,-6.0,-3.0,1650848924919490.0
38.0,32.0,-14.0,9.0,-3.0,4.0,10.0,-6.0,1650848924919490.0
7.0,-68.0,2.0,-1.0,3.0,2.0,11.0,26.0,1650848924940433.0
53.0,2.0,5.0,-3.0,1.0,-4.0,-6.0,6.0,1650848924940433.0
-6.0,-18.0,3.0,0.0,-5.0,-3.0,-32.0,-28.0,1650848924941431.0
5.0,63.0,37.0,12.0,-5.0,-11.0,6.0,15.0,1650848924941431.0
22.0,-31.0,-40.0,-9.0,7.0,5.0,26.0,27.0,1650848924955480.0
-31.0,49.0,17.0,-5.0,-6.0,-12.0,5.0,18.0,1650848924955480.0
-30.0,-27.0,-6.0,-3.0,-6.0,12.0,-6.0,-41.0,1650848924963488.0
52.0,-66.0,-22.0,2.0,16.0,7.0,-5.0,-18.0,1650848924963488.0
-14.0,92.0,21.0,4.0,-3.0,2.0,-3.0,15.0,1650848924978420.0
-17.0,-88.0,-16.0,-13.0,-5.0,-11.0,-4.0,-28.0,1650848924978420.0
-3.0,23.0,-27.0,5.0,-6.0,-4.0,4.0,10.0,1650848924979418.0
-86.0,49.0,35.0,2.0,-4.0,-5.0,5.0,-10.0,1650848924979418.0
54.0,-29.0,-43.0,-16.0,5.0,21.0,19.0,37.0,1650848925000362.0
25.0,82.0,46.0,2.0,2.0,-19.0,-17.0,-4.0,1650848925000362.0
-35.0,63.0,16.0,10.0,4.0,0.0,-5.0,4.0,1650848925001360.0
15.0,-89.0,-40.0,-7.0,6.0,18.0,1.0,17.0,1650848925001360.0
-70.0,7.0,25.0,2.0,1.0,-17.0,-30.0,-77.0,1650848925024494.0
-19.0,24.0,21.0,10.0,-10.0,-8.0,-9.0,-6.0,1650848925024494.0
40.0,5.0,-3.0,-9.0,-3.0,-15.0,0.0,10.0,1650848925024494.0
0.0,-6.0,1.0,-16.0,-7.0,-8.0,7.0,51.0,1650848925024494.0
8.0,-3.0,-6.0,0.0,-9.0,-9.0,-9.0,-16.0,1650848925038421.0
-16.0,-58.0,-13.0,-1.0,0.0,5.0,-21.0,-6.0,1650848925038421.0
-37.0,-20.0,-7.0,13.0,21.0,3.0,-25.0,-39.0,1650848925039352.0
-2.0,23.0,-2.0,-7.0,-1.0,19.0,36.0,11.0,1650848925039352.0
-41.0,-39.0,2.0,-12.0,-7.0,14.0,8.0,26.0,1650848925060418.0
41.0,-22.0,-23.0,0.0,-8.0,-9.0,17.0,-13.0,1650848925060418.0
-4.0,-3.0,22.0,-7.0,-5.0,-12.0,-13.0,26.0,1650848925061393.0
-22.0,3.0,-18.0,-4.0,-9.0,-37.0,-42.0,-22.0,1650848925061393.0
-1.0,45.0,21.0,4.0,11.0,34.0,-14.0,-43.0,1650848925075376.0
32.0,51.0,-3.0,-8.0,-11.0,-4.0,45.0,64.0,1650848925075376.0
-3.0,-20.0,-5.0,-5.0,2.0,5.0,15.0,6.0,1650848925083327.0
-9.0,6.0,19.0,2.0,4.0,-8.0,-20.0,-35.0,1650848925083327.0
24.0,9.0,-4.0,7.0,-17.0,-24.0,-14.0,-2.0,1650848925098315.0
-31.0,-45.0,-23.0,-11.0,3.0,7.0,-27.0,-33.0,1650848925098315.0
33.0,15.0,-4.0,11.0,4.0,10.0,34.0,16.0,1650848925099285.0
-59.0,24.0,12.0,-6.0,2.0,3.0,-10.0,7.0,1650848925099285.0
19.0,-36.0,14.0,1.0,3.0,3.0,16.0,2.0,1650848925122224.0
-64.0,-2.0,-10.0,-5.0,7.0,3.0,-6.0,-5.0,1650848925122224.0
16.0,-46.0,0.0,-9.0,-19.0,-15.0,-8.0,-2.0,1650848925123221.0
11.0,-6.0,-9.0,18.0,5.0,3.0,-3.0,-14.0,1650848925123221.0
2.0,20.0,-4.0,2.0,8.0,4.0,-2.0,9.0,1650848925144164.0
5.0,-16.0,-4.0,-9.0,-8.0,-18.0,-4.0,1.0,1650848925144164.0
15.0,31.0,11.0,3.0,-1.0,7.0,0.0,2.0,1650848925145161.0
15.0,4.0,0.0,4.0,6.0,8.0,9.0,-1.0,1650848925145161.0
-17.0,-2.0,-3.0,-7.0,-9.0,-7.0,-14.0,-10.0,1650848925158127.0
20.0,-8.0,-5.0,8.0,5.0,2.0,27.0,20.0,1650848925158127.0
-46.0,6.0,-17.0,-17.0,-2.0,-2.0,5.0,-7.0,1650848925159125.0
8.0,-18.0,2.0,-7.0,-10.0,-11.0,12.0,37.0,1650848925159125.0
13.0,29.0,23.0,9.0,7.0,16.0,-10.0,-9.0,1650848925181086.0
17.0,1.0,-9.0,9.0,2.0,3.0,4.0,-8.0,1650848925181086.0
7.0,4.0,12.0,3.0,9.0,8.0,-2.0,5.0,1650848925182063.0
17.0,-6.0,-16.0,-5.0,-5.0,-3.0,-5.0,-16.0,1650848925182063.0
56.0,5.0,5.0,5.0,-7.0,-18.0,-3.0,6.0,1650848925204004.0
-8.0,31.0,7.0,1.0,0.0,13.0,1.0,1.0,1650848925204004.0
66.0,-8.0,4.0,12.0,2.0,-6.0,0.0,5.0,1650848925205001.0
19.0,-14.0,-13.0,11.0,9.0,28.0,2.0,0.0,1650848925205001.0
-3.0,1.0,-10.0,-10.0,-5.0,-14.0,3.0,-1.0,1650848925217987.0
30.0,3.0,7.0,0.0,-5.0,-10.0,-3.0,8.0,1650848925217987.0
-39.0,5.0,2.0,7.0,14.0,14.0,3.0,-11.0,1650848925218964.0
-59.0,6.0,2.0,-12.0,-7.0,-8.0,-7.0,-11.0,1650848925218964.0
-19.0,-58.0,-35.0,-6.0,-6.0,0.0,7.0,6.0,1650848925240979.0
27.0,34.0,6.0,-4.0,4.0,8.0,3.0,-1.0,1650848925240979.0
-72.0,-30.0,-1.0,-7.0,-11.0,-5.0,2.0,-4.0,1650848925241903.0
32.0,18.0,8.0,-3.0,-7.0,-4.0,1.0,5.0,1650848925241903.0
-53.0,-1.0,11.0,-2.0,4.0,-9.0,7.0,5.0,1650848925264125.0
-21.0,-3.0,-11.0,0.0,6.0,14.0,0.0,6.0,1650848925264125.0
42.0,18.0,-8.0,5.0,4.0,8.0,3.0,2.0,1650848925264125.0
-17.0,-9.0,4.0,-3.0,-1.0,2.0,3.0,2.0,1650848925264125.0
-71.0,-10.0,-9.0,-5.0,-1.0,-7.0,-1.0,-10.0,1650848925278089.0
3.0,-11.0,1.0,-6.0,-4.0,-10.0,-10.0,-6.0,1650848925278089.0
-19.0,18.0,3.0,3.0,-6.0,-1.0,-10.0,2.0,1650848925279022.0
41.0,-1.0,0.0,-4.0,-13.0,-19.0,5.0,7.0,1650848925279022.0
-4.0,20.0,6.0,13.0,13.0,30.0,-3.0,-9.0,1650848925301118.0
-1.0,-9.0,-5.0,-4.0,4.0,-5.0,-6.0,-10.0,1650848925301118.0
46.0,-10.0,2.0,2.0,1.0,4.0,3.0,9.0,1650848925301118.0
-22.0,5.0,9.0,2.0,2.0,-8.0,-9.0,-21.0,1650848925301118.0
37.0,4.0,-11.0,1.0,-8.0,-7.0,3.0,32.0,1650848925324123.0
-13.0,-12.0,2.0,-6.0,-1.0,-7.0,-13.0,-6.0,1650848925324123.0
16.0,-7.0,-8.0,4.0,11.0,13.0,10.0,2.0,1650848925325054.0
39.0,31.0,1.0,-8.0,-4.0,-6.0,-4.0,-1.0,1650848925325054.0
24.0,-13.0,0.0,3.0,6.0,2.0,1.0,0.0,1650848925338089.0
-40.0,-4.0,7.0,-2.0,-5.0,-1.0,-4.0,-8.0,1650848925338089.0
-13.0,-14.0,-6.0,-8.0,-12.0,-11.0,3.0,8.0,1650848925339017.0
38.0,6.0,-4.0,10.0,4.0,8.0,1.0,-3.0,1650848925339017.0
4.0,7.0,3.0,-4.0,-6.0,-5.0,-9.0,-7.0,1650848925360957.0
1.0,-10.0,-11.0,2.0,-2.0,-3.0,1.0,0.0,1650848925360957.0
-2.0,21.0,12.0,-2.0,6.0,17.0,4.0,-5.0,1650848925361883.0
-14.0,-22.0,-7.0,-2.0,1.0,-8.0,-9.0,-8.0,1650848925361883.0
28.0,7.0,-8.0,1.0,1.0,-1.0,6.0,9.0,1650848925384085.0
-9.0,4.0,8.0,0.0,-7.0,-19.0,-8.0,-6.0,1650848925384085.0
13.0,-19.0,-3.0,-1.0,-5.0,15.0,5.0,1.0,1650848925385055.0
-66.0,-12.0,-6.0,-4.0,13.0,8.0,-7.0,-5.0,1650848925385055.0
-3.0,-3.0,-2.0,-3.0,-5.0,3.0,6.0,7.0,1650848925398047.0
21.0,20.0,0.0,10.0,3.0,5.0,5.0,0.0,1650848925398047.0
-34.0,-15.0,-7.0,-12.0,-4.0,-14.0,-4.0,-18.0,1650848925399017.0
0.0,1.0,6.0,10.0,-2.0,-9.0,3.0,10.0,1650848925399017.0
15.0,28.0,6.0,0.0,11.0,32.0,3.0,-6.0,1650848925421027.0
-7.0,-38.0,-12.0,-6.0,-6.0,1.0,11.0,22.0,1650848925421027.0
16.0,13.0,12.0,-2.0,-7.0,-10.0,-4.0,-3.0,1650848925421983.0
-13.0,-30.0,-11.0,8.0,2.0,-5.0,-5.0,-6.0,1650848925421983.0
-49.0,8.0,1.0,-2.0,-2.0,-19.0,-17.0,-30.0,1650848925443897.0
40.0,-7.0,-12.0,0.0,-4.0,8.0,19.0,29.0,1650848925443897.0
10.0,40.0,30.0,2.0,8.0,-2.0,2.0,18.0,1650848925444894.0
-29.0,-15.0,-3.0,-5.0,-7.0,4.0,-4.0,-14.0,1650848925444894.0
-3.0,-8.0,-8.0,-3.0,3.0,-8.0,7.0,-6.0,1650848925457923.0
-4.0,6.0,5.0,3.0,-7.0,16.0,-2.0,-4.0,1650848925457923.0
-40.0,-30.0,-19.0,-8.0,-11.0,-31.0,-1.0,1.0,1650848925458857.0
2.0,-5.0,-1.0,-3.0,10.0,30.0,1.0,-4.0,1650848925458857.0
10.0,15.0,5.0,5.0,7.0,-1.0,-5.0,14.0,1650848925480825.0
-50.0,-18.0,2.0,-7.0,-13.0,-15.0,-4.0,-25.0,1650848925480825.0
20.0,9.0,3.0,-3.0,-5.0,2.0,13.0,27.0,1650848925481796.0
7.0,-3.0,-10.0,-1.0,3.0,1.0,-3.0,-7.0,1650848925481796.0
-24.0,-7.0,8.0,-1.0,-9.0,-8.0,-1.0,-4.0,1650848925504504.0
37.0,0.0,-8.0,-6.0,11.0,5.0,-6.0,0.0,1650848925504504.0
29.0,8.0,3.0,8.0,-1.0,3.0,-5.0,0.0,1650848925504504.0
-24.0,-16.0,2.0,-3.0,-11.0,-7.0,7.0,9.0,1650848925504504.0
12.0,6.0,10.0,4.0,0.0,-4.0,6.0,11.0,1650848925518470.0
23.0,27.0,3.0,12.0,14.0,7.0,2.0,-3.0,1650848925518470.0
-33.0,-64.0,-26.0,-8.0,-6.0,-1.0,9.0,6.0,1650848925519467.0
7.0,10.0,-1.0,1.0,5.0,4.0,-2.0,-4.0,1650848925519467.0
23.0,-2.0,3.0,1.0,-3.0,-3.0,4.0,7.0,1650848925540410.0
5.0,16.0,16.0,5.0,0.0,4.0,-3.0,-5.0,1650848925540410.0
-6.0,4.0,-7.0,-2.0,0.0,1.0,-3.0,-4.0,1650848925541409.0
17.0,8.0,-4.0,-9.0,-8.0,-8.0,-2.0,9.0,1650848925541409.0
-2.0,-3.0,10.0,3.0,3.0,-2.0,-5.0,-5.0,1650848925564435.0
-67.0,-29.0,-35.0,-7.0,3.0,1.0,-8.0,-6.0,1650848925564435.0
9.0,18.0,0.0,4.0,-9.0,-4.0,-4.0,-11.0,1650848925564435.0
20.0,1.0,12.0,-2.0,2.0,-4.0,9.0,18.0,1650848925564435.0
0.0,12.0,-1.0,-7.0,0.0,-1.0,-5.0,-6.0,1650848925578425.0
6.0,-9.0,5.0,10.0,1.0,12.0,7.0,10.0,1650848925578425.0
-5.0,3.0,-10.0,-2.0,-5.0,-25.0,-17.0,-31.0,1650848925579433.0
-2.0,-16.0,0.0,1.0,4.0,31.0,25.0,53.0,1650848925579433.0
-19.0,-13.0,-12.0,-7.0,-13.0,-24.0,-10.0,-20.0,1650848925600368.0
12.0,32.0,41.0,12.0,22.0,19.0,7.0,11.0,1650848925600368.0
5.0,-1.0,-23.0,-4.0,-5.0,-1.0,-4.0,-1.0,1650848925601338.0
-2.0,10.0,5.0,3.0,-2.0,-11.0,-6.0,-16.0,1650848925601338.0
8.0,-9.0,-7.0,5.0,-1.0,2.0,4.0,6.0,1650848925624422.0
-52.0,-2.0,2.0,-9.0,-4.0,-18.0,-5.0,-8.0,1650848925624422.0
0.0,0.0,5.0,11.0,-1.0,20.0,3.0,-5.0,1650848925624422.0
1.0,4.0,1.0,2.0,3.0,-1.0,-2.0,-7.0,1650848925624422.0
-5.0,-3.0,-6.0,-2.0,7.0,11.0,0.0,-2.0,1650848925638424.0
7.0,5.0,-3.0,-6.0,-6.0,-11.0,-8.0,-10.0,1650848925638424.0
-9.0,-6.0,0.0,2.0,6.0,3.0,2.0,6.0,1650848925639355.0
12.0,17.0,2.0,-3.0,-10.0,-7.0,-18.0,-10.0,1650848925639355.0
9.0,-12.0,9.0,-1.0,0.0,1.0,12.0,2.0,1650848925660413.0
6.0,-1.0,-12.0,-2.0,-1.0,-2.0,5.0,9.0,1650848925660413.0
6.0,5.0,19.0,2.0,5.0,6.0,0.0,2.0,1650848925661415.0
11.0,2.0,-8.0,-6.0,-3.0,-1.0,-3.0,-7.0,1650848925661415.0
-8.0,-5.0,-4.0,-2.0,-11.0,-36.0,-12.0,-10.0,1650848925684455.0
30.0,12.0,17.0,16.0,9.0,47.0,5.0,5.0,1650848925684455.0
3.0,-10.0,-9.0,-8.0,-9.0,-6.0,1.0,4.0,1650848925684455.0
-39.0,-6.0,-5.0,-5.0,9.0,1.0,7.0,-9.0,1650848925684455.0
9.0,6.0,3.0,9.0,10.0,9.0,-6.0,6.0,1650848925706539.0
-3.0,4.0,11.0,-3.0,-12.0,-23.0,-2.0,-7.0,1650848925706539.0
-4.0,-6.0,-13.0,-4.0,-1.0,-3.0,-7.0,-8.0,1650848925707468.0
29.0,20.0,5.0,2.0,1.0,6.0,4.0,6.0,1650848925707468.0
-16.0,-2.0,0.0,1.0,-12.0,-16.0,-7.0,-3.0,1650848925720438.0
-29.0,-4.0,-7.0,-5.0,6.0,16.0,-1.0,-3.0,1650848925720438.0
3.0,-7.0,4.0,-2.0,12.0,11.0,2.0,-3.0,1650848925721432.0
6.0,3.0,-2.0,0.0,-9.0,-20.0,-1.0,-4.0,1650848925721432.0
1.0,1.0,0.0,0.0,2.0,18.0,-1.0,1.0,1650848925744399.0
8.0,-10.0,-5.0,-1.0,-15.0,-19.0,-8.0,-7.0,1650848925744399.0
4.0,12.0,5.0,5.0,-1.0,-9.0,1.0,7.0,1650848925744399.0
-22.0,-13.0,-6.0,-3.0,-2.0,17.0,0.0,-10.0,1650848925744399.0
25.0,11.0,5.0,-7.0,0.0,-16.0,2.0,3.0,1650848925758522.0
-9.0,-1.0,15.0,5.0,3.0,21.0,9.0,-1.0,1650848925758522.0
-1.0,-13.0,-23.0,-1.0,8.0,3.0,7.0,8.0,1650848925759453.0
-4.0,9.0,11.0,0.0,-5.0,-12.0,-8.0,-9.0,1650848925759453.0
-11.0,-4.0,-8.0,0.0,-4.0,3.0,-1.0,-2.0,1650848925780424.0
25.0,-4.0,-2.0,-2.0,-2.0,-18.0,-5.0,3.0,1650848925780424.0
0.0,18.0,5.0,-2.0,-2.0,-2.0,-3.0,-3.0,1650848925781394.0
2.0,-19.0,-3.0,5.0,0.0,3.0,1.0,0.0,1650848925781394.0
-46.0,3.0,-1.0,-2.0,2.0,11.0,5.0,-2.0,1650848925803944.0
4.0,-5.0,-11.0,-8.0,-10.0,-21.0,-7.0,-5.0,1650848925803944.0
-1.0,12.0,11.0,5.0,-13.0,2.0,-2.0,-3.0,1650848925804954.0
0.0,-4.0,1.0,5.0,8.0,-1.0,5.0,2.0,1650848925804954.0
12.0,2.0,-1.0,-6.0,20.0,30.0,3.0,4.0,1650848925826884.0
-2.0,-14.0,-13.0,-9.0,-4.0,-10.0,-4.0,-2.0,1650848925826884.0
-7.0,-4.0,2.0,-3.0,-8.0,-11.0,-3.0,-2.0,1650848925826884.0
19.0,4.0,4.0,0.0,-15.0,-16.0,-1.0,3.0,1650848925826884.0
-32.0,-17.0,-8.0,-3.0,-2.0,1.0,0.0,-2.0,1650848925840848.0
0.0,16.0,5.0,1.0,4.0,-1.0,1.0,1.0,1650848925840848.0
8.0,-8.0,-1.0,3.0,4.0,2.0,0.0,2.0,1650848925841845.0
8.0,6.0,-1.0,-3.0,3.0,-1.0,0.0,1.0,1650848925841845.0
14.0,-5.0,0.0,-5.0,-14.0,-22.0,-4.0,1.0,1650848925863853.0
-3.0,-8.0,-7.0,10.0,13.0,33.0,1.0,-2.0,1650848925863853.0
-10.0,0.0,7.0,-9.0,-7.0,-6.0,2.0,-1.0,1650848925864783.0
-9.0,0.0,-8.0,-1.0,3.0,0.0,-3.0,-6.0,1650848925864783.0
11.0,7.0,0.0,-2.0,-3.0,-1.0,0.0,2.0,1650848925886785.0
-4.0,-7.0,0.0,-1.0,-8.0,-25.0,-7.0,-3.0,1650848925886785.0
6.0,4.0,-5.0,-3.0,2.0,7.0,1.0,2.0,1650848925887768.0
-3.0,-1.0,4.0,-1.0,-13.0,1.0,0.0,-2.0,1650848925887768.0
4.0,3.0,3.0,7.0,6.0,1.0,0.0,2.0,1650848925900760.0
0.0,2.0,-11.0,-13.0,8.0,2.0,3.0,0.0,1650848925900760.0
2.0,0.0,9.0,7.0,2.0,4.0,-1.0,-2.0,1650848925901730.0
-5.0,-6.0,-15.0,-3.0,-4.0,-6.0,-3.0,-3.0,1650848925901730.0
3.0,4.0,-3.0,-1.0,-10.0,-1.0,-1.0,1.0,1650848925923672.0
2.0,-2.0,7.0,8.0,-2.0,-8.0,-2.0,-3.0,1650848925923672.0
2.0,4.0,17.0,6.0,18.0,27.0,7.0,5.0,1650848925924669.0
