EMG_s0,EMG_s1,EMG_s2,EMG_s3,EMG_s4,EMG_s5,EMG_s6,EMG_s7,timestamp
1.0,-2.0,-1.0,-6.0,-6.0,-7.0,0.0,1.0,1650820099422215.0
-6.0,1.0,6.0,13.0,6.0,-1.0,-3.0,1.0,1650820099422215.0
3.0,1.0,-1.0,-5.0,-1.0,-1.0,0.0,-1.0,1650820099423222.0
3.0,0.0,0.0,-5.0,-4.0,2.0,0.0,0.0,1650820099423222.0
-1.0,2.0,4.0,12.0,5.0,7.0,3.0,0.0,1650820099424237.0
2.0,0.0,-6.0,-2.0,1.0,-1.0,-1.0,0.0,1650820099424237.0
1.0,-3.0,3.0,-4.0,6.0,6.0,1.0,0.0,1650820099436177.0
0.0,1.0,3.0,3.0,-2.0,-1.0,0.0,-1.0,1650820099436177.0
1.0,0.0,0.0,2.0,-2.0,-8.0,-5.0,0.0,1650820099439194.0
1.0,-2.0,-3.0,-13.0,-13.0,-12.0,-3.0,0.0,1650820099439194.0
-1.0,-1.0,-2.0,-1.0,-7.0,-10.0,-2.0,-1.0,1650820099441192.0
-1.0,1.0,3.0,9.0,10.0,20.0,5.0,2.0,1650820099441192.0
-1.0,0.0,1.0,-5.0,10.0,15.0,2.0,2.0,1650820099453132.0
6.0,2.0,0.0,-3.0,-1.0,-1.0,1.0,1.0,1650820099453132.0
-1.0,2.0,-1.0,3.0,-3.0,-6.0,-2.0,1.0,1650820099466126.0
-6.0,-2.0,1.0,-2.0,-5.0,-9.0,-4.0,-1.0,1650820099466126.0
1.0,0.0,-4.0,-7.0,-5.0,-3.0,1.0,-1.0,1650820099473094.0
-1.0,0.0,3.0,3.0,-3.0,-5.0,-2.0,-1.0,1650820099473094.0
-1.0,-1.0,0.0,4.0,5.0,4.0,-3.0,1.0,1650820099497042.0
1.0,-2.0,-4.0,-8.0,-10.0,-4.0,0.0,-1.0,1650820099497042.0
-1.0,0.0,-2.0,0.0,0.0,3.0,1.0,-3.0,1650820099500036.0
-1.0,0.0,0.0,5.0,15.0,7.0,2.0,0.0,1650820099500036.0
0.0,-2.0,-2.0,-3.0,-6.0,-6.0,-2.0,-1.0,1650820099509981.0
0.0,1.0,-1.0,0.0,-8.0,-6.0,1.0,-1.0,1650820099509981.0
2.0,-2.0,-6.0,-14.0,-10.0,-3.0,0.0,-3.0,1650820099550872.0
0.0,0.0,-4.0,-4.0,-5.0,-6.0,-1.0,0.0,1650820099550872.0
-6.0,1.0,2.0,10.0,1.0,-7.0,-2.0,0.0,1650820099551869.0
0.0,-2.0,-1.0,-7.0,-5.0,-6.0,-2.0,0.0,1650820099551869.0
2.0,0.0,1.0,-2.0,3.0,19.0,3.0,1.0,1650820099554860.0
0.0,2.0,5.0,12.0,11.0,9.0,4.0,1.0,1650820099554860.0
0.0,1.0,2.0,1.0,7.0,8.0,0.0,-2.0,1650820099555858.0
1.0,-1.0,-3.0,-9.0,-3.0,-2.0,1.0,-1.0,1650820099555858.0
-3.0,-1.0,0.0,3.0,-6.0,-13.0,-3.0,-1.0,1650820099561842.0
-3.0,-2.0,-3.0,-4.0,-12.0,-8.0,-6.0,-3.0,1650820099561842.0
3.0,-2.0,-4.0,-11.0,-5.0,-6.0,-3.0,-1.0,1650820099569841.0
-3.0,0.0,-2.0,2.0,-2.0,-1.0,1.0,0.0,1650820099569841.0
-2.0,1.0,3.0,10.0,5.0,1.0,-2.0,0.0,1650820099576802.0
1.0,-1.0,-1.0,-2.0,10.0,-3.0,-2.0,-1.0,1650820099576802.0
0.0,-3.0,-1.0,-4.0,-3.0,9.0,2.0,0.0,1650820099591789.0
4.0,2.0,4.0,9.0,10.0,22.0,5.0,1.0,1650820099591789.0
0.0,0.0,-2.0,-2.0,2.0,2.0,1.0,1.0,1650820099598743.0
-1.0,-3.0,-2.0,-12.0,-12.0,-13.0,-1.0,-1.0,1650820099598743.0
-1.0,-1.0,0.0,0.0,-7.0,-12.0,-6.0,-2.0,1650820099622710.0
-3.0,0.0,-1.0,0.0,-1.0,-13.0,-4.0,-3.0,1650820099622710.0
-3.0,-3.0,-2.0,-8.0,-20.0,-13.0,-5.0,-2.0,1650820099624674.0
0.0,-1.0,-1.0,1.0,6.0,13.0,1.0,0.0,1650820099624674.0
-3.0,1.0,5.0,9.0,23.0,16.0,2.0,-1.0,1650820099644648.0
1.0,0.0,0.0,2.0,7.0,18.0,6.0,1.0,1650820099644648.0
3.0,-1.0,-1.0,-2.0,0.0,-2.0,3.0,0.0,1650820099645622.0
-2.0,-1.0,-1.0,1.0,-12.0,-18.0,-3.0,-1.0,1650820099645622.0
-2.0,-2.0,-4.0,-6.0,-9.0,-9.0,-6.0,-2.0,1650820099659580.0
0.0,1.0,0.0,3.0,0.0,-5.0,-1.0,1.0,1650820099659580.0
-1.0,-1.0,1.0,3.0,6.0,2.0,0.0,-3.0,1650820099660578.0
0.0,-3.0,1.0,-1.0,-4.0,6.0,2.0,1.0,1650820099660578.0
1.0,-1.0,-4.0,-5.0,-5.0,-2.0,1.0,-1.0,1650820099682554.0
-2.0,-1.0,-1.0,-4.0,-2.0,-5.0,-5.0,-2.0,1650820099682554.0
-3.0,-1.0,-1.0,0.0,0.0,-5.0,-3.0,1.0,1650820099682554.0
3.0,1.0,2.0,1.0,0.0,-1.0,-1.0,-1.0,1650820099682554.0
-1.0,0.0,-4.0,-1.0,3.0,5.0,3.0,2.0,1650820099704184.0
-2.0,-2.0,-1.0,0.0,1.0,5.0,1.0,-1.0,1650820099704184.0
1.0,0.0,-1.0,-2.0,-1.0,-2.0,1.0,0.0,1650820099705115.0
-2.0,-3.0,-2.0,0.0,1.0,7.0,0.0,0.0,1650820099705115.0
2.0,1.0,3.0,2.0,0.0,0.0,0.0,2.0,1650820099719145.0
0.0,-1.0,-4.0,-2.0,-3.0,-1.0,-1.0,0.0,1650820099719145.0
1.0,-2.0,1.0,2.0,14.0,3.0,-1.0,0.0,1650820099720075.0
-1.0,0.0,-3.0,-1.0,0.0,-13.0,-3.0,0.0,1650820099720075.0
1.0,-1.0,0.0,0.0,-4.0,6.0,2.0,0.0,1650820099742234.0
-3.0,-2.0,1.0,-4.0,-7.0,-3.0,1.0,-2.0,1650820099742234.0
0.0,0.0,0.0,0.0,-3.0,-3.0,0.0,-1.0,1650820099743195.0
-1.0,-1.0,-3.0,-4.0,-11.0,-4.0,-3.0,0.0,1650820099743195.0
-2.0,-1.0,-4.0,-4.0,4.0,-6.0,-1.0,0.0,1650820099764873.0
-1.0,-1.0,3.0,4.0,9.0,0.0,-2.0,0.0,1650820099764873.0
-1.0,-1.0,4.0,4.0,5.0,8.0,2.0,1.0,1650820099764873.0
-1.0,-1.0,-3.0,-3.0,-1.0,4.0,-1.0,1.0,1650820099764873.0
-1.0,-2.0,-2.0,-6.0,-14.0,-12.0,-3.0,-3.0,1650820099787021.0
0.0,-2.0,-4.0,-4.0,-13.0,-28.0,-9.0,-2.0,1650820099787021.0
-3.0,-1.0,-3.0,0.0,-1.0,20.0,2.0,-1.0,1650820099787952.0
-1.0,2.0,6.0,9.0,25.0,24.0,8.0,1.0,1650820099787952.0
5.0,1.0,1.0,0.0,-1.0,-3.0,1.0,-1.0,1650820099801981.0
1.0,-1.0,-3.0,-3.0,-1.0,-6.0,-3.0,-1.0,1650820099801981.0
-4.0,-1.0,-3.0,-6.0,-11.0,-15.0,-6.0,-2.0,1650820099802922.0
-2.0,-1.0,1.0,1.0,-3.0,1.0,0.0,1.0,1650820099802922.0
0.0,1.0,1.0,3.0,7.0,10.0,1.0,3.0,1650820099824915.0
0.0,-1.0,2.0,0.0,-1.0,-9.0,-2.0,0.0,1650820099824915.0
0.0,0.0,-2.0,-3.0,-1.0,2.0,-2.0,-3.0,1650820099824915.0
-1.0,-2.0,0.0,1.0,3.0,3.0,0.0,-2.0,1650820099824915.0
-3.0,-2.0,-3.0,-2.0,-2.0,-6.0,-1.0,-1.0,1650820099839863.0
3.0,-1.0,-3.0,-4.0,-9.0,-7.0,-2.0,-1.0,1650820099839863.0
-10.0,-2.0,-2.0,-3.0,-4.0,-6.0,-4.0,0.0,1650820099840795.0
8.0,1.0,0.0,0.0,3.0,8.0,1.0,0.0,1650820099840795.0
1.0,0.0,2.0,4.0,6.0,8.0,4.0,1.0,1650820099861923.0
0.0,-1.0,-3.0,1.0,4.0,8.0,3.0,1.0,1650820099861923.0
-1.0,-1.0,3.0,2.0,-1.0,-6.0,0.0,0.0,1650820099862870.0
1.0,-1.0,-4.0,-5.0,-9.0,-14.0,-4.0,-4.0,1650820099862870.0
-2.0,-3.0,-5.0,-7.0,-10.0,-7.0,-4.0,-1.0,1650820099884913.0
0.0,0.0,2.0,2.0,-4.0,1.0,0.0,-2.0,1650820099884913.0
2.0,0.0,0.0,1.0,10.0,9.0,2.0,1.0,1650820099884913.0
-4.0,-2.0,0.0,0.0,6.0,5.0,1.0,-1.0,1650820099884913.0
-2.0,0.0,-1.0,-1.0,-5.0,-17.0,-4.0,-1.0,1650820099899870.0
-2.0,1.0,1.0,1.0,-2.0,17.0,4.0,1.0,1650820099899870.0
3.0,0.0,2.0,5.0,10.0,10.0,3.0,2.0,1650820099899870.0
-2.0,1.0,1.0,1.0,5.0,7.0,2.0,0.0,1650820099899870.0
-1.0,1.0,-1.0,-1.0,-9.0,-13.0,-2.0,-1.0,1650820099922510.0
-3.0,-1.0,-2.0,-4.0,-1.0,-12.0,-4.0,-1.0,1650820099922510.0
3.0,0.0,-1.0,0.0,-11.0,-10.0,-2.0,-1.0,1650820099922510.0
-3.0,-1.0,-4.0,-1.0,9.0,8.0,1.0,-2.0,1650820099922510.0
0.0,1.0,6.0,3.0,2.0,1.0,1.0,-2.0,1650820099944603.0
-2.0,-1.0,-1.0,-3.0,-8.0,-5.0,-3.0,-2.0,1650820099944603.0
0.0,0.0,-1.0,-1.0,-1.0,1.0,-1.0,-1.0,1650820099945605.0
0.0,-1.0,-3.0,-1.0,-5.0,-6.0,-3.0,0.0,1650820099945605.0
0.0,0.0,-2.0,-3.0,-5.0,-2.0,-1.0,-1.0,1650820099959631.0
-1.0,-1.0,1.0,1.0,4.0,2.0,-1.0,0.0,1650820099959631.0
-2.0,0.0,1.0,-1.0,0.0,-8.0,-3.0,-2.0,1650820099960590.0
-2.0,1.0,1.0,3.0,4.0,10.0,0.0,0.0,1650820099960590.0
0.0,-1.0,-1.0,2.0,13.0,26.0,5.0,-1.0,1650820099981575.0
2.0,-1.0,1.0,2.0,2.0,6.0,2.0,1.0,1650820099981575.0
0.0,0.0,-2.0,-2.0,-7.0,-17.0,-3.0,0.0,1650820099989669.0
-1.0,-1.0,-1.0,-3.0,-13.0,-14.0,-4.0,0.0,1650820099989669.0
-4.0,0.0,-5.0,-2.0,0.0,-1.0,-2.0,-1.0,1650820100005004.0
4.0,-2.0,5.0,4.0,1.0,-13.0,-4.0,-1.0,1650820100005004.0
1.0,0.0,0.0,-1.0,-2.0,10.0,0.0,-1.0,1650820100005004.0
1.0,0.0,0.0,0.0,-2.0,4.0,1.0,0.0,1650820100005004.0
-1.0,-2.0,1.0,-1.0,1.0,2.0,2.0,0.0,1650820100019924.0
-3.0,0.0,-7.0,-4.0,1.0,-1.0,1.0,-1.0,1650820100019924.0
2.0,0.0,-2.0,-2.0,1.0,-7.0,-2.0,-1.0,1650820100019924.0
-7.0,-2.0,2.0,-1.0,-6.0,-12.0,-4.0,-4.0,1650820100019924.0
1.0,-1.0,-3.0,-2.0,-6.0,0.0,-2.0,0.0,1650820100041865.0
-2.0,0.0,-1.0,-1.0,4.0,9.0,2.0,-1.0,1650820100041865.0
1.0,-1.0,0.0,2.0,11.0,15.0,3.0,-1.0,1650820100042807.0
0.0,1.0,0.0,0.0,-2.0,-1.0,3.0,1.0,1650820100042807.0
0.0,-2.0,2.0,-1.0,-14.0,-14.0,-1.0,-3.0,1650820100064814.0
-3.0,-1.0,1.0,0.0,4.0,3.0,-1.0,-2.0,1650820100064814.0
-1.0,1.0,-4.0,0.0,0.0,0.0,-2.0,1.0,1650820100065760.0
-3.0,-2.0,3.0,-1.0,-4.0,-4.0,-1.0,-1.0,1650820100065760.0
5.0,0.0,-2.0,-1.0,-1.0,-3.0,-1.0,-1.0,1650820100079523.0
-1.0,-1.0,-6.0,-8.0,-15.0,-29.0,-6.0,-3.0,1650820100079523.0
-3.0,0.0,1.0,1.0,0.0,2.0,-1.0,-2.0,1650820100080464.0
0.0,1.0,2.0,7.0,19.0,36.0,6.0,2.0,1650820100080464.0
0.0,2.0,4.0,5.0,16.0,23.0,8.0,2.0,1650820100101790.0
-1.0,1.0,1.0,1.0,5.0,0.0,0.0,-1.0,1650820100101790.0
0.0,-1.0,-4.0,-9.0,-12.0,-23.0,-3.0,-2.0,1650820100102721.0
1.0,-2.0,-7.0,-8.0,-20.0,-34.0,-10.0,-2.0,1650820100102721.0
-2.0,-1.0,-2.0,-1.0,-7.0,0.0,-4.0,-2.0,1650820100124777.0
0.0,1.0,-1.0,-1.0,0.0,11.0,1.0,0.0,1650820100124777.0
-1.0,1.0,7.0,7.0,10.0,5.0,2.0,-1.0,1650820100124777.0
2.0,0.0,-2.0,0.0,5.0,4.0,0.0,-1.0,1650820100124777.0
-2.0,0.0,-2.0,-2.0,2.0,-3.0,-2.0,-2.0,1650820100139685.0
-2.0,-2.0,0.0,-1.0,-7.0,-1.0,0.0,0.0,1650820100139685.0
1.0,2.0,1.0,2.0,4.0,16.0,4.0,1.0,1650820100140644.0
-2.0,0.0,-1.0,-1.0,3.0,4.0,2.0,1.0,1650820100140644.0
3.0,-1.0,1.0,-1.0,-3.0,-8.0,-2.0,1.0,1650820100161741.0
-2.0,1.0,-2.0,1.0,2.0,-1.0,-2.0,-1.0,1650820100161741.0
1.0,-1.0,0.0,-1.0,-1.0,1.0,-3.0,-1.0,1650820100162672.0
-4.0,-2.0,-6.0,-4.0,-4.0,-6.0,-2.0,-1.0,1650820100162672.0
-3.0,-1.0,1.0,0.0,-10.0,-25.0,-7.0,-2.0,1650820100184778.0
-2.0,0.0,0.0,3.0,4.0,22.0,0.0,-2.0,1650820100184778.0
-3.0,-1.0,-2.0,1.0,3.0,13.0,4.0,1.0,1650820100191824.0
2.0,0.0,0.0,-2.0,-8.0,-14.0,-2.0,-1.0,1650820100191824.0
-3.0,-3.0,1.0,-1.0,-2.0,-10.0,-4.0,-2.0,1650820100199806.0
2.0,-1.0,4.0,7.0,3.0,0.0,1.0,1.0,1650820100199806.0
1.0,-1.0,-3.0,1.0,9.0,6.0,0.0,-1.0,1650820100200745.0
1.0,-2.0,0.0,0.0,8.0,9.0,1.0,0.0,1650820100200745.0
-2.0,-2.0,-4.0,-6.0,-2.0,7.0,0.0,0.0,1650820100221909.0
-3.0,-2.0,4.0,-3.0,-9.0,-9.0,0.0,-1.0,1650820100221909.0
-5.0,-1.0,-2.0,-3.0,-12.0,-15.0,-5.0,-2.0,1650820100222840.0
1.0,0.0,1.0,4.0,3.0,-1.0,0.0,0.0,1650820100222840.0
-1.0,0.0,-2.0,-2.0,1.0,3.0,-1.0,0.0,1650820100244116.0
0.0,-2.0,-5.0,-3.0,4.0,10.0,0.0,1.0,1650820100244116.0
-2.0,-1.0,-1.0,2.0,-1.0,1.0,0.0,0.0,1650820100245047.0
-2.0,-1.0,3.0,0.0,-4.0,-7.0,-1.0,-2.0,1650820100245047.0
0.0,1.0,0.0,1.0,5.0,7.0,4.0,0.0,1650820100259241.0
0.0,2.0,-2.0,2.0,4.0,4.0,3.0,-1.0,1650820100259241.0
0.0,0.0,1.0,1.0,2.0,1.0,1.0,0.0,1650820100266224.0
1.0,-2.0,-1.0,-5.0,-2.0,-2.0,0.0,1.0,1650820100266224.0
-1.0,-1.0,-1.0,0.0,-7.0,-3.0,-2.0,-1.0,1650820100281645.0
-1.0,-1.0,-1.0,-2.0,-4.0,-7.0,-2.0,-4.0,1650820100281645.0
-1.0,-1.0,-8.0,-9.0,-9.0,-19.0,-4.0,-2.0,1650820100282576.0
3.0,3.0,6.0,7.0,6.0,17.0,1.0,-1.0,1650820100282576.0
-2.0,0.0,4.0,6.0,11.0,21.0,5.0,0.0,1650820100304924.0
0.0,1.0,-1.0,1.0,8.0,7.0,2.0,1.0,1650820100304924.0
2.0,0.0,1.0,-3.0,-6.0,-12.0,-2.0,-2.0,1650820100304924.0
-2.0,-1.0,-5.0,-6.0,-11.0,-15.0,-4.0,-1.0,1650820100304924.0
-2.0,1.0,0.0,-1.0,-5.0,-2.0,0.0,-1.0,1650820100319886.0
0.0,-1.0,-1.0,-1.0,5.0,7.0,0.0,-1.0,1650820100319886.0
0.0,0.0,1.0,0.0,1.0,5.0,3.0,-1.0,1650820100319886.0
-2.0,-1.0,-4.0,-4.0,-7.0,-8.0,-4.0,0.0,1650820100319886.0
0.0,-1.0,0.0,0.0,0.0,5.0,-1.0,-2.0,1650820100342510.0
-1.0,-1.0,-3.0,-1.0,6.0,-6.0,0.0,2.0,1650820100342510.0
0.0,-2.0,3.0,1.0,0.0,0.0,-3.0,0.0,1650820100342510.0
0.0,-2.0,-3.0,-2.0,-4.0,-3.0,0.0,-1.0,1650820100342510.0
-3.0,0.0,1.0,1.0,-6.0,-11.0,-2.0,-1.0,1650820100364855.0
0.0,0.0,-1.0,-2.0,-7.0,-1.0,-2.0,0.0,1650820100364855.0
-2.0,-2.0,-1.0,0.0,7.0,10.0,2.0,0.0,1650820100364855.0
-1.0,0.0,2.0,4.0,8.0,10.0,5.0,-1.0,1650820100364855.0
0.0,0.0,0.0,2.0,4.0,1.0,1.0,0.0,1650820100379531.0
0.0,-1.0,0.0,-1.0,-2.0,-8.0,-5.0,-2.0,1650820100379531.0
-1.0,-1.0,-3.0,-6.0,-8.0,-12.0,-5.0,-1.0,1650820100380462.0
0.0,-2.0,-3.0,-3.0,-4.0,4.0,-1.0,-1.0,1650820100380462.0
-2.0,0.0,0.0,1.0,3.0,6.0,1.0,-1.0,1650820100402550.0
1.0,0.0,3.0,0.0,0.0,-2.0,3.0,0.0,1650820100402550.0
-3.0,-1.0,-4.0,-5.0,7.0,-2.0,0.0,0.0,1650820100402550.0
2.0,-1.0,0.0,-4.0,-6.0,-11.0,-4.0,-2.0,1650820100402550.0
1.0,2.0,0.0,-1.0,-3.0,3.0,-2.0,-2.0,1650820100424578.0
0.0,0.0,1.0,0.0,-3.0,6.0,0.0,-1.0,1650820100424578.0
-1.0,0.0,2.0,4.0,8.0,8.0,5.0,2.0,1650820100425576.0
-1.0,0.0,-2.0,0.0,4.0,3.0,2.0,1.0,1650820100425576.0
-1.0,-2.0,-4.0,-7.0,-2.0,-9.0,-2.0,0.0,1650820100439579.0
0.0,-1.0,0.0,-2.0,-14.0,-12.0,-2.0,1.0,1650820100439579.0
-2.0,0.0,2.0,4.0,-2.0,-4.0,-4.0,0.0,1650820100440576.0
0.0,0.0,-1.0,4.0,6.0,14.0,0.0,0.0,1650820100440576.0
-5.0,-1.0,-1.0,-1.0,5.0,8.0,4.0,2.0,1650820100462511.0
4.0,-1.0,-5.0,-5.0,3.0,3.0,1.0,2.0,1650820100462511.0
1.0,0.0,3.0,3.0,-10.0,-9.0,-3.0,-1.0,1650820100462511.0
-2.0,0.0,-3.0,-6.0,-5.0,-13.0,-4.0,1.0,1650820100462511.0
1.0,-1.0,-1.0,0.0,-4.0,-4.0,-3.0,-1.0,1650820100484447.0
-4.0,-2.0,0.0,3.0,-4.0,4.0,0.0,-1.0,1650820100484447.0
0.0,-1.0,-6.0,-4.0,3.0,4.0,2.0,-2.0,1650820100485379.0
2.0,0.0,1.0,-1.0,7.0,4.0,1.0,0.0,1650820100485379.0
-2.0,-2.0,4.0,4.0,-2.0,-5.0,-3.0,0.0,1650820100499559.0
-3.0,0.0,0.0,-2.0,-2.0,-5.0,-3.0,-1.0,1650820100499559.0
1.0,-1.0,-1.0,-1.0,-3.0,-2.0,-1.0,0.0,1650820100500490.0
-2.0,0.0,-2.0,0.0,4.0,3.0,-1.0,-1.0,1650820100500490.0
-1.0,-1.0,-4.0,-2.0,2.0,6.0,0.0,1.0,1650820100530550.0
1.0,0.0,-1.0,-5.0,1.0,0.0,3.0,0.0,1650820100530550.0
1.0,0.0,-3.0,-1.0,-9.0,-7.0,-3.0,-2.0,1650820100530550.0
0.0,0.0,2.0,2.0,-4.0,-8.0,-2.0,0.0,1650820100530550.0
1.0,-2.0,-4.0,-8.0,1.0,-7.0,-1.0,0.0,1650820100544522.0
-1.0,1.0,4.0,9.0,2.0,10.0,2.0,-1.0,1650820100544522.0
-2.0,1.0,3.0,3.0,7.0,9.0,5.0,0.0,1650820100545459.0
0.0,-2.0,-2.0,-1.0,-4.0,-4.0,0.0,-1.0,1650820100545459.0
0.0,-1.0,4.0,-4.0,-9.0,-9.0,-5.0,-3.0,1650820100567452.0
-1.0,-2.0,-4.0,-3.0,-4.0,-15.0,-6.0,-1.0,1650820100567452.0
0.0,-1.0,-2.0,-1.0,4.0,20.0,1.0,-2.0,1650820100567452.0
-1.0,1.0,-2.0,-1.0,0.0,7.0,5.0,1.0,1650820100567452.0
1.0,1.0,1.0,4.0,0.0,-2.0,3.0,1.0,1650820100590615.0
-1.0,0.0,-2.0,-2.0,-5.0,-11.0,-5.0,-1.0,1650820100590615.0
0.0,0.0,1.0,0.0,1.0,-7.0,-2.0,1.0,1650820100590615.0
1.0,0.0,-1.0,-2.0,2.0,4.0,-3.0,-2.0,1650820100590615.0
1.0,2.0,-3.0,-1.0,2.0,2.0,0.0,0.0,1650820100604577.0
-2.0,-1.0,0.0,-2.0,2.0,3.0,0.0,0.0,1650820100604577.0
0.0,-1.0,-2.0,-2.0,-10.0,-8.0,-3.0,-1.0,1650820100605509.0
-1.0,-3.0,4.0,3.0,-6.0,-1.0,-1.0,-2.0,1650820100605509.0
0.0,1.0,-2.0,2.0,6.0,5.0,2.0,0.0,1650820100627539.0
-1.0,1.0,0.0,0.0,14.0,12.0,1.0,1.0,1650820100627539.0
0.0,0.0,-1.0,0.0,-1.0,-1.0,0.0,0.0,1650820100627539.0
2.0,-3.0,-7.0,-8.0,-9.0,-22.0,-5.0,-2.0,1650820100627539.0
-2.0,0.0,8.0,8.0,-9.0,-6.0,-5.0,-2.0,1650820100650581.0
-2.0,-1.0,-4.0,-2.0,1.0,13.0,4.0,-1.0,1650820100650581.0
1.0,0.0,-1.0,0.0,8.0,14.0,6.0,2.0,1650820100650581.0
-1.0,1.0,2.0,2.0,2.0,-1.0,3.0,2.0,1650820100650581.0
3.0,0.0,-13.0,-13.0,-1.0,-12.0,-3.0,1.0,1650820100664600.0
0.0,0.0,3.0,5.0,-4.0,-10.0,-5.0,-3.0,1650820100664600.0
-3.0,-2.0,5.0,2.0,-6.0,5.0,-3.0,-4.0,1650820100672538.0
-4.0,1.0,1.0,1.0,-4.0,2.0,1.0,0.0,1650820100672538.0
0.0,-1.0,-5.0,-2.0,6.0,7.0,1.0,0.0,1650820100687508.0
-1.0,0.0,-8.0,-7.0,-3.0,-11.0,-2.0,0.0,1650820100687508.0
1.0,-2.0,-4.0,-6.0,-9.0,-11.0,-6.0,-1.0,1650820100687508.0
0.0,-1.0,5.0,4.0,-3.0,7.0,0.0,-1.0,1650820100687508.0
0.0,1.0,2.0,2.0,22.0,18.0,8.0,2.0,1650820100709923.0
2.0,-1.0,0.0,3.0,7.0,9.0,6.0,-1.0,1650820100709923.0
4.0,-2.0,-8.0,-6.0,-9.0,-14.0,1.0,0.0,1650820100710854.0
-7.0,-2.0,10.0,9.0,4.0,-1.0,-5.0,-2.0,1650820100710854.0
-2.0,-3.0,1.0,1.0,-7.0,-2.0,-6.0,-1.0,1650820100724883.0
-1.0,-1.0,0.0,-3.0,-10.0,-8.0,-4.0,-1.0,1650820100724883.0
-2.0,-1.0,-4.0,-2.0,-4.0,-11.0,-2.0,-1.0,1650820100725829.0
1.0,2.0,-6.0,-4.0,0.0,1.0,0.0,1.0,1650820100725829.0
1.0,0.0,0.0,2.0,0.0,5.0,1.0,0.0,1650820100746991.0
-1.0,-1.0,1.0,3.0,11.0,16.0,4.0,0.0,1650820100746991.0
1.0,0.0,-3.0,-3.0,0.0,2.0,-1.0,-2.0,1650820100747992.0
-2.0,0.0,-3.0,-4.0,-3.0,-13.0,-2.0,0.0,1650820100747992.0
-5.0,-3.0,6.0,3.0,-9.0,-12.0,-3.0,-2.0,1650820100769875.0
5.0,1.0,-6.0,-2.0,-3.0,-1.0,-2.0,-1.0,1650820100769875.0
-4.0,-1.0,3.0,2.0,-2.0,-2.0,-1.0,-1.0,1650820100770806.0
2.0,-3.0,-6.0,-9.0,0.0,1.0,0.0,0.0,1650820100770806.0
-2.0,-1.0,-4.0,-1.0,3.0,0.0,-2.0,-1.0,1650820100784869.0
-3.0,-1.0,7.0,1.0,-5.0,-1.0,-1.0,1.0,1650820100784869.0
-1.0,-1.0,6.0,3.0,-6.0,1.0,-3.0,-1.0,1650820100784869.0
-1.0,1.0,-3.0,2.0,7.0,4.0,2.0,-1.0,1650820100784869.0
1.0,1.0,0.0,2.0,19.0,17.0,5.0,0.0,1650820100807069.0
1.0,-1.0,-6.0,-3.0,7.0,5.0,4.0,2.0,1650820100807069.0
2.0,2.0,4.0,2.0,-1.0,-4.0,3.0,0.0,1650820100808003.0
0.0,-1.0,-2.0,-1.0,-13.0,-7.0,-5.0,-2.0,1650820100808003.0
0.0,0.0,3.0,-2.0,-6.0,-8.0,-2.0,-1.0,1650820100830092.0
-1.0,-1.0,-2.0,-1.0,-4.0,-5.0,-3.0,-3.0,1650820100830092.0
-2.0,-2.0,-6.0,-2.0,-2.0,0.0,-2.0,1.0,1650820100831023.0
-1.0,-1.0,-2.0,1.0,-3.0,-2.0,-1.0,-1.0,1650820100831023.0
4.0,1.0,4.0,4.0,-3.0,-6.0,-1.0,-3.0,1650820100845015.0
-3.0,-1.0,1.0,-1.0,-3.0,-9.0,-2.0,0.0,1650820100845015.0
0.0,-1.0,0.0,2.0,5.0,17.0,3.0,3.0,1650820100845015.0
4.0,0.0,-2.0,-2.0,1.0,10.0,3.0,-6.0,1650820100845015.0
-5.0,-1.0,0.0,-4.0,7.0,0.0,-1.0,0.0,1650820100867037.0
-2.0,0.0,1.0,-2.0,-9.0,-11.0,-4.0,-2.0,1650820100867037.0
-1.0,-1.0,-3.0,-1.0,-1.0,-7.0,-3.0,-3.0,1650820100868035.0
1.0,-2.0,-1.0,-2.0,7.0,1.0,-3.0,-1.0,1650820100868035.0
-1.0,-1.0,3.0,6.0,-1.0,7.0,4.0,1.0,1650820100897710.0
0.0,0.0,1.0,5.0,3.0,6.0,1.0,-2.0,1650820100897710.0
0.0,-1.0,-1.0,-4.0,2.0,1.0,3.0,1.0,1650820100898711.0
-1.0,-1.0,4.0,2.0,-2.0,-2.0,1.0,1.0,1650820100898711.0
0.0,-2.0,-8.0,-10.0,-8.0,-7.0,-5.0,-2.0,1650820100904694.0
-2.0,-1.0,2.0,-1.0,-4.0,-3.0,-4.0,1.0,1650820100904694.0
-2.0,0.0,1.0,-3.0,1.0,-2.0,-1.0,-2.0,1650820100905692.0
-1.0,-1.0,-5.0,3.0,2.0,-8.0,2.0,1.0,1650820100905692.0
-3.0,0.0,4.0,4.0,-6.0,-5.0,-2.0,1.0,1650820100926745.0
2.0,-5.0,-19.0,-11.0,3.0,20.0,2.0,-2.0,1650820100926745.0
-1.0,1.0,9.0,8.0,3.0,-3.0,0.0,-2.0,1650820100927717.0
0.0,2.0,7.0,1.0,4.0,1.0,2.0,1.0,1650820100927717.0
-1.0,-1.0,-3.0,-3.0,-7.0,-2.0,-1.0,0.0,1650820100949879.0
0.0,5.0,1.0,-5.0,-3.0,-5.0,1.0,1.0,1650820100949879.0
-1.0,1.0,10.0,8.0,-7.0,-6.0,-3.0,0.0,1650820100950810.0
-1.0,-3.0,-5.0,-1.0,2.0,-3.0,-3.0,0.0,1650820100950810.0
2.0,3.0,0.0,1.0,13.0,15.0,6.0,1.0,1650820100964838.0
-2.0,-2.0,7.0,11.0,8.0,7.0,1.0,1.0,1650820100964838.0
0.0,-3.0,-12.0,-8.0,6.0,7.0,2.0,-1.0,1650820100965770.0
-1.0,-1.0,-3.0,-7.0,-17.0,-17.0,-5.0,-1.0,1650820100965770.0
-2.0,-3.0,-5.0,-7.0,-13.0,-12.0,-6.0,-3.0,1650820100987452.0
-1.0,-1.0,-4.0,-4.0,-4.0,-3.0,-4.0,-3.0,1650820100987452.0
-1.0,-2.0,2.0,5.0,-2.0,2.0,2.0,-1.0,1650820100987735.0
0.0,0.0,2.0,2.0,11.0,8.0,3.0,1.0,1650820100987735.0
2.0,2.0,3.0,3.0,3.0,6.0,3.0,1.0,1650820101009833.0
-1.0,-1.0,-1.0,-3.0,-3.0,-5.0,0.0,0.0,1650820101009833.0
-2.0,-5.0,-5.0,-2.0,6.0,-1.0,-3.0,1.0,1650820101010831.0
-3.0,-2.0,6.0,5.0,-4.0,-2.0,-2.0,0.0,1650820101010831.0
-1.0,3.0,2.0,1.0,-1.0,-2.0,-2.0,-3.0,1650820101024925.0
-6.0,-2.0,6.0,7.0,2.0,-6.0,-2.0,-3.0,1650820101024925.0
12.0,6.0,-28.0,-11.0,3.0,11.0,5.0,3.0,1650820101024925.0
0.0,7.0,13.0,-5.0,-4.0,5.0,0.0,-1.0,1650820101024925.0
-2.0,3.0,24.0,26.0,0.0,-4.0,-1.0,0.0,1650820101047509.0
-2.0,-2.0,6.0,-3.0,-15.0,-12.0,-3.0,-5.0,1650820101047509.0
1.0,-11.0,-31.0,-5.0,19.0,9.0,2.0,3.0,1650820101047509.0
-3.0,10.0,-18.0,-12.0,-1.0,1.0,2.0,2.0,1650820101047509.0
-6.0,-23.0,-26.0,-32.0,-19.0,-8.0,-3.0,-5.0,1650820101069926.0
2.0,6.0,9.0,15.0,-2.0,-6.0,0.0,10.0,1650820101069926.0
-8.0,14.0,26.0,5.0,-14.0,-11.0,-8.0,-7.0,1650820101069926.0
2.0,-14.0,6.0,18.0,13.0,18.0,7.0,10.0,1650820101069926.0
8.0,0.0,-7.0,-6.0,20.0,20.0,4.0,-12.0,1650820101084871.0
1.0,6.0,-7.0,4.0,-2.0,-2.0,2.0,-3.0,1650820101084871.0
-6.0,-7.0,5.0,-12.0,-15.0,-26.0,-10.0,18.0,1650820101084871.0
1.0,11.0,18.0,1.0,-3.0,2.0,-3.0,-24.0,1650820101084871.0
3.0,-24.0,-41.0,-22.0,-4.0,16.0,8.0,27.0,1650820101107060.0
-33.0,-6.0,-25.0,-18.0,4.0,8.0,-3.0,-5.0,1650820101107060.0
13.0,14.0,18.0,13.0,5.0,-3.0,-5.0,-46.0,1650820101107991.0
-30.0,-11.0,-10.0,-19.0,-19.0,-27.0,-10.0,-7.0,1650820101107991.0
14.0,28.0,12.0,28.0,-5.0,-11.0,-6.0,-27.0,1650820101129281.0
16.0,-9.0,4.0,2.0,10.0,17.0,13.0,32.0,1650820101129281.0
-2.0,14.0,-52.0,-46.0,-5.0,5.0,6.0,6.0,1650820101130213.0
6.0,-2.0,42.0,45.0,9.0,2.0,1.0,-7.0,1650820101130213.0
-17.0,-40.0,11.0,-9.0,-5.0,-9.0,-9.0,-4.0,1650820101144277.0
10.0,2.0,4.0,2.0,-8.0,-11.0,-1.0,-6.0,1650820101144277.0
6.0,13.0,20.0,6.0,2.0,6.0,9.0,15.0,1650820101151853.0
12.0,13.0,-5.0,-16.0,4.0,4.0,2.0,5.0,1650820101151853.0
-7.0,1.0,0.0,9.0,1.0,-8.0,-5.0,7.0,1650820101175564.0
6.0,-17.0,-1.0,-4.0,-2.0,-2.0,-10.0,-2.0,1650820101175564.0
-40.0,-9.0,21.0,6.0,-9.0,-1.0,1.0,8.0,1650820101175564.0
7.0,-6.0,1.0,-8.0,11.0,3.0,-1.0,-10.0,1650820101175564.0
-1.0,-5.0,10.0,22.0,-6.0,-6.0,5.0,67.0,1650820101189942.0
12.0,37.0,33.0,-6.0,11.0,4.0,-13.0,-92.0,1650820101189942.0
-43.0,-31.0,-35.0,-25.0,-14.0,-7.0,2.0,29.0,1650820101189942.0
4.0,-17.0,-18.0,14.0,-19.0,-30.0,-12.0,-38.0,1650820101189942.0
10.0,11.0,-6.0,1.0,20.0,29.0,10.0,22.0,1650820101204303.0
9.0,46.0,35.0,0.0,12.0,28.0,11.0,30.0,1650820101204303.0
9.0,-15.0,-22.0,-1.0,8.0,9.0,4.0,-3.0,1650820101211856.0
-5.0,5.0,17.0,6.0,-6.0,-13.0,0.0,19.0,1650820101211856.0
-5.0,19.0,23.0,-21.0,-15.0,-20.0,-4.0,4.0,1650820101226641.0
-7.0,-36.0,-29.0,32.0,4.0,5.0,-1.0,-3.0,1650820101226641.0
15.0,18.0,44.0,-4.0,3.0,6.0,4.0,1.0,1650820101227641.0
10.0,-19.0,-41.0,-3.0,-3.0,-2.0,-3.0,17.0,1650820101227641.0
-9.0,5.0,-40.0,-30.0,-14.0,-14.0,-4.0,-11.0,1650820101249734.0
-1.0,8.0,7.0,15.0,-1.0,-2.0,-3.0,-36.0,1650820101249734.0
9.0,23.0,11.0,-1.0,-5.0,-8.0,-6.0,-18.0,1650820101250693.0
3.0,0.0,35.0,35.0,12.0,17.0,7.0,24.0,1650820101250693.0
9.0,0.0,-18.0,-24.0,-2.0,-15.0,-10.0,-20.0,1650820101263697.0
-32.0,-39.0,-28.0,-5.0,-9.0,-9.0,-3.0,-17.0,1650820101263697.0
3.0,10.0,35.0,30.0,30.0,37.0,13.0,50.0,1650820101271675.0
-2.0,7.0,-46.0,-33.0,-4.0,-1.0,-11.0,-61.0,1650820101271675.0
-10.0,-12.0,13.0,22.0,1.0,-3.0,5.0,22.0,1650820101287454.0
-25.0,-15.0,-10.0,-17.0,-12.0,-23.0,-1.0,13.0,1650820101287454.0
41.0,-2.0,-13.0,13.0,-7.0,-13.0,-8.0,-16.0,1650820101287454.0
2.0,37.0,25.0,-14.0,6.0,22.0,13.0,27.0,1650820101287454.0
-1.0,-16.0,-38.0,-2.0,0.0,4.0,3.0,-23.0,1650820101309588.0
11.0,-2.0,5.0,0.0,-3.0,-12.0,-5.0,2.0,1650820101309588.0
-16.0,-40.0,23.0,30.0,7.0,5.0,5.0,14.0,1650820101310522.0
-3.0,20.0,-8.0,-2.0,6.0,-1.0,-9.0,-34.0,1650820101310522.0
9.0,-1.0,-17.0,-16.0,-4.0,3.0,4.0,-11.0,1650820101323631.0
40.0,36.0,27.0,-2.0,6.0,8.0,14.0,45.0,1650820101323631.0
-27.0,-12.0,-5.0,19.0,-10.0,-8.0,-8.0,-20.0,1650820101332610.0
-15.0,-31.0,-13.0,-34.0,8.0,0.0,-1.0,26.0,1650820101332610.0
7.0,-7.0,24.0,29.0,-2.0,-2.0,1.0,-20.0,1650820101346685.0
2.0,8.0,0.0,-3.0,2.0,8.0,6.0,16.0,1650820101346685.0
-4.0,-3.0,-36.0,-8.0,-13.0,-11.0,-11.0,-6.0,1650820101347625.0
-3.0,13.0,41.0,9.0,-4.0,2.0,14.0,15.0,1650820101347625.0
-14.0,9.0,-13.0,-17.0,5.0,0.0,-8.0,-29.0,1650820101377993.0
38.0,-4.0,14.0,11.0,2.0,-5.0,3.0,30.0,1650820101377993.0
-16.0,-3.0,-37.0,-22.0,-3.0,-1.0,-5.0,-42.0,1650820101378922.0
24.0,10.0,13.0,9.0,-6.0,3.0,-1.0,38.0,1650820101378922.0
-38.0,4.0,-17.0,-5.0,11.0,22.0,9.0,3.0,1650820101383939.0
-3.0,2.0,0.0,-2.0,11.0,9.0,-1.0,-2.0,1650820101383939.0
17.0,-8.0,0.0,2.0,4.0,-9.0,3.0,2.0,1650820101392251.0
10.0,13.0,0.0,-15.0,-16.0,-19.0,-6.0,-2.0,1650820101392251.0
9.0,3.0,26.0,21.0,-12.0,-10.0,-5.0,12.0,1650820101406906.0
-12.0,2.0,-16.0,-8.0,-2.0,-2.0,-2.0,-5.0,1650820101406906.0
3.0,-21.0,-1.0,-14.0,-3.0,-6.0,-3.0,9.0,1650820101407837.0
-14.0,3.0,18.0,17.0,10.0,17.0,15.0,33.0,1650820101407837.0
33.0,8.0,17.0,4.0,15.0,13.0,-4.0,-33.0,1650820101429926.0
-14.0,-25.0,-21.0,3.0,-9.0,-13.0,2.0,7.0,1650820101429926.0
8.0,26.0,38.0,6.0,-10.0,-7.0,-6.0,-29.0,1650820101429926.0
8.0,-29.0,-60.0,-29.0,-8.0,-5.0,-3.0,28.0,1650820101429926.0
7.0,4.0,0.0,-3.0,-5.0,2.0,-2.0,-1.0,1650820101453126.0
-28.0,10.0,43.0,23.0,19.0,7.0,1.0,7.0,1650820101453126.0
-16.0,18.0,13.0,-4.0,-2.0,-2.0,-6.0,11.0,1650820101453924.0
4.0,-19.0,-24.0,4.0,-3.0,3.0,9.0,-11.0,1650820101453924.0
3.0,-7.0,-11.0,-11.0,2.0,-10.0,-5.0,0.0,1650820101467130.0
-2.0,8.0,-30.0,-11.0,-7.0,2.0,-4.0,5.0,1650820101467130.0
12.0,-5.0,-10.0,-13.0,0.0,8.0,1.0,-9.0,1650820101468130.0
-11.0,3.0,-2.0,11.0,1.0,3.0,-1.0,-11.0,1650820101468130.0
3.0,-1.0,32.0,32.0,6.0,-3.0,2.0,11.0,1650820101489927.0
12.0,2.0,-11.0,-14.0,-18.0,-20.0,-3.0,5.0,1650820101489927.0
5.0,20.0,11.0,2.0,-6.0,-14.0,-6.0,15.0,1650820101489927.0
7.0,-5.0,-11.0,-3.0,3.0,13.0,-9.0,-58.0,1650820101489927.0
-23.0,-1.0,8.0,-3.0,2.0,-5.0,0.0,-7.0,1650820101513009.0
8.0,-14.0,13.0,10.0,12.0,20.0,1.0,-7.0,1650820101513009.0
1.0,14.0,0.0,-7.0,6.0,11.0,12.0,17.0,1650820101513969.0
5.0,-10.0,-43.0,-16.0,3.0,-3.0,-2.0,-3.0,1650820101513969.0
-35.0,6.0,5.0,-2.0,-5.0,-11.0,1.0,8.0,1650820101527160.0
-7.0,-3.0,2.0,-1.0,-27.0,-17.0,-16.0,-44.0,1650820101527160.0
12.0,-8.0,-15.0,-8.0,-1.0,-6.0,5.0,21.0,1650820101528172.0
5.0,27.0,61.0,19.0,9.0,-11.0,1.0,9.0,1650820101528172.0
28.0,-44.0,-73.0,1.0,-20.0,-1.0,-8.0,-15.0,1650820101549156.0
-42.0,-10.0,-23.0,-47.0,0.0,15.0,6.0,-1.0,1650820101549156.0
16.0,10.0,12.0,27.0,15.0,11.0,2.0,3.0,1650820101550095.0
-19.0,-8.0,39.0,15.0,6.0,-3.0,-1.0,-16.0,1650820101550095.0
24.0,22.0,-14.0,-9.0,-1.0,-7.0,9.0,46.0,1650820101573127.0
9.0,0.0,-14.0,-10.0,-6.0,-6.0,-3.0,-28.0,1650820101573127.0
-10.0,-20.0,9.0,13.0,8.0,11.0,1.0,-13.0,1650820101573956.0
-7.0,6.0,3.0,7.0,1.0,-1.0,1.0,34.0,1650820101573956.0
-3.0,24.0,60.0,9.0,2.0,-4.0,-16.0,-86.0,1650820101587508.0
-6.0,-13.0,-31.0,-9.0,1.0,-1.0,7.0,35.0,1650820101587508.0
-46.0,10.0,2.0,-16.0,-17.0,-23.0,-11.0,-7.0,1650820101587508.0
55.0,0.0,-3.0,13.0,-5.0,-1.0,-9.0,-28.0,1650820101587508.0
4.0,-4.0,20.0,18.0,13.0,26.0,14.0,31.0,1650820101609140.0
21.0,17.0,-9.0,-17.0,35.0,34.0,22.0,23.0,1650820101609140.0
11.0,2.0,15.0,5.0,-4.0,-5.0,-1.0,0.0,1650820101610071.0
-35.0,-8.0,0.0,-7.0,6.0,-1.0,-1.0,1.0,1650820101610071.0
5.0,-37.0,-21.0,-6.0,-32.0,-35.0,-17.0,26.0,1650820101633208.0
-22.0,7.0,-17.0,10.0,-16.0,-17.0,-17.0,-53.0,1650820101633208.0
12.0,22.0,-6.0,8.0,19.0,36.0,12.0,6.0,1650820101633208.0
-1.0,-1.0,-36.0,-1.0,5.0,7.0,4.0,10.0,1650820101633208.0
-2.0,31.0,22.0,-16.0,-15.0,-14.0,-4.0,-4.0,1650820101655575.0
13.0,15.0,44.0,29.0,8.0,-6.0,-4.0,16.0,1650820101655575.0
-4.0,-28.0,-36.0,-2.0,-10.0,-11.0,1.0,3.0,1650820101655575.0
-11.0,21.0,19.0,-6.0,-2.0,8.0,-3.0,-28.0,1650820101655575.0
0.0,3.0,35.0,16.0,21.0,8.0,8.0,32.0,1650820101669925.0
-1.0,-33.0,-29.0,-8.0,-19.0,-17.0,-11.0,-25.0,1650820101669925.0
-23.0,-1.0,-7.0,-8.0,0.0,-1.0,1.0,-8.0,1650820101669925.0
-2.0,-11.0,-3.0,-14.0,-9.0,-5.0,2.0,27.0,1650820101669925.0
-26.0,2.0,-6.0,-15.0,-11.0,-15.0,-7.0,-17.0,1650820101693127.0
33.0,0.0,10.0,-5.0,-11.0,-8.0,-13.0,-40.0,1650820101693127.0
12.0,2.0,5.0,8.0,15.0,20.0,11.0,20.0,1650820101693940.0
-5.0,0.0,11.0,7.0,22.0,18.0,8.0,14.0,1650820101693940.0
-5.0,-16.0,-7.0,-1.0,8.0,5.0,1.0,6.0,1650820101707099.0
-8.0,-11.0,-7.0,-2.0,-9.0,-22.0,-4.0,11.0,1650820101707099.0
7.0,3.0,22.0,18.0,-9.0,-2.0,-9.0,-6.0,1650820101708099.0
-2.0,14.0,29.0,-3.0,-3.0,9.0,3.0,2.0,1650820101708099.0
3.0,13.0,-31.0,-17.0,8.0,6.0,1.0,-13.0,1650820101729258.0
-7.0,-26.0,-29.0,-29.0,-6.0,0.0,8.0,17.0,1650820101729258.0
6.0,-44.0,-2.0,26.0,8.0,-6.0,1.0,8.0,1650820101730203.0
-14.0,12.0,24.0,24.0,-11.0,-13.0,-10.0,-5.0,1650820101730203.0
6.0,-9.0,-15.0,-15.0,-4.0,5.0,-2.0,-30.0,1650820101753135.0
17.0,31.0,17.0,4.0,-3.0,-2.0,3.0,-28.0,1650820101753135.0
-30.0,10.0,-32.0,-23.0,-9.0,-15.0,0.0,8.0,1650820101753933.0
-2.0,-20.0,-26.0,-26.0,-17.0,-15.0,-17.0,-37.0,1650820101753933.0
17.0,-18.0,-18.0,10.0,0.0,-5.0,6.0,55.0,1650820101766989.0
-51.0,5.0,12.0,0.0,6.0,16.0,-3.0,22.0,1650820101766989.0
37.0,10.0,8.0,-6.0,11.0,14.0,0.0,-30.0,1650820101767986.0
1.0,2.0,2.0,9.0,10.0,-1.0,6.0,-16.0,1650820101767986.0
6.0,24.0,16.0,2.0,-4.0,-3.0,10.0,16.0,1650820101789802.0
6.0,-12.0,-1.0,-4.0,-22.0,-7.0,-1.0,20.0,1650820101789802.0
3.0,8.0,35.0,6.0,2.0,1.0,0.0,18.0,1650820101789802.0
-13.0,-15.0,-21.0,-7.0,27.0,19.0,-2.0,-6.0,1650820101789802.0
-11.0,-18.0,-27.0,-1.0,5.0,14.0,6.0,-8.0,1650820101812934.0
23.0,40.0,52.0,31.0,12.0,-2.0,7.0,30.0,1650820101812934.0
11.0,-22.0,-36.0,-25.0,-21.0,-25.0,-14.0,-21.0,1650820101813865.0
-5.0,18.0,-18.0,-13.0,-36.0,-27.0,-6.0,2.0,1650820101813865.0
-9.0,13.0,65.0,8.0,3.0,1.0,-7.0,-13.0,1650820101827451.0
-17.0,-5.0,-24.0,-9.0,4.0,0.0,-5.0,-20.0,1650820101827451.0
37.0,-21.0,-22.0,1.0,-15.0,-3.0,5.0,31.0,1650820101827451.0
-9.0,3.0,11.0,6.0,10.0,11.0,5.0,-24.0,1650820101827451.0
5.0,3.0,-16.0,3.0,9.0,16.0,0.0,-11.0,1650820101849639.0
-1.0,-12.0,3.0,1.0,-3.0,-8.0,-3.0,9.0,1650820101849639.0
-29.0,6.0,42.0,2.0,10.0,0.0,-11.0,-3.0,1650820101850570.0
38.0,-37.0,-32.0,3.0,2.0,5.0,17.0,37.0,1650820101850570.0
-4.0,25.0,9.0,-3.0,-15.0,-16.0,-4.0,3.0,1650820101872857.0
-2.0,-40.0,-25.0,10.0,15.0,17.0,1.0,3.0,1650820101872857.0
11.0,39.0,35.0,2.0,3.0,2.0,-2.0,-42.0,1650820101873817.0
-14.0,-13.0,-26.0,-30.0,-18.0,1.0,-1.0,27.0,1650820101873817.0
11.0,13.0,9.0,10.0,20.0,11.0,10.0,11.0,1650820101887458.0
4.0,0.0,-19.0,23.0,13.0,11.0,0.0,-13.0,1650820101887458.0
-8.0,-10.0,12.0,7.0,-4.0,-3.0,2.0,-3.0,1650820101887833.0
9.0,6.0,-45.0,-6.0,-3.0,-22.0,-14.0,2.0,1650820101887833.0
1.0,25.0,45.0,-14.0,-14.0,-12.0,-7.0,-31.0,1650820101909925.0
-5.0,-16.0,-37.0,-16.0,-3.0,-3.0,-3.0,11.0,1650820101909925.0
-18.0,1.0,-15.0,-8.0,-1.0,3.0,7.0,27.0,1650820101909925.0
24.0,2.0,29.0,13.0,-4.0,-1.0,-1.0,-47.0,1650820101909925.0
-13.0,-11.0,-11.0,3.0,-1.0,4.0,2.0,20.0,1650820101932906.0
26.0,8.0,-5.0,-11.0,-4.0,-4.0,-2.0,9.0,1650820101932906.0
-38.0,4.0,-11.0,-7.0,5.0,-3.0,-3.0,-6.0,1650820101932906.0
-6.0,-23.0,-34.0,3.0,-3.0,7.0,4.0,11.0,1650820101932906.0
0.0,-11.0,-30.0,-16.0,2.0,16.0,-4.0,-70.0,1650820101946991.0
4.0,14.0,48.0,20.0,6.0,-1.0,-3.0,12.0,1650820101946991.0
6.0,-14.0,2.0,3.0,8.0,-10.0,1.0,4.0,1650820101947922.0
-17.0,-20.0,-4.0,-28.0,-34.0,-19.0,-18.0,-22.0,1650820101947922.0
1.0,-18.0,-14.0,1.0,12.0,3.0,0.0,22.0,1650820101969929.0
-15.0,-22.0,-46.0,-16.0,2.0,10.0,-3.0,-7.0,1650820101969929.0
13.0,8.0,26.0,26.0,0.0,1.0,5.0,-1.0,1650820101969929.0
-16.0,-17.0,22.0,8.0,3.0,-5.0,0.0,29.0,1650820101969929.0
10.0,6.0,-30.0,-22.0,-6.0,15.0,-2.0,6.0,1650820101993183.0
3.0,42.0,52.0,-15.0,28.0,26.0,14.0,7.0,1650820101993183.0
9.0,-32.0,-31.0,23.0,-1.0,-14.0,-6.0,-7.0,1650820101993183.0
-8.0,11.0,44.0,18.0,-12.0,-17.0,4.0,20.0,1650820101993183.0
-1.0,0.0,-43.0,-13.0,-13.0,-14.0,-3.0,-10.0,1650820102007508.0
-3.0,-42.0,-26.0,-3.0,-11.0,-5.0,1.0,35.0,1650820102007508.0
11.0,3.0,-37.0,-21.0,0.0,4.0,-3.0,-27.0,1650820102007508.0
-6.0,21.0,36.0,15.0,9.0,10.0,-3.0,-8.0,1650820102007508.0
11.0,-5.0,4.0,-4.0,-3.0,-18.0,13.0,41.0,1650820102029886.0
-22.0,11.0,11.0,6.0,-4.0,8.0,3.0,-3.0,1650820102029886.0
32.0,0.0,-13.0,-9.0,-19.0,-1.0,-9.0,-12.0,1650820102029886.0
-9.0,-14.0,-54.0,-5.0,39.0,6.0,8.0,3.0,1650820102029886.0
28.0,2.0,42.0,8.0,13.0,21.0,5.0,21.0,1650820102052977.0
-27.0,1.0,5.0,-15.0,-30.0,-25.0,-6.0,-44.0,1650820102052977.0
-16.0,-26.0,-19.0,-11.0,-13.0,-4.0,2.0,20.0,1650820102053962.0
19.0,39.0,28.0,6.0,-2.0,3.0,-5.0,0.0,1650820102053962.0
-24.0,-30.0,-29.0,28.0,21.0,12.0,-6.0,-26.0,1650820102066876.0
11.0,22.0,30.0,-23.0,8.0,14.0,7.0,8.0,1650820102066876.0
-6.0,5.0,-50.0,-19.0,-10.0,-3.0,-1.0,0.0,1650820102074814.0
-1.0,-25.0,-14.0,-12.0,-28.0,-38.0,-5.0,-2.0,1650820102074814.0
-10.0,11.0,27.0,13.0,-25.0,-1.0,-5.0,13.0,1650820102089938.0
-7.0,-21.0,-46.0,-9.0,18.0,8.0,-5.0,-9.0,1650820102089938.0
11.0,37.0,37.0,1.0,26.0,23.0,8.0,8.0,1650820102089938.0
0.0,3.0,14.0,4.0,2.0,-10.0,4.0,-19.0,1650820102089938.0
6.0,21.0,26.0,-10.0,-27.0,-35.0,-4.0,30.0,1650820102112978.0
24.0,-29.0,-79.0,-4.0,-18.0,-10.0,-21.0,-14.0,1650820102112978.0
0.0,-9.0,7.0,8.0,10.0,26.0,29.0,19.0,1650820102112978.0
16.0,5.0,-3.0,10.0,17.0,13.0,-3.0,9.0,1650820102112978.0
-42.0,-9.0,2.0,3.0,11.0,32.0,28.0,13.0,1650820102125955.0
7.0,24.0,35.0,5.0,0.0,1.0,9.0,-25.0,1650820102125955.0
-9.0,-19.0,-11.0,-7.0,-27.0,-48.0,-23.0,0.0,1650820102135083.0
9.0,2.0,7.0,1.0,1.0,0.0,-21.0,4.0,1650820102135083.0
0.0,-6.0,-21.0,-9.0,19.0,11.0,-5.0,-12.0,1650820102149928.0
6.0,9.0,25.0,26.0,-10.0,-14.0,10.0,19.0,1650820102149928.0
-9.0,30.0,25.0,-2.0,-5.0,11.0,1.0,-6.0,1650820102149928.0
1.0,-6.0,-40.0,-9.0,7.0,5.0,14.0,11.0,1650820102149928.0
-11.0,-12.0,30.0,3.0,-1.0,-2.0,-19.0,-19.0,1650820102173051.0
-3.0,6.0,34.0,14.0,7.0,-1.0,-11.0,-5.0,1650820102173051.0
2.0,8.0,17.0,1.0,6.0,1.0,11.0,8.0,1650820102173051.0
3.0,-22.0,16.0,0.0,-6.0,8.0,18.0,-2.0,1650820102173051.0
6.0,12.0,-15.0,-2.0,-8.0,-13.0,-4.0,-12.0,1650820102186128.0
5.0,-3.0,2.0,-5.0,-13.0,-19.0,-5.0,13.0,1650820102186128.0
-9.0,0.0,8.0,-4.0,-1.0,0.0,-19.0,-14.0,1650820102194149.0
-12.0,0.0,-3.0,-4.0,-1.0,13.0,14.0,9.0,1650820102194149.0
15.0,3.0,-3.0,6.0,2.0,7.0,36.0,-1.0,1650820102209943.0
-2.0,9.0,15.0,1.0,3.0,-3.0,-7.0,16.0,1650820102209943.0
10.0,0.0,-12.0,-4.0,11.0,5.0,-15.0,-13.0,1650820102209943.0
-8.0,3.0,0.0,-3.0,-20.0,-10.0,6.0,-19.0,1650820102209943.0
13.0,-1.0,1.0,4.0,9.0,-3.0,-3.0,-3.0,1650820102232915.0
6.0,3.0,3.0,11.0,18.0,27.0,9.0,10.0,1650820102232915.0
-5.0,-6.0,-2.0,6.0,10.0,11.0,6.0,3.0,1650820102233873.0
1.0,1.0,-16.0,-20.0,-23.0,-26.0,-17.0,-1.0,1650820102233873.0
8.0,2.0,7.0,5.0,-11.0,-4.0,-14.0,-7.0,1650820102246876.0
-10.0,-9.0,1.0,6.0,0.0,-2.0,-1.0,-7.0,1650820102246876.0
-7.0,3.0,8.0,0.0,17.0,15.0,-2.0,-4.0,1650820102254992.0
3.0,-4.0,-30.0,-3.0,1.0,-5.0,-3.0,2.0,1650820102254992.0
-7.0,-2.0,-17.0,-9.0,-10.0,-15.0,-7.0,-6.0,1650820102269967.0
-2.0,-3.0,-4.0,3.0,-6.0,-10.0,-3.0,-2.0,1650820102269967.0
-4.0,-2.0,7.0,-4.0,-21.0,-20.0,-3.0,-4.0,1650820102269967.0
2.0,9.0,14.0,6.0,7.0,7.0,1.0,7.0,1650820102269967.0
-1.0,5.0,-4.0,4.0,15.0,20.0,-1.0,0.0,1650820102293126.0
0.0,-6.0,-7.0,0.0,-10.0,-3.0,3.0,-2.0,1650820102293126.0
1.0,-9.0,4.0,-2.0,8.0,-8.0,0.0,-4.0,1650820102293126.0
-3.0,1.0,-3.0,0.0,13.0,15.0,-3.0,-1.0,1650820102293126.0
-6.0,-3.0,-1.0,-3.0,-15.0,-19.0,-10.0,-5.0,1650820102306843.0
4.0,8.0,4.0,-9.0,-23.0,-14.0,-1.0,-1.0,1650820102306843.0
0.0,2.0,-4.0,1.0,14.0,7.0,5.0,-2.0,1650820102314845.0
-4.0,3.0,15.0,10.0,4.0,-10.0,-8.0,-2.0,1650820102314845.0
0.0,-5.0,0.0,-2.0,-5.0,22.0,1.0,-2.0,1650820102329982.0
1.0,3.0,1.0,6.0,10.0,18.0,8.0,4.0,1650820102329982.0
1.0,0.0,-9.0,-1.0,12.0,0.0,4.0,2.0,1650820102329982.0
-1.0,0.0,1.0,-4.0,-3.0,1.0,-3.0,2.0,1650820102329982.0
-1.0,0.0,0.0,-2.0,-13.0,-21.0,-6.0,-2.0,1650820102368199.0
-3.0,-5.0,-7.0,-9.0,-9.0,-20.0,-6.0,-3.0,1650820102368199.0
-4.0,8.0,3.0,3.0,-3.0,3.0,-3.0,-2.0,1650820102369200.0
2.0,-2.0,0.0,-4.0,4.0,12.0,1.0,0.0,1650820102369200.0
-1.0,-1.0,3.0,1.0,-3.0,-4.0,-3.0,-2.0,1650820102371188.0
-6.0,1.0,-6.0,-3.0,8.0,9.0,8.0,0.0,1650820102371188.0
-1.0,-3.0,-4.0,-1.0,-4.0,-5.0,-3.0,-2.0,1650820102374206.0
0.0,2.0,-3.0,-3.0,-7.0,-5.0,-2.0,2.0,1650820102374206.0
-3.0,-1.0,1.0,-4.0,-9.0,-22.0,-11.0,-2.0,1650820102389208.0
-5.0,-2.0,-2.0,-2.0,2.0,-1.0,-3.0,-1.0,1650820102389208.0
6.0,7.0,5.0,1.0,6.0,18.0,1.0,-1.0,1650820102390137.0
-1.0,-1.0,1.0,4.0,13.0,26.0,8.0,10.0,1650820102390137.0
8.0,-1.0,-5.0,0.0,13.0,5.0,1.0,-6.0,1650820102413203.0
-4.0,0.0,1.0,1.0,-5.0,-6.0,-2.0,-1.0,1650820102413203.0
-2.0,-2.0,-4.0,-5.0,-24.0,-24.0,-4.0,-2.0,1650820102413203.0
0.0,6.0,8.0,3.0,-3.0,-10.0,-7.0,0.0,1650820102413203.0
-3.0,-5.0,4.0,6.0,4.0,2.0,-1.0,-1.0,1650820102435567.0
2.0,8.0,2.0,2.0,-13.0,-9.0,-3.0,-6.0,1650820102435567.0
-1.0,-5.0,-12.0,-7.0,3.0,2.0,-3.0,0.0,1650820102435567.0
3.0,5.0,9.0,8.0,23.0,22.0,14.0,2.0,1650820102435567.0
-1.0,3.0,-4.0,-3.0,4.0,-1.0,3.0,2.0,1650820102449688.0
1.0,-2.0,-4.0,-5.0,-11.0,-26.0,-8.0,-2.0,1650820102449688.0
-5.0,-7.0,0.0,1.0,-21.0,-5.0,0.0,-3.0,1650820102450648.0
-6.0,-1.0,0.0,-2.0,-1.0,7.0,11.0,-8.0,1650820102450648.0
5.0,1.0,0.0,1.0,12.0,5.0,-3.0,1.0,1650820102473184.0
4.0,-3.0,1.0,3.0,13.0,14.0,5.0,5.0,1650820102473184.0
-4.0,1.0,-5.0,-6.0,-10.0,-12.0,5.0,2.0,1650820102473184.0
-3.0,-3.0,-3.0,-3.0,-22.0,-32.0,-11.0,-2.0,1650820102473184.0
-4.0,-4.0,-4.0,1.0,4.0,13.0,-1.0,-5.0,1650820102494977.0
2.0,1.0,1.0,-3.0,20.0,11.0,-2.0,0.0,1650820102494977.0
0.0,2.0,7.0,8.0,4.0,6.0,1.0,3.0,1650820102495972.0
-2.0,4.0,-2.0,1.0,4.0,11.0,3.0,1.0,1650820102495972.0
1.0,0.0,9.0,-8.0,-11.0,-15.0,-4.0,2.0,1650820102509966.0
-2.0,-10.0,-11.0,-3.0,-12.0,-24.0,-6.0,-2.0,1650820102509966.0
-2.0,-5.0,-4.0,-2.0,-3.0,-9.0,-4.0,-2.0,1650820102509966.0
3.0,1.0,4.0,3.0,8.0,27.0,1.0,3.0,1650820102509966.0
-1.0,0.0,-6.0,-4.0,-3.0,8.0,3.0,-7.0,1650820102533184.0
-1.0,3.0,10.0,6.0,9.0,-1.0,1.0,0.0,1650820102533184.0
-2.0,-1.0,-5.0,-7.0,-2.0,-4.0,-4.0,-2.0,1650820102533184.0
0.0,-3.0,1.0,3.0,-14.0,-18.0,-8.0,-2.0,1650820102533184.0
-2.0,-1.0,-5.0,-1.0,1.0,-15.0,5.0,7.0,1650820102555061.0
-1.0,2.0,2.0,0.0,2.0,10.0,16.0,2.0,1650820102555061.0
1.0,4.0,-1.0,-3.0,-14.0,9.0,-3.0,-3.0,1650820102556004.0
2.0,3.0,3.0,-1.0,7.0,8.0,-5.0,-1.0,1650820102556004.0
-5.0,-1.0,2.0,9.0,20.0,11.0,-1.0,1.0,1650820102569970.0
6.0,0.0,0.0,2.0,-2.0,5.0,-1.0,0.0,1650820102569970.0
0.0,-5.0,-5.0,-12.0,-10.0,-21.0,-4.0,-3.0,1650820102570902.0
-2.0,-2.0,-2.0,-3.0,-7.0,-7.0,0.0,-2.0,1650820102570902.0
-3.0,0.0,0.0,-3.0,-4.0,0.0,3.0,3.0,1650820102592910.0
6.0,-1.0,-2.0,9.0,2.0,9.0,1.0,0.0,1650820102592910.0
-2.0,-2.0,-2.0,2.0,8.0,7.0,2.0,1.0,1650820102593868.0
-2.0,-7.0,-2.0,-4.0,-10.0,-8.0,-4.0,-3.0,1650820102593868.0
-2.0,-1.0,-7.0,-11.0,-16.0,-33.0,-10.0,-2.0,1650820102614785.0
-1.0,-1.0,-2.0,-6.0,1.0,5.0,-2.0,0.0,1650820102614785.0
1.0,2.0,5.0,7.0,5.0,26.0,7.0,3.0,1650820102615782.0
0.0,1.0,2.0,4.0,21.0,11.0,5.0,2.0,1650820102615782.0
0.0,-3.0,4.0,3.0,1.0,-1.0,4.0,3.0,1650820102638152.0
-3.0,-2.0,-5.0,-6.0,-10.0,-13.0,-10.0,-3.0,1650820102638152.0
-1.0,-1.0,-2.0,3.0,-3.0,-15.0,-1.0,1.0,1650820102638794.0
-2.0,2.0,-3.0,-3.0,-5.0,10.0,-2.0,0.0,1650820102638794.0
0.0,-1.0,-3.0,0.0,12.0,16.0,3.0,-1.0,1650820102653127.0
-3.0,-2.0,-1.0,-5.0,-27.0,-31.0,-9.0,-3.0,1650820102653127.0
-2.0,-2.0,4.0,3.0,8.0,2.0,-10.0,-8.0,1650820102653941.0
-2.0,2.0,1.0,4.0,13.0,27.0,9.0,4.0,1650820102653941.0
10.0,2.0,1.0,7.0,8.0,18.0,9.0,4.0,1650820102675568.0
0.0,-1.0,-1.0,1.0,12.0,9.0,4.0,0.0,1650820102675568.0
0.0,-1.0,-2.0,-3.0,-7.0,-15.0,-2.0,2.0,1650820102675568.0
0.0,-2.0,-3.0,-7.0,-15.0,-30.0,-10.0,-3.0,1650820102675568.0
-6.0,-2.0,-5.0,-4.0,-5.0,3.0,-9.0,-4.0,1650820102689600.0
-2.0,-3.0,-2.0,-3.0,-2.0,0.0,-1.0,0.0,1650820102689600.0
1.0,1.0,5.0,4.0,0.0,-7.0,-5.0,-1.0,1650820102690531.0
1.0,1.0,-3.0,1.0,-6.0,5.0,9.0,1.0,1650820102690531.0
-1.0,0.0,17.0,16.0,3.0,6.0,4.0,1.0,1650820102713209.0
-1.0,-2.0,-13.0,-13.0,5.0,2.0,0.0,0.0,1650820102713209.0
-1.0,0.0,0.0,-1.0,-5.0,-9.0,0.0,0.0,1650820102713209.0
1.0,-3.0,-4.0,-3.0,-9.0,-6.0,-9.0,-3.0,1650820102713209.0
-5.0,-6.0,-2.0,4.0,7.0,13.0,4.0,0.0,1650820102735490.0
0.0,2.0,4.0,2.0,11.0,8.0,4.0,0.0,1650820102735490.0
1.0,0.0,-2.0,-1.0,-7.0,2.0,1.0,-1.0,1650820102736469.0
1.0,2.0,-1.0,-4.0,5.0,-7.0,-1.0,1.0,1650820102736469.0
1.0,-1.0,-3.0,-3.0,-6.0,-15.0,-11.0,-1.0,1650820102749502.0
-2.0,3.0,6.0,11.0,1.0,12.0,2.0,-1.0,1650820102749502.0
-2.0,-4.0,-6.0,-5.0,2.0,0.0,6.0,2.0,1650820102750436.0
0.0,0.0,2.0,-1.0,-8.0,-13.0,-5.0,-2.0,1650820102750436.0
-1.0,0.0,-7.0,-9.0,-1.0,-4.0,0.0,0.0,1650820102773151.0
-3.0,-3.0,2.0,2.0,-3.0,4.0,-3.0,-2.0,1650820102773151.0
0.0,-1.0,-5.0,-4.0,2.0,3.0,-3.0,-1.0,1650820102773939.0
-3.0,-4.0,7.0,5.0,-12.0,-14.0,-2.0,-2.0,1650820102773939.0
-1.0,1.0,-2.0,1.0,8.0,3.0,0.0,1.0,1650820102795066.0
0.0,3.0,2.0,1.0,5.0,9.0,7.0,3.0,1650820102795066.0
2.0,0.0,-1.0,1.0,2.0,7.0,6.0,1.0,1650820102795997.0
-1.0,-1.0,4.0,0.0,1.0,-5.0,-3.0,1.0,1650820102795997.0
-2.0,-3.0,-10.0,-13.0,-20.0,-34.0,-11.0,-6.0,1650820102810006.0
0.0,0.0,1.0,-1.0,-13.0,-6.0,-3.0,-1.0,1650820102810006.0
-1.0,0.0,-1.0,1.0,-8.0,24.0,0.0,0.0,1650820102810006.0
2.0,-1.0,-1.0,4.0,43.0,23.0,8.0,1.0,1650820102810006.0
0.0,1.0,3.0,5.0,8.0,5.0,4.0,2.0,1650820102840288.0
3.0,2.0,2.0,0.0,3.0,-7.0,-2.0,0.0,1650820102840288.0
-3.0,-2.0,-1.0,-4.0,-14.0,-21.0,-12.0,-4.0,1650820102841250.0
0.0,1.0,-6.0,-9.0,-24.0,-16.0,5.0,1.0,1650820102841250.0
-2.0,-1.0,-4.0,-3.0,-9.0,0.0,4.0,4.0,1650820102855451.0
-2.0,-2.0,-3.0,-2.0,7.0,2.0,2.0,-6.0,1650820102855451.0
0.0,0.0,1.0,-3.0,2.0,-8.0,-1.0,1.0,1650820102856452.0
-3.0,-1.0,0.0,-1.0,-8.0,5.0,-8.0,-4.0,1650820102856452.0
4.0,-1.0,0.0,4.0,7.0,14.0,-1.0,0.0,1650820102869596.0
2.0,0.0,1.0,6.0,25.0,25.0,10.0,5.0,1650820102869596.0
2.0,-1.0,-1.0,0.0,12.0,3.0,4.0,0.0,1650820102870528.0
0.0,-2.0,-3.0,-4.0,-8.0,-12.0,-5.0,-1.0,1650820102870528.0
-3.0,0.0,-7.0,-10.0,-26.0,-30.0,-8.0,-5.0,1650820102893127.0
-4.0,-2.0,4.0,1.0,-15.0,-4.0,-9.0,-5.0,1650820102893127.0
-2.0,0.0,4.0,4.0,6.0,8.0,5.0,1.0,1650820102893608.0
0.0,-1.0,-2.0,-3.0,10.0,12.0,1.0,2.0,1650820102893608.0
-1.0,1.0,2.0,8.0,4.0,-4.0,-1.0,0.0,1650820102914957.0
1.0,-2.0,0.0,-7.0,-10.0,-11.0,-3.0,0.0,1650820102914957.0
-1.0,-2.0,-2.0,2.0,9.0,12.0,1.0,0.0,1650820102915932.0
0.0,3.0,-2.0,-1.0,-4.0,5.0,2.0,1.0,1650820102915932.0
1.0,-1.0,8.0,4.0,5.0,1.0,0.0,0.0,1650820102929897.0
-2.0,-2.0,-7.0,-3.0,-3.0,-12.0,0.0,1.0,1650820102929897.0
-1.0,-1.0,-1.0,-3.0,-11.0,-9.0,-5.0,-3.0,1650820102929897.0
-2.0,-1.0,-5.0,-5.0,-7.0,-2.0,-12.0,-3.0,1650820102929897.0
2.0,3.0,4.0,5.0,5.0,19.0,18.0,0.0,1650820102952929.0
2.0,1.0,5.0,9.0,2.0,4.0,0.0,1.0,1650820102952929.0
-4.0,-2.0,-1.0,-2.0,15.0,8.0,3.0,-1.0,1650820102953865.0
11.0,-2.0,-4.0,1.0,11.0,-3.0,-2.0,0.0,1650820102953865.0
-11.0,-3.0,-1.0,-8.0,-14.0,-13.0,-8.0,-2.0,1650820102975126.0
-3.0,-3.0,-8.0,-9.0,-18.0,-14.0,-5.0,-1.0,1650820102975126.0
0.0,0.0,-2.0,0.0,-12.0,6.0,-1.0,-1.0,1650820102976060.0
-3.0,1.0,2.0,4.0,11.0,4.0,3.0,1.0,1650820102976060.0
2.0,-1.0,2.0,3.0,17.0,18.0,4.0,1.0,1650820102989871.0
3.0,2.0,0.0,-7.0,5.0,-2.0,3.0,3.0,1650820102989871.0
-2.0,-2.0,0.0,2.0,-5.0,-11.0,-1.0,-1.0,1650820102989871.0
0.0,0.0,-1.0,-3.0,-25.0,-7.0,-1.0,-2.0,1650820102989871.0
-1.0,-1.0,-2.0,-3.0,6.0,1.0,-3.0,-1.0,1650820103012997.0
-2.0,-2.0,0.0,6.0,13.0,2.0,-5.0,-8.0,1650820103012997.0
1.0,1.0,2.0,2.0,4.0,-2.0,0.0,2.0,1650820103013963.0
-3.0,-1.0,1.0,-2.0,-10.0,-14.0,1.0,-2.0,1650820103013963.0
-1.0,-2.0,-4.0,-5.0,-13.0,7.0,-1.0,-2.0,1650820103035124.0
-2.0,-1.0,-1.0,-2.0,-3.0,14.0,-2.0,1.0,1650820103035124.0
1.0,1.0,-1.0,3.0,15.0,-1.0,1.0,-1.0,1650820103036055.0
-1.0,-2.0,1.0,3.0,5.0,-6.0,0.0,0.0,1650820103036055.0
-5.0,-1.0,-3.0,-5.0,-2.0,-3.0,4.0,1.0,1650820103049030.0
9.0,0.0,-1.0,0.0,-10.0,-11.0,0.0,1.0,1650820103049030.0
-3.0,-5.0,-5.0,-3.0,-12.0,-3.0,-4.0,-4.0,1650820103057120.0
-1.0,0.0,0.0,-1.0,11.0,6.0,-4.0,-4.0,1650820103057120.0
1.0,0.0,-2.0,1.0,1.0,-3.0,-1.0,-2.0,1650820103072343.0
-3.0,0.0,1.0,3.0,0.0,8.0,9.0,3.0,1650820103072343.0
2.0,1.0,0.0,-2.0,-4.0,-7.0,3.0,0.0,1650820103073282.0
-2.0,-1.0,1.0,0.0,2.0,2.0,0.0,0.0,1650820103073282.0
1.0,0.0,-2.0,0.0,1.0,2.0,-4.0,-1.0,1650820103095563.0
1.0,0.0,-1.0,-3.0,-4.0,-9.0,-4.0,-2.0,1650820103095563.0
-8.0,-2.0,1.0,1.0,5.0,7.0,1.0,-1.0,1650820103095563.0
0.0,0.0,0.0,2.0,-7.0,0.0,1.0,1.0,1650820103095563.0
3.0,-1.0,-6.0,-5.0,-8.0,-4.0,-1.0,0.0,1650820103118127.0
0.0,0.0,6.0,6.0,11.0,5.0,1.0,2.0,1650820103118127.0
3.0,0.0,-3.0,-2.0,-1.0,-4.0,2.0,0.0,1650820103118791.0
-2.0,0.0,-1.0,0.0,-11.0,-4.0,-1.0,1.0,1650820103118791.0
-1.0,-4.0,-5.0,-4.0,10.0,12.0,-2.0,-1.0,1650820103133188.0
-5.0,0.0,2.0,3.0,5.0,10.0,-4.0,-1.0,1650820103133188.0
7.0,2.0,-5.0,-3.0,2.0,5.0,2.0,-1.0,1650820103133188.0
-1.0,-1.0,5.0,-1.0,-15.0,-29.0,-5.0,-1.0,1650820103133188.0
0.0,0.0,1.0,3.0,-5.0,-9.0,1.0,-2.0,1650820103155510.0
-1.0,0.0,-3.0,0.0,8.0,17.0,3.0,1.0,1650820103155510.0
-4.0,-1.0,4.0,2.0,-2.0,6.0,2.0,2.0,1650820103155510.0
9.0,-2.0,-3.0,-1.0,11.0,2.0,-4.0,-2.0,1650820103155510.0
-2.0,1.0,1.0,0.0,-6.0,-1.0,5.0,1.0,1650820103168558.0
-6.0,-5.0,-4.0,-1.0,5.0,-1.0,4.0,-5.0,1650820103168558.0
3.0,3.0,1.0,-4.0,-6.0,-8.0,-1.0,1.0,1650820103177581.0
-5.0,-4.0,0.0,2.0,-3.0,6.0,-3.0,-3.0,1650820103177581.0
0.0,-1.0,-5.0,-1.0,-1.0,2.0,-7.0,-3.0,1650820103192725.0
-1.0,-1.0,-3.0,-6.0,-10.0,-12.0,-4.0,1.0,1650820103192725.0
-1.0,-1.0,-1.0,1.0,0.0,-12.0,-4.0,0.0,1650820103193655.0
-3.0,0.0,0.0,2.0,4.0,22.0,5.0,0.0,1650820103193655.0
1.0,1.0,1.0,0.0,-6.0,-15.0,-3.0,0.0,1650820103214922.0
4.0,2.0,-4.0,-5.0,-13.0,-4.0,-2.0,-1.0,1650820103214922.0
-6.0,0.0,0.0,0.0,18.0,15.0,2.0,-1.0,1650820103215853.0
2.0,1.0,3.0,7.0,10.0,0.0,3.0,2.0,1650820103215853.0
-2.0,-1.0,1.0,-6.0,-10.0,8.0,3.0,2.0,1650820103228887.0
2.0,-1.0,-1.0,0.0,-1.0,-9.0,-3.0,0.0,1650820103228887.0
0.0,-2.0,-3.0,-2.0,-11.0,-11.0,-2.0,-3.0,1650820103244915.0
-4.0,1.0,-1.0,0.0,11.0,6.0,0.0,0.0,1650820103244915.0
2.0,1.0,1.0,-1.0,-1.0,-5.0,-4.0,-3.0,1650820103252894.0
-2.0,0.0,-1.0,-3.0,-8.0,-9.0,-1.0,1.0,1650820103252894.0
-2.0,-2.0,0.0,-2.0,-5.0,1.0,-6.0,-1.0,1650820103253848.0
0.0,1.0,0.0,-2.0,4.0,0.0,5.0,-1.0,1650820103253848.0
-1.0,-1.0,0.0,3.0,5.0,-8.0,1.0,1.0,1650820103275123.0
0.0,5.0,-1.0,-4.0,3.0,24.0,3.0,1.0,1650820103275123.0
4.0,2.0,6.0,8.0,9.0,10.0,2.0,0.0,1650820103276060.0
0.0,-2.0,-3.0,-4.0,-11.0,-18.0,-1.0,0.0,1650820103276060.0
-2.0,-2.0,2.0,2.0,-7.0,-20.0,-5.0,-3.0,1650820103288859.0
-1.0,-2.0,-2.0,-4.0,-7.0,1.0,-2.0,-3.0,1650820103288859.0
-1.0,0.0,-3.0,-2.0,4.0,13.0,3.0,1.0,1650820103297559.0
-2.0,0.0,-2.0,1.0,8.0,5.0,1.0,2.0,1650820103297559.0
-2.0,-1.0,-1.0,-2.0,0.0,-6.0,-5.0,-8.0,1650820103312361.0
1.0,-2.0,-2.0,-5.0,-6.0,-22.0,-4.0,2.0,1650820103312361.0
-1.0,-2.0,-1.0,-4.0,-19.0,4.0,3.0,-1.0,1650820103313292.0
-3.0,-1.0,7.0,5.0,1.0,7.0,0.0,2.0,1650820103313292.0
2.0,5.0,2.0,10.0,44.0,37.0,8.0,3.0,1650820103334013.0
0.0,1.0,3.0,8.0,7.0,5.0,0.0,1.0,1650820103334013.0
1.0,-2.0,-1.0,-1.0,-1.0,-5.0,-1.0,0.0,1650820103342060.0
0.0,-3.0,-8.0,-12.0,-20.0,-30.0,-6.0,-2.0,1650820103342060.0
-7.0,-1.0,-1.0,-6.0,-25.0,-9.0,-8.0,-2.0,1650820103357994.0
0.0,-1.0,-1.0,-1.0,-2.0,-5.0,-3.0,-2.0,1650820103357994.0
2.0,-1.0,-1.0,0.0,4.0,0.0,0.0,1.0,1650820103357994.0
-4.0,1.0,-6.0,-2.0,3.0,10.0,2.0,0.0,1650820103357994.0
6.0,0.0,8.0,7.0,8.0,-10.0,0.0,-2.0,1650820103373005.0
-3.0,-2.0,-2.0,0.0,4.0,22.0,3.0,-1.0,1650820103373005.0
-1.0,1.0,7.0,5.0,-8.0,-14.0,-4.0,-1.0,1650820103373005.0
0.0,3.0,-3.0,-3.0,-2.0,6.0,-1.0,-1.0,1650820103373005.0
-1.0,-3.0,-5.0,-2.0,0.0,-1.0,6.0,4.0,1650820103395061.0
0.0,0.0,6.0,1.0,4.0,-1.0,2.0,1.0,1650820103395061.0
-2.0,-1.0,-2.0,-1.0,-1.0,-2.0,0.0,0.0,1650820103396053.0
2.0,0.0,-1.0,2.0,6.0,7.0,-1.0,-2.0,1650820103396053.0
2.0,-1.0,-2.0,-5.0,-17.0,-18.0,-4.0,2.0,1650820103418135.0
-2.0,-3.0,-2.0,1.0,0.0,4.0,1.0,0.0,1650820103418135.0
-5.0,0.0,3.0,6.0,9.0,12.0,-3.0,-3.0,1650820103418135.0
8.0,-6.0,-5.0,1.0,5.0,-12.0,3.0,1.0,1650820103418135.0
3.0,1.0,0.0,-3.0,-4.0,14.0,0.0,4.0,1650820103433178.0
-2.0,-2.0,2.0,2.0,3.0,-7.0,0.0,-4.0,1650820103433178.0
0.0,-1.0,-1.0,-2.0,0.0,-3.0,-4.0,-2.0,1650820103433932.0
-3.0,-2.0,1.0,-4.0,-8.0,4.0,-2.0,2.0,1650820103433932.0
-1.0,-2.0,-6.0,-5.0,-7.0,-3.0,-2.0,-1.0,1650820103455103.0
0.0,-1.0,-5.0,-3.0,-11.0,-18.0,-2.0,1.0,1650820103455103.0
0.0,0.0,0.0,-2.0,6.0,8.0,2.0,1.0,1650820103456035.0
0.0,1.0,3.0,2.0,6.0,6.0,-1.0,-1.0,1650820103456035.0
-7.0,-2.0,5.0,6.0,7.0,3.0,0.0,1.0,1650820103478151.0
3.0,0.0,-5.0,-4.0,-5.0,-1.0,-3.0,-3.0,1650820103478151.0
0.0,0.0,0.0,1.0,-8.0,-7.0,-2.0,0.0,1650820103478818.0
-2.0,2.0,1.0,-1.0,-2.0,6.0,2.0,0.0,1650820103478818.0
-3.0,-3.0,1.0,4.0,15.0,12.0,3.0,1.0,1650820103491852.0
-1.0,0.0,-4.0,-7.0,1.0,-3.0,1.0,-1.0,1650820103491852.0
4.0,-3.0,-5.0,1.0,-8.0,-15.0,-2.0,1.0,1650820103492784.0
-1.0,1.0,-1.0,-2.0,-7.0,-9.0,-5.0,-1.0,1650820103492784.0
-1.0,-1.0,0.0,-7.0,-3.0,1.0,-1.0,-3.0,1650820103514985.0
-5.0,-1.0,1.0,5.0,-5.0,-12.0,-5.0,-1.0,1650820103514985.0
8.0,0.0,-3.0,-1.0,13.0,38.0,5.0,1.0,1650820103516913.0
-2.0,0.0,2.0,1.0,12.0,13.0,8.0,1.0,1650820103516913.0
0.0,1.0,-1.0,1.0,-8.0,-11.0,-6.0,-3.0,1650820103538090.0
-2.0,-6.0,-3.0,-2.0,0.0,0.0,8.0,2.0,1650820103538090.0
-5.0,-1.0,1.0,-9.0,-8.0,-15.0,-7.0,-3.0,1650820103539089.0
3.0,-2.0,-5.0,-1.0,-11.0,-7.0,-5.0,-5.0,1650820103539089.0
-6.0,-1.0,-2.0,2.0,-1.0,-10.0,-2.0,-2.0,1650820103551123.0
-2.0,1.0,5.0,10.0,7.0,6.0,-2.0,1.0,1650820103551123.0
-3.0,-1.0,-1.0,2.0,9.0,13.0,2.0,1.0,1650820103560889.0
1.0,0.0,-3.0,-5.0,-2.0,-3.0,-2.0,-1.0,1650820103560889.0
1.0,3.0,3.0,-2.0,-8.0,-6.0,-1.0,3.0,1650820103575572.0
2.0,2.0,-3.0,-6.0,-6.0,-5.0,-6.0,-2.0,1650820103575572.0
-1.0,-2.0,-4.0,1.0,2.0,6.0,6.0,2.0,1650820103576573.0
-2.0,1.0,1.0,2.0,4.0,-2.0,-3.0,0.0,1650820103576573.0
0.0,0.0,-1.0,1.0,-2.0,3.0,-3.0,0.0,1650820103597735.0
1.0,-1.0,2.0,1.0,1.0,6.0,4.0,2.0,1650820103597735.0
0.0,-3.0,-4.0,-2.0,-3.0,-15.0,-4.0,-1.0,1650820103599765.0
1.0,-2.0,-1.0,1.0,-4.0,-9.0,-1.0,0.0,1650820103599765.0
0.0,-3.0,-2.0,-2.0,-12.0,-20.0,-3.0,-4.0,1650820103611696.0
0.0,0.0,-4.0,-3.0,5.0,22.0,0.0,-2.0,1650820103611696.0
-7.0,0.0,10.0,10.0,27.0,26.0,4.0,-1.0,1650820103620678.0
1.0,0.0,1.0,0.0,5.0,14.0,7.0,1.0,1650820103620678.0
1.0,1.0,-1.0,-1.0,-6.0,-4.0,2.0,2.0,1650820103635563.0
0.0,0.0,-2.0,-3.0,-11.0,-26.0,-2.0,2.0,1650820103635563.0
-1.0,-1.0,-10.0,-11.0,-15.0,-22.0,-5.0,-2.0,1650820103636567.0
-4.0,0.0,6.0,4.0,-2.0,1.0,-3.0,-2.0,1650820103636567.0
1.0,-1.0,-5.0,-2.0,5.0,10.0,4.0,1.0,1650820103658151.0
-4.0,0.0,1.0,1.0,3.0,1.0,0.0,0.0,1650820103658151.0
1.0,-1.0,-5.0,-4.0,-8.0,-14.0,-3.0,-1.0,1650820103658820.0
-1.0,-1.0,3.0,-1.0,-10.0,-2.0,-3.0,-1.0,1650820103658820.0
0.0,-2.0,-4.0,-2.0,6.0,1.0,-1.0,-1.0,1650820103671881.0
1.0,-2.0,2.0,5.0,20.0,11.0,1.0,0.0,1650820103671881.0
0.0,-1.0,-6.0,-6.0,0.0,10.0,3.0,1.0,1650820103680896.0
-1.0,-3.0,7.0,10.0,-6.0,-4.0,1.0,0.0,1650820103680896.0
0.0,-1.0,-2.0,-3.0,-6.0,5.0,-3.0,-1.0,1650820103695562.0
-3.0,0.0,0.0,0.0,1.0,7.0,2.0,1.0,1650820103695562.0
1.0,0.0,-1.0,-2.0,4.0,-8.0,-3.0,2.0,1650820103696566.0
3.0,4.0,0.0,-3.0,1.0,-6.0,1.0,-1.0,1650820103696566.0
-8.0,-7.0,-2.0,0.0,-1.0,-2.0,-2.0,0.0,1650820103717863.0
0.0,0.0,-1.0,-2.0,-8.0,-13.0,-4.0,-2.0,1650820103717863.0
-1.0,-3.0,-2.0,-4.0,-18.0,-16.0,-3.0,-1.0,1650820103719819.0
-6.0,0.0,-3.0,-3.0,10.0,9.0,-2.0,-1.0,1650820103719819.0
9.0,2.0,4.0,1.0,6.0,18.0,1.0,-3.0,1650820103731858.0
0.0,0.0,5.0,5.0,4.0,3.0,4.0,1.0,1650820103731858.0
-2.0,2.0,-1.0,4.0,2.0,-4.0,-1.0,1.0,1650820103740855.0
-1.0,-1.0,-3.0,-2.0,1.0,-5.0,-2.0,-1.0,1650820103740855.0
3.0,4.0,-4.0,-11.0,-9.0,-6.0,-3.0,-4.0,1650820103754842.0
-1.0,-1.0,3.0,3.0,-22.0,-12.0,-3.0,-2.0,1650820103754842.0
1.0,1.0,3.0,5.0,13.0,-4.0,1.0,-1.0,1650820103756779.0
-2.0,-1.0,0.0,1.0,11.0,14.0,1.0,1.0,1650820103756779.0
-2.0,1.0,-4.0,1.0,16.0,16.0,3.0,2.0,1650820103778101.0
0.0,0.0,-1.0,-5.0,-8.0,-5.0,-3.0,-1.0,1650820103778101.0
0.0,-1.0,2.0,-1.0,-15.0,3.0,1.0,-1.0,1650820103778821.0
-3.0,-4.0,-5.0,-1.0,-1.0,1.0,0.0,1.0,1650820103778821.0
-3.0,-1.0,-1.0,0.0,1.0,-9.0,-4.0,-1.0,1650820103791818.0
3.0,-2.0,-4.0,-3.0,-1.0,-6.0,0.0,0.0,1650820103791818.0
-3.0,0.0,6.0,2.0,-7.0,-11.0,-4.0,-4.0,1650820103800748.0
-1.0,-1.0,-4.0,-8.0,-5.0,-1.0,-1.0,-2.0,1650820103800748.0
0.0,-2.0,5.0,4.0,-1.0,1.0,2.0,0.0,1650820103814765.0
-2.0,1.0,-2.0,1.0,10.0,4.0,-1.0,-2.0,1650820103814765.0
2.0,1.0,-1.0,1.0,0.0,1.0,2.0,0.0,1650820103816706.0
0.0,-1.0,-4.0,-3.0,0.0,9.0,4.0,1.0,1650820103816706.0
-5.0,1.0,4.0,5.0,3.0,4.0,0.0,1.0,1650820103838127.0
8.0,-1.0,0.0,2.0,3.0,-5.0,-2.0,1.0,1650820103838127.0
0.0,-1.0,-2.0,-3.0,-2.0,4.0,-2.0,-2.0,1650820103839761.0
-2.0,-3.0,-3.0,-6.0,-12.0,-25.0,-5.0,-2.0,1650820103839761.0
-1.0,-2.0,-4.0,-1.0,-10.0,-2.0,-2.0,-2.0,1650820103851794.0
-3.0,1.0,1.0,2.0,10.0,12.0,6.0,3.0,1650820103851794.0
1.0,1.0,1.0,2.0,-3.0,-8.0,-1.0,0.0,1650820103860832.0
2.0,1.0,-3.0,1.0,29.0,30.0,3.0,0.0,1650820103860832.0
-1.0,0.0,-1.0,1.0,1.0,12.0,2.0,1.0,1650820103875865.0
-1.0,2.0,-1.0,-2.0,-12.0,-11.0,-6.0,-1.0,1650820103875865.0
-2.0,-2.0,-4.0,-3.0,-4.0,-8.0,0.0,0.0,1650820103876891.0
-2.0,2.0,2.0,-1.0,-11.0,-14.0,-6.0,-2.0,1650820103876891.0
-1.0,-1.0,3.0,2.0,-2.0,-8.0,-4.0,-1.0,1650820103898126.0
-5.0,-3.0,-11.0,-10.0,-7.0,2.0,-2.0,0.0,1650820103898126.0
-2.0,2.0,12.0,11.0,-3.0,-3.0,-1.0,0.0,1650820103898794.0
1.0,0.0,1.0,1.0,-2.0,-2.0,-2.0,-1.0,1650820103898794.0
1.0,-3.0,-4.0,-3.0,2.0,0.0,-2.0,0.0,1650820103911878.0
-1.0,2.0,-3.0,-3.0,1.0,5.0,6.0,0.0,1650820103911878.0
-4.0,-2.0,-2.0,-5.0,6.0,3.0,-3.0,-1.0,1650820103919927.0
-4.0,-5.0,-3.0,-2.0,-1.0,3.0,0.0,5.0,1650820103919927.0
11.0,2.0,5.0,4.0,-3.0,-3.0,-1.0,-2.0,1650820103935569.0
-5.0,-8.0,-1.0,-1.0,-3.0,-7.0,-5.0,-3.0,1650820103935569.0
1.0,5.0,-9.0,0.0,1.0,1.0,-2.0,-4.0,1650820103936569.0
4.0,-1.0,3.0,0.0,-3.0,5.0,2.0,4.0,1650820103936569.0
-2.0,1.0,-4.0,-7.0,4.0,0.0,6.0,1.0,1650820103958153.0
0.0,1.0,4.0,4.0,-4.0,-8.0,-5.0,-3.0,1650820103958153.0
4.0,-2.0,-2.0,4.0,-1.0,8.0,3.0,3.0,1650820103958791.0
0.0,-2.0,9.0,-7.0,-1.0,-6.0,-2.0,-4.0,1650820103958791.0
-4.0,2.0,-8.0,3.0,-8.0,-1.0,1.0,-2.0,1650820103971884.0
3.0,3.0,19.0,5.0,20.0,27.0,4.0,-1.0,1650820103971884.0
3.0,-16.0,-44.0,-11.0,9.0,6.0,1.0,10.0,1650820103980860.0
2.0,33.0,41.0,21.0,6.0,-1.0,5.0,-7.0,1650820103980860.0
-5.0,-4.0,2.0,4.0,-17.0,-13.0,-5.0,0.0,1650820103995020.0
-5.0,10.0,14.0,-19.0,-10.0,-9.0,-7.0,14.0,1650820103995020.0
1.0,-15.0,-26.0,-13.0,-9.0,-1.0,0.0,-14.0,1650820103996975.0
1.0,9.0,-5.0,-3.0,-3.0,-5.0,-2.0,4.0,1650820103996975.0
-1.0,-7.0,-19.0,11.0,-8.0,-10.0,-5.0,-10.0,1650820104025164.0
4.0,-11.0,-29.0,-5.0,4.0,-2.0,-2.0,27.0,1650820104025164.0
-11.0,-9.0,5.0,-16.0,-8.0,-3.0,4.0,1.0,1650820104027119.0
-6.0,-5.0,-3.0,-17.0,-12.0,-13.0,-8.0,23.0,1650820104027119.0
10.0,-17.0,-26.0,-5.0,6.0,3.0,-4.0,-15.0,1650820104031109.0
2.0,12.0,1.0,8.0,3.0,3.0,-1.0,-12.0,1650820104031109.0
24.0,-8.0,6.0,2.0,-1.0,1.0,-2.0,30.0,1650820104040058.0
-11.0,8.0,17.0,7.0,7.0,8.0,8.0,-1.0,1650820104040058.0
2.0,11.0,26.0,26.0,7.0,2.0,4.0,6.0,1650820104055202.0
-3.0,-13.0,-50.0,-32.0,-8.0,-1.0,-5.0,-4.0,1650820104055202.0
-4.0,-15.0,42.0,14.0,9.0,-4.0,5.0,2.0,1650820104057154.0
-6.0,-14.0,-44.0,-7.0,-8.0,5.0,-7.0,-16.0,1650820104057154.0
-1.0,4.0,11.0,5.0,26.0,15.0,7.0,9.0,1650820104077293.0
6.0,15.0,17.0,8.0,-5.0,-10.0,2.0,-6.0,1650820104077293.0
-7.0,31.0,5.0,-8.0,-3.0,-6.0,-8.0,-6.0,1650820104079291.0
-3.0,-17.0,-4.0,5.0,4.0,1.0,-2.0,-2.0,1650820104079291.0
3.0,-8.0,9.0,-6.0,0.0,1.0,1.0,-7.0,1650820104091326.0
1.0,-2.0,-12.0,4.0,-4.0,-13.0,-2.0,9.0,1650820104091326.0
0.0,-6.0,-31.0,-17.0,-5.0,2.0,2.0,0.0,1650820104107538.0
3.0,11.0,58.0,49.0,15.0,6.0,-4.0,-3.0,1650820104107538.0
-17.0,-17.0,-41.0,-46.0,-18.0,-9.0,2.0,20.0,1650820104115557.0
4.0,2.0,34.0,22.0,-4.0,-7.0,3.0,-21.0,1650820104115557.0
-4.0,20.0,15.0,12.0,-13.0,-5.0,-10.0,3.0,1650820104116515.0
20.0,-4.0,-18.0,-6.0,18.0,37.0,15.0,-11.0,1650820104116515.0
-39.0,-3.0,28.0,18.0,29.0,24.0,8.0,-14.0,1650820104137640.0
-1.0,8.0,-20.0,-9.0,-6.0,-9.0,-5.0,1.0,1650820104137640.0
28.0,-3.0,-18.0,-23.0,-2.0,-16.0,-10.0,5.0,1650820104139598.0
-40.0,-7.0,-7.0,0.0,-32.0,-36.0,4.0,-7.0,1650820104139598.0
7.0,3.0,-4.0,-9.0,-6.0,6.0,-2.0,22.0,1650820104151604.0
-8.0,-33.0,-17.0,-9.0,-1.0,7.0,-12.0,-54.0,1650820104151604.0
1.0,-3.0,2.0,20.0,18.0,14.0,10.0,6.0,1650820104160518.0
3.0,-3.0,-3.0,-12.0,2.0,-6.0,-9.0,0.0,1650820104160518.0
18.0,-16.0,-6.0,11.0,-9.0,-11.0,2.0,20.0,1650820104175115.0
-17.0,5.0,-25.0,-28.0,-27.0,-24.0,0.0,3.0,1650820104175115.0
-4.0,18.0,7.0,22.0,13.0,1.0,-5.0,-15.0,1650820104177042.0
5.0,-16.0,-9.0,3.0,34.0,44.0,4.0,-2.0,1650820104177042.0
-4.0,10.0,19.0,-6.0,-8.0,0.0,6.0,-9.0,1650820104198042.0
15.0,0.0,7.0,10.0,11.0,-1.0,1.0,14.0,1650820104198042.0
-4.0,-10.0,16.0,6.0,-20.0,-11.0,5.0,20.0,1650820104199042.0
-2.0,7.0,-13.0,-21.0,-10.0,-12.0,-7.0,-13.0,1650820104199042.0
11.0,8.0,17.0,13.0,23.0,6.0,-2.0,-12.0,1650820104211178.0
5.0,7.0,34.0,23.0,-5.0,5.0,3.0,4.0,1650820104211178.0
-6.0,15.0,2.0,-28.0,1.0,5.0,3.0,15.0,1650820104226082.0
11.0,-13.0,-17.0,3.0,-20.0,-14.0,-9.0,-29.0,1650820104226082.0
-26.0,-2.0,0.0,-5.0,-16.0,-20.0,-4.0,6.0,1650820104235057.0
-3.0,1.0,14.0,5.0,14.0,4.0,2.0,6.0,1650820104235057.0
-23.0,10.0,36.0,24.0,12.0,14.0,4.0,-24.0,1650820104236987.0
9.0,-4.0,-40.0,-26.0,-13.0,-9.0,-3.0,33.0,1650820104236987.0
1.0,-11.0,-10.0,0.0,-2.0,-7.0,0.0,-30.0,1650820104257422.0
31.0,23.0,22.0,6.0,-8.0,-14.0,-7.0,7.0,1650820104257422.0
-60.0,-32.0,-13.0,6.0,17.0,30.0,6.0,-1.0,1650820104259381.0
16.0,-32.0,-42.0,5.0,16.0,17.0,2.0,13.0,1650820104259381.0
8.0,-3.0,-21.0,-32.0,-12.0,-8.0,-1.0,4.0,1650820104271385.0
5.0,-7.0,25.0,42.0,26.0,17.0,12.0,38.0,1650820104271385.0
9.0,8.0,-17.0,-18.0,-25.0,-24.0,-18.0,-51.0,1650820104280879.0
-5.0,0.0,31.0,2.0,-18.0,-18.0,1.0,-3.0,1650820104280879.0
-3.0,-9.0,-36.0,-17.0,3.0,9.0,0.0,18.0,1650820104295064.0
-1.0,-15.0,-16.0,-2.0,5.0,24.0,4.0,7.0,1650820104295064.0
12.0,21.0,32.0,26.0,11.0,6.0,7.0,1.0,1650820104297019.0
-15.0,3.0,-27.0,-6.0,0.0,-9.0,-4.0,-40.0,1650820104297019.0
27.0,31.0,38.0,8.0,-10.0,-9.0,-3.0,12.0,1650820104318105.0
-16.0,9.0,-4.0,-14.0,-16.0,-28.0,-12.0,-32.0,1650820104318105.0
12.0,-7.0,-18.0,-11.0,-15.0,-12.0,-4.0,0.0,1650820104319047.0
-4.0,-10.0,25.0,9.0,2.0,10.0,11.0,34.0,1650820104319047.0
4.0,-1.0,-2.0,9.0,25.0,34.0,2.0,-3.0,1650820104340240.0
-17.0,1.0,9.0,3.0,23.0,15.0,11.0,3.0,1650820104340240.0
5.0,-13.0,-2.0,0.0,0.0,-7.0,-1.0,-8.0,1650820104342195.0
36.0,17.0,18.0,-2.0,-7.0,-17.0,6.0,32.0,1650820104342195.0
-63.0,-14.0,-10.0,-28.0,-35.0,-28.0,-24.0,-98.0,1650820104354873.0
-10.0,-26.0,-51.0,-19.0,-6.0,10.0,-6.0,18.0,1650820104354873.0
-5.0,-21.0,-44.0,-15.0,-25.0,-30.0,-9.0,-4.0,1650820104356897.0
6.0,-2.0,13.0,24.0,19.0,0.0,2.0,-7.0,1650820104356897.0
9.0,34.0,83.0,16.0,11.0,17.0,2.0,25.0,1650820104378066.0
8.0,-5.0,-18.0,-14.0,6.0,26.0,7.0,-10.0,1650820104378066.0
-3.0,-2.0,-25.0,4.0,27.0,30.0,16.0,13.0,1650820104378999.0
19.0,16.0,23.0,-1.0,-9.0,-1.0,0.0,5.0,1650820104378999.0
-18.0,1.0,-7.0,12.0,-8.0,-25.0,-3.0,5.0,1650820104399927.0
-10.0,5.0,14.0,-8.0,-20.0,-35.0,-7.0,-9.0,1650820104399927.0
-2.0,-30.0,0.0,2.0,-9.0,2.0,-9.0,5.0,1650820104401856.0
-8.0,7.0,9.0,-1.0,-1.0,0.0,1.0,6.0,1650820104401856.0
22.0,5.0,-20.0,-5.0,3.0,-1.0,5.0,28.0,1650820104414930.0
0.0,5.0,9.0,11.0,11.0,21.0,1.0,-26.0,1650820104414930.0
1.0,13.0,6.0,-10.0,-2.0,-11.0,-1.0,10.0,1650820104416906.0
-10.0,-19.0,-12.0,1.0,-9.0,-6.0,-8.0,-25.0,1650820104416906.0
26.0,3.0,-2.0,-12.0,0.0,8.0,11.0,62.0,1650820104438101.0
3.0,-11.0,-32.0,3.0,11.0,2.0,-15.0,-61.0,1650820104438101.0
-37.0,7.0,7.0,3.0,-2.0,-6.0,-3.0,12.0,1650820104438820.0
-1.0,0.0,22.0,-1.0,-6.0,-4.0,5.0,12.0,1650820104438820.0
6.0,-3.0,-67.0,-8.0,-17.0,-14.0,-10.0,-41.0,1650820104460076.0
6.0,-11.0,-18.0,-24.0,-21.0,-26.0,-6.0,11.0,1650820104460076.0
-17.0,21.0,61.0,32.0,14.0,21.0,-3.0,-13.0,1650820104462003.0
-15.0,-13.0,-15.0,14.0,18.0,28.0,8.0,23.0,1650820104462003.0
1.0,-28.0,-14.0,-18.0,9.0,2.0,2.0,-24.0,1650820104475080.0
1.0,37.0,55.0,19.0,-4.0,-2.0,0.0,-6.0,1650820104475080.0
17.0,-25.0,-48.0,-23.0,4.0,10.0,0.0,11.0,1650820104481100.0
9.0,32.0,-11.0,-23.0,1.0,-5.0,-4.0,-20.0,1650820104481100.0
-39.0,-18.0,38.0,40.0,3.0,-5.0,-7.0,-34.0,1650820104505286.0
-2.0,-20.0,-31.0,-23.0,-12.0,-22.0,4.0,26.0,1650820104505286.0
22.0,25.0,5.0,-2.0,-13.0,-24.0,0.0,-8.0,1650820104507242.0
3.0,17.0,4.0,2.0,10.0,18.0,-3.0,10.0,1650820104507242.0
7.0,15.0,5.0,-12.0,2.0,7.0,-5.0,7.0,1650820104519925.0
-27.0,-7.0,1.0,10.0,6.0,9.0,2.0,-18.0,1650820104519925.0
21.0,4.0,-8.0,-10.0,-1.0,-1.0,-1.0,-11.0,1650820104521853.0
-10.0,-7.0,-13.0,-10.0,-2.0,-15.0,-11.0,4.0,1650820104521853.0
14.0,14.0,17.0,13.0,-5.0,-2.0,7.0,16.0,1650820104534865.0
-5.0,-1.0,-22.0,-16.0,-8.0,-1.0,-6.0,-8.0,1650820104534865.0
16.0,-15.0,17.0,20.0,-13.0,-6.0,0.0,9.0,1650820104541875.0
-26.0,-3.0,-15.0,-33.0,-2.0,-3.0,-6.0,6.0,1650820104541875.0
10.0,10.0,-1.0,11.0,11.0,-3.0,1.0,-3.0,1650820104558126.0
10.0,11.0,20.0,11.0,-9.0,-14.0,-2.0,18.0,1650820104558126.0
-24.0,-1.0,-21.0,-4.0,1.0,14.0,1.0,-6.0,1650820104558792.0
2.0,6.0,19.0,4.0,4.0,22.0,3.0,1.0,1650820104558792.0
-6.0,-10.0,-19.0,-5.0,20.0,27.0,6.0,11.0,1650820104580320.0
18.0,15.0,18.0,15.0,12.0,-5.0,12.0,19.0,1650820104580320.0
-5.0,-16.0,3.0,3.0,-17.0,-28.0,-10.0,-11.0,1650820104581344.0
2.0,1.0,4.0,13.0,-14.0,-7.0,1.0,-5.0,1650820104581344.0
9.0,17.0,11.0,-1.0,3.0,-13.0,6.0,18.0,1650820104594465.0
-16.0,-21.0,-20.0,-23.0,-2.0,6.0,-14.0,-14.0,1650820104594465.0
16.0,-4.0,5.0,9.0,2.0,10.0,11.0,22.0,1650820104601445.0
-8.0,17.0,1.0,13.0,18.0,9.0,20.0,25.0,1650820104601445.0
21.0,5.0,2.0,-1.0,0.0,9.0,-7.0,-38.0,1650820104617606.0
-2.0,-3.0,3.0,11.0,-8.0,-10.0,-3.0,5.0,1650820104617606.0
17.0,17.0,11.0,-2.0,9.0,10.0,5.0,5.0,1650820104619560.0
-25.0,-24.0,-28.0,-15.0,-10.0,-3.0,-6.0,-13.0,1650820104619560.0
-6.0,-6.0,-23.0,-9.0,-14.0,-17.0,0.0,15.0,1650820104640660.0
3.0,24.0,21.0,18.0,-4.0,-8.0,-2.0,26.0,1650820104640660.0
5.0,29.0,16.0,-8.0,-19.0,-16.0,-1.0,-32.0,1650820104641643.0
29.0,5.0,20.0,23.0,39.0,32.0,0.0,1.0,1650820104641643.0
-42.0,-12.0,-5.0,-11.0,7.0,18.0,5.0,1.0,1650820104654755.0
-1.0,-8.0,-46.0,-30.0,5.0,6.0,4.0,-6.0,1650820104654755.0
0.0,-19.0,-13.0,-11.0,-1.0,-2.0,2.0,7.0,1650820104661832.0
-10.0,-18.0,12.0,29.0,-15.0,-24.0,-7.0,-19.0,1650820104661832.0
-5.0,0.0,29.0,13.0,-21.0,-17.0,-11.0,10.0,1650820104678123.0
13.0,-10.0,10.0,10.0,11.0,10.0,7.0,41.0,1650820104678123.0
-15.0,8.0,15.0,-10.0,25.0,13.0,-2.0,-51.0,1650820104679054.0
8.0,-16.0,-56.0,-27.0,-11.0,-7.0,13.0,49.0,1650820104679054.0
12.0,-1.0,13.0,13.0,-3.0,2.0,-4.0,-22.0,1650820104708253.0
9.0,20.0,35.0,7.0,3.0,8.0,17.0,29.0,1650820104708253.0
-7.0,-14.0,-10.0,6.0,1.0,-1.0,-5.0,6.0,1650820104709249.0
12.0,7.0,34.0,-5.0,-3.0,-5.0,-8.0,-13.0,1650820104709249.0
12.0,-19.0,-23.0,-6.0,-6.0,0.0,13.0,40.0,1650820104714262.0
1.0,-11.0,28.0,20.0,8.0,-6.0,1.0,35.0,1650820104714262.0
-22.0,6.0,-41.0,-26.0,1.0,14.0,-9.0,-79.0,1650820104721243.0
0.0,-14.0,25.0,6.0,3.0,7.0,-8.0,-34.0,1650820104721243.0
10.0,7.0,-1.0,11.0,-3.0,-31.0,-6.0,7.0,1650820104738151.0
-14.0,1.0,-25.0,-26.0,-9.0,-10.0,-12.0,-36.0,1650820104738151.0
9.0,9.0,-14.0,-11.0,-18.0,8.0,0.0,40.0,1650820104738819.0
-5.0,0.0,-14.0,18.0,8.0,9.0,8.0,0.0,1650820104738819.0
1.0,8.0,2.0,-11.0,15.0,13.0,-1.0,-17.0,1650820104759942.0
-10.0,-5.0,-33.0,-5.0,0.0,-9.0,-4.0,-5.0,1650820104759942.0
6.0,-16.0,-7.0,1.0,-2.0,-18.0,5.0,32.0,1650820104761872.0
-10.0,7.0,21.0,-12.0,-21.0,-19.0,-12.0,-32.0,1650820104761872.0
-10.0,20.0,2.0,-4.0,-7.0,1.0,-4.0,-3.0,1650820104783146.0
-2.0,-26.0,-65.0,-11.0,-8.0,2.0,-6.0,-37.0,1650820104783146.0
43.0,28.0,35.0,10.0,3.0,-5.0,4.0,57.0,1650820104783964.0
-55.0,-30.0,-13.0,-4.0,-2.0,-2.0,0.0,-34.0,1650820104783964.0
-12.0,-12.0,15.0,12.0,4.0,3.0,1.0,0.0,1650820104798151.0
18.0,-15.0,11.0,-2.0,-1.0,5.0,3.0,-12.0,1650820104798151.0
-10.0,-12.0,-20.0,-5.0,6.0,3.0,-2.0,1.0,1650820104798819.0
19.0,16.0,34.0,-4.0,3.0,-1.0,6.0,49.0,1650820104798819.0
7.0,-20.0,-41.0,-11.0,-3.0,-8.0,-2.0,-11.0,1650820104819983.0
-10.0,16.0,48.0,25.0,-11.0,13.0,-2.0,-9.0,1650820104819983.0
3.0,-9.0,-16.0,-2.0,9.0,-5.0,6.0,28.0,1650820104821913.0
23.0,10.0,-26.0,2.0,-7.0,-17.0,-2.0,6.0,1650820104821913.0
-3.0,-5.0,1.0,1.0,10.0,14.0,0.0,0.0,1650820104833946.0
8.0,3.0,-18.0,2.0,12.0,17.0,-4.0,-31.0,1650820104833946.0
-5.0,9.0,14.0,10.0,-27.0,-19.0,-2.0,15.0,1650820104842857.0
22.0,17.0,7.0,-25.0,14.0,8.0,3.0,6.0,1650820104842857.0
5.0,7.0,-14.0,-8.0,-5.0,-6.0,-1.0,1.0,1650820104858101.0
-31.0,5.0,34.0,25.0,-3.0,-4.0,0.0,49.0,1650820104858101.0
-15.0,4.0,5.0,-22.0,-8.0,-20.0,-15.0,-77.0,1650820104858821.0
-7.0,-13.0,-19.0,0.0,-11.0,-8.0,0.0,36.0,1650820104858821.0
29.0,2.0,-6.0,-4.0,-9.0,11.0,1.0,38.0,1650820104879938.0
-8.0,34.0,54.0,-1.0,16.0,30.0,29.0,-17.0,1650820104879938.0
-13.0,-7.0,-8.0,11.0,33.0,16.0,5.0,6.0,1650820104881867.0
0.0,3.0,-9.0,8.0,-1.0,-12.0,0.0,-13.0,1650820104881867.0
9.0,-3.0,-4.0,-1.0,1.0,-6.0,-11.0,-15.0,1650820104893919.0
-20.0,10.0,-9.0,-26.0,-37.0,-25.0,-10.0,1.0,1650820104893919.0
1.0,-16.0,37.0,17.0,0.0,-2.0,-5.0,-16.0,1650820104902897.0
-15.0,3.0,-39.0,-13.0,7.0,11.0,-2.0,-4.0,1650820104902897.0
-23.0,4.0,38.0,10.0,0.0,14.0,8.0,-7.0,1650820104918005.0
26.0,-8.0,0.0,28.0,14.0,2.0,-2.0,-51.0,1650820104918005.0
-5.0,-5.0,7.0,-23.0,-11.0,-11.0,-11.0,3.0,1650820104919026.0
12.0,19.0,24.0,10.0,-24.0,-22.0,0.0,21.0,1650820104919026.0
-23.0,-30.0,8.0,-28.0,-18.0,-43.0,-9.0,-3.0,1650820104939977.0
50.0,-3.0,-22.0,9.0,9.0,27.0,-4.0,5.0,1650820104939977.0
-29.0,3.0,28.0,39.0,36.0,59.0,20.0,29.0,1650820104941906.0
-7.0,-10.0,-19.0,2.0,14.0,20.0,-4.0,-43.0,1650820104941906.0
13.0,-9.0,-1.0,-4.0,13.0,1.0,16.0,26.0,1650820104954021.0
-28.0,-22.0,-41.0,-20.0,-25.0,-38.0,-15.0,-7.0,1650820104954021.0
5.0,3.0,-6.0,-18.0,-19.0,-16.0,-9.0,-15.0,1650820104963009.0
2.0,-8.0,8.0,5.0,-6.0,5.0,1.0,24.0,1650820104963009.0
-9.0,21.0,32.0,22.0,-6.0,-13.0,-7.0,-23.0,1650820104977863.0
5.0,-29.0,-24.0,-12.0,26.0,15.0,0.0,-6.0,1650820104977863.0
-14.0,3.0,-14.0,0.0,-5.0,9.0,5.0,5.0,1650820104978890.0
21.0,-10.0,12.0,12.0,8.0,-2.0,7.0,49.0,1650820104978890.0
5.0,-22.0,-38.0,-1.0,-13.0,-12.0,-15.0,-71.0,1650820104999948.0
-6.0,-8.0,24.0,0.0,-9.0,2.0,4.0,30.0,1650820104999948.0
-7.0,1.0,-8.0,-11.0,13.0,9.0,2.0,-14.0,1650820105001876.0
34.0,-7.0,-6.0,-3.0,-4.0,-8.0,-1.0,-17.0,1650820105001876.0
-21.0,15.0,1.0,10.0,0.0,2.0,8.0,37.0,1650820105013912.0
-6.0,-13.0,18.0,0.0,3.0,16.0,4.0,9.0,1650820105013912.0
14.0,-2.0,-41.0,-10.0,-3.0,-7.0,6.0,10.0,1650820105022820.0
-8.0,41.0,73.0,5.0,-21.0,-25.0,-12.0,-26.0,1650820105022820.0
7.0,-28.0,-49.0,-8.0,-4.0,-1.0,-6.0,-45.0,1650820105037888.0
-5.0,5.0,-4.0,-1.0,14.0,5.0,2.0,10.0,1650820105037888.0
4.0,0.0,29.0,18.0,4.0,20.0,6.0,-3.0,1650820105038847.0
-11.0,8.0,-20.0,-3.0,21.0,28.0,20.0,6.0,1650820105038847.0
72.0,17.0,20.0,7.0,-1.0,1.0,-3.0,34.0,1650820105059829.0
-62.0,-44.0,13.0,5.0,-2.0,-20.0,5.0,-12.0,1650820105059829.0
36.0,16.0,1.0,-12.0,-40.0,-48.0,-19.0,7.0,1650820105061759.0
-18.0,-10.0,-21.0,-8.0,-6.0,9.0,-6.0,-9.0,1650820105061759.0
16.0,20.0,23.0,16.0,26.0,36.0,17.0,31.0,1650820105073876.0
5.0,34.0,2.0,-3.0,13.0,18.0,9.0,14.0,1650820105073876.0
2.0,-18.0,20.0,9.0,-3.0,-13.0,2.0,17.0,1650820105082587.0
-22.0,-27.0,-38.0,-35.0,-19.0,-26.0,-12.0,-15.0,1650820105082587.0
-10.0,17.0,42.0,38.0,6.0,12.0,-6.0,10.0,1650820105097785.0
23.0,24.0,-6.0,-4.0,-14.0,-12.0,0.0,6.0,1650820105097785.0
-22.0,-4.0,-25.0,-12.0,5.0,3.0,-3.0,1.0,1650820105099793.0
19.0,35.0,31.0,7.0,8.0,3.0,1.0,-18.0,1650820105099793.0
-29.0,-25.0,-47.0,-31.0,2.0,-3.0,2.0,1.0,1650820105119935.0
5.0,8.0,9.0,7.0,-2.0,8.0,-3.0,27.0,1650820105119935.0
20.0,23.0,6.0,18.0,-2.0,6.0,3.0,-46.0,1650820105121863.0
-16.0,-9.0,-18.0,-13.0,-9.0,-16.0,-6.0,31.0,1650820105121863.0
-28.0,5.0,3.0,-11.0,-4.0,-11.0,6.0,-38.0,1650820105133897.0
22.0,6.0,5.0,-2.0,-19.0,-26.0,-26.0,-65.0,1650820105133897.0
-27.0,-10.0,-3.0,-4.0,7.0,14.0,17.0,42.0,1650820105142536.0
18.0,13.0,-13.0,-11.0,4.0,6.0,-6.0,-6.0,1650820105142536.0
-2.0,-5.0,36.0,29.0,4.0,6.0,4.0,7.0,1650820105157689.0
8.0,-3.0,-18.0,-11.0,-4.0,-13.0,3.0,3.0,1650820105157689.0
20.0,9.0,-15.0,0.0,9.0,-2.0,-13.0,-12.0,1650820105159713.0
-16.0,-24.0,0.0,-1.0,-20.0,-13.0,1.0,-3.0,1650820105159713.0
0.0,-10.0,-28.0,4.0,1.0,-1.0,-2.0,21.0,1650820105187786.0
-8.0,3.0,26.0,-17.0,15.0,33.0,1.0,-2.0,1650820105187786.0
13.0,10.0,-4.0,-9.0,14.0,14.0,7.0,15.0,1650820105189714.0
-6.0,-9.0,23.0,46.0,18.0,4.0,3.0,-6.0,1650820105189714.0
1.0,6.0,-44.0,-37.0,-28.0,-35.0,-6.0,7.0,1650820105193704.0
2.0,5.0,58.0,15.0,-15.0,-19.0,-9.0,-12.0,1650820105193704.0
-12.0,-16.0,-45.0,-11.0,-4.0,-2.0,-1.0,-19.0,1650820105203343.0
6.0,1.0,2.0,-9.0,-4.0,-1.0,-24.0,-2.0,1650820105203343.0
1.0,3.0,0.0,-5.0,5.0,14.0,19.0,-19.0,1650820105218117.0
5.0,1.0,-6.0,5.0,3.0,-22.0,-32.0,18.0,1650820105218117.0
-2.0,-8.0,9.0,2.0,7.0,24.0,46.0,32.0,1650820105218821.0
-7.0,-11.0,-4.0,-3.0,-6.0,4.0,8.0,14.0,1650820105218821.0
22.0,6.0,11.0,-1.0,2.0,6.0,-9.0,5.0,1650820105240042.0
0.0,2.0,-12.0,-1.0,6.0,0.0,12.0,18.0,1650820105240042.0
13.0,3.0,11.0,0.0,-8.0,-14.0,-25.0,-12.0,1650820105241998.0
-3.0,1.0,-11.0,5.0,3.0,-1.0,1.0,-2.0,1650820105241998.0
-13.0,-2.0,8.0,-3.0,3.0,5.0,-3.0,5.0,1650820105263082.0
-2.0,-1.0,-22.0,-12.0,-2.0,1.0,0.0,0.0,1650820105263082.0
0.0,7.0,2.0,3.0,3.0,2.0,-8.0,2.0,1650820105264073.0
-7.0,-21.0,-8.0,-1.0,-7.0,-7.0,0.0,-19.0,1650820105264073.0
-6.0,-3.0,-7.0,-13.0,0.0,2.0,0.0,6.0,1650820105278234.0
4.0,3.0,-8.0,1.0,5.0,7.0,11.0,-3.0,1650820105278234.0
-5.0,0.0,13.0,6.0,-8.0,-12.0,-10.0,-7.0,1650820105279231.0
-1.0,1.0,6.0,-6.0,-4.0,-9.0,-5.0,-5.0,1650820105279231.0
-2.0,4.0,-3.0,-4.0,-11.0,-16.0,-16.0,-7.0,1650820105300495.0
0.0,-1.0,-3.0,4.0,7.0,48.0,55.0,20.0,1650820105300495.0
-2.0,-3.0,4.0,2.0,8.0,0.0,-3.0,3.0,1650820105301441.0
3.0,1.0,-6.0,-3.0,3.0,4.0,12.0,-5.0,1650820105301441.0
-4.0,-2.0,5.0,4.0,-2.0,-9.0,-17.0,0.0,1650820105322642.0
-10.0,0.0,-14.0,0.0,6.0,-8.0,-6.0,-5.0,1650820105322642.0
3.0,-3.0,8.0,-3.0,-9.0,-5.0,-2.0,4.0,1650820105324597.0
3.0,12.0,10.0,-1.0,-8.0,-6.0,-9.0,-9.0,1650820105324597.0
-9.0,-16.0,-19.0,-1.0,1.0,9.0,4.0,-2.0,1650820105338133.0
-2.0,2.0,3.0,-1.0,5.0,-2.0,-5.0,4.0,1650820105338133.0
2.0,-3.0,-4.0,3.0,10.0,15.0,2.0,-3.0,1650820105339051.0
0.0,-1.0,0.0,-5.0,-4.0,-8.0,-4.0,-1.0,1650820105339051.0
-1.0,2.0,3.0,3.0,-6.0,1.0,4.0,4.0,1650820105360141.0
1.0,-2.0,-3.0,-3.0,-7.0,-12.0,-3.0,-2.0,1650820105360141.0
-4.0,-2.0,3.0,0.0,-5.0,-13.0,-7.0,-3.0,1650820105362163.0
1.0,3.0,-6.0,-2.0,1.0,1.0,2.0,-1.0,1650820105362163.0
-3.0,2.0,5.0,4.0,2.0,10.0,5.0,-1.0,1650820105383165.0
0.0,-6.0,-4.0,-6.0,-1.0,-3.0,-5.0,-3.0,1650820105383165.0
-3.0,-4.0,-7.0,-1.0,-5.0,-8.0,-2.0,-3.0,1650820105384165.0
-2.0,5.0,8.0,-4.0,1.0,5.0,2.0,-1.0,1650820105384165.0
1.0,3.0,6.0,0.0,5.0,6.0,0.0,-1.0,1650820105397437.0
-1.0,0.0,-2.0,4.0,-4.0,-5.0,-3.0,0.0,1650820105397437.0
-1.0,3.0,8.0,1.0,0.0,0.0,0.0,-1.0,1650820105403532.0
2.0,-2.0,-6.0,-2.0,-5.0,-16.0,-3.0,-2.0,1650820105403532.0
-1.0,1.0,1.0,-3.0,2.0,18.0,0.0,1.0,1650820105420680.0
0.0,2.0,1.0,3.0,1.0,11.0,2.0,0.0,1650820105420680.0
-2.0,0.0,2.0,0.0,8.0,12.0,3.0,3.0,1650820105421633.0
2.0,-2.0,1.0,1.0,7.0,-2.0,-3.0,-3.0,1650820105421633.0
-1.0,6.0,4.0,0.0,-6.0,-20.0,-5.0,-2.0,1650820105443126.0
-1.0,-3.0,-2.0,0.0,-1.0,2.0,6.0,1.0,1650820105443126.0
-2.0,-3.0,-3.0,-5.0,-5.0,-4.0,-4.0,-3.0,1650820105443987.0
-1.0,0.0,-2.0,1.0,-3.0,-1.0,-2.0,1.0,1650820105443987.0
-2.0,1.0,-1.0,1.0,-2.0,2.0,-6.0,0.0,1650820105464883.0
-2.0,3.0,3.0,0.0,1.0,6.0,7.0,5.0,1650820105464883.0
2.0,0.0,-3.0,-2.0,-1.0,-11.0,-3.0,3.0,1650820105466907.0
-1.0,-7.0,-7.0,0.0,-3.0,7.0,3.0,-2.0,1650820105466907.0
0.0,1.0,-2.0,-3.0,-1.0,-5.0,1.0,1.0,1650820105479999.0
-1.0,3.0,-5.0,-1.0,-7.0,-14.0,-7.0,-1.0,1650820105479999.0
-2.0,-3.0,3.0,-1.0,-3.0,-4.0,-1.0,0.0,1650820105481954.0
-1.0,2.0,0.0,1.0,2.0,7.0,-3.0,1.0,1650820105481954.0
-3.0,1.0,0.0,1.0,1.0,-2.0,5.0,0.0,1650820105503125.0
4.0,1.0,-3.0,1.0,2.0,1.0,-3.0,0.0,1650820105503125.0
-1.0,-7.0,-4.0,0.0,-1.0,4.0,-10.0,0.0,1650820105503970.0
0.0,1.0,10.0,2.0,-1.0,-1.0,-5.0,-1.0,1650820105503970.0
2.0,-1.0,-6.0,-13.0,2.0,-4.0,15.0,1.0,1650820105516936.0
-1.0,0.0,1.0,2.0,3.0,10.0,3.0,-3.0,1650820105516936.0
1.0,0.0,2.0,4.0,-4.0,-1.0,2.0,-4.0,1650820105523962.0
0.0,1.0,-5.0,3.0,7.0,4.0,-4.0,-4.0,1650820105523962.0
-2.0,-2.0,5.0,6.0,5.0,0.0,-8.0,1.0,1650820105540222.0
1.0,-2.0,-2.0,0.0,-2.0,-11.0,1.0,0.0,1650820105540222.0
-2.0,-1.0,-2.0,-3.0,-6.0,-2.0,1.0,-3.0,1650820105542178.0
-2.0,-2.0,-5.0,-8.0,-6.0,6.0,9.0,3.0,1650820105542178.0
-3.0,5.0,7.0,5.0,2.0,-4.0,-3.0,-3.0,1650820105562917.0
5.0,-3.0,-6.0,-4.0,-1.0,-9.0,-11.0,-1.0,1650820105562917.0
-1.0,-6.0,-3.0,-4.0,-2.0,5.0,1.0,1.0,1650820105563875.0
-3.0,-5.0,-2.0,4.0,-3.0,-1.0,-10.0,-4.0,1650820105563875.0
-1.0,2.0,-1.0,0.0,2.0,11.0,24.0,5.0,1650820105576837.0
-4.0,-2.0,2.0,-3.0,-1.0,-5.0,-2.0,-2.0,1650820105576837.0
1.0,-1.0,-1.0,0.0,-5.0,-16.0,-5.0,-4.0,1650820105583861.0
-4.0,0.0,-5.0,-6.0,-7.0,2.0,-1.0,-2.0,1650820105583861.0
2.0,-1.0,-3.0,-3.0,0.0,11.0,-4.0,-1.0,1650820105599984.0
-1.0,2.0,0.0,5.0,18.0,14.0,0.0,1.0,1650820105599984.0
3.0,1.0,2.0,3.0,8.0,5.0,6.0,1.0,1650820105601921.0
2.0,0.0,2.0,-2.0,3.0,-6.0,-5.0,0.0,1650820105601921.0
2.0,-1.0,-3.0,-3.0,-6.0,-8.0,-3.0,8.0,1650820105623147.0
-2.0,-1.0,-3.0,-3.0,-13.0,-12.0,4.0,-7.0,1650820105623147.0
-4.0,0.0,5.0,-4.0,-4.0,-8.0,-10.0,-2.0,1650820105624146.0
1.0,-11.0,-8.0,-3.0,-9.0,-2.0,1.0,-4.0,1650820105624146.0
-1.0,0.0,0.0,0.0,-1.0,-7.0,-9.0,2.0,1650820105637393.0
-2.0,-1.0,3.0,2.0,6.0,2.0,1.0,2.0,1650820105637393.0
-2.0,1.0,0.0,0.0,5.0,7.0,1.0,-3.0,1650820105644379.0
4.0,3.0,-3.0,2.0,4.0,9.0,3.0,7.0,1650820105644379.0
2.0,6.0,4.0,-5.0,-1.0,10.0,7.0,-8.0,1650820105660512.0
-1.0,-9.0,1.0,-3.0,-1.0,-1.0,3.0,0.0,1650820105660512.0
-4.0,0.0,-1.0,-1.0,-6.0,-6.0,-3.0,-1.0,1650820105661525.0
-3.0,-5.0,-3.0,-1.0,-1.0,-12.0,1.0,2.0,1650820105661525.0
0.0,-5.0,-3.0,-1.0,1.0,-17.0,-9.0,-5.0,1650820105682619.0
0.0,6.0,-4.0,-4.0,-12.0,0.0,-7.0,-2.0,1650820105682619.0
0.0,1.0,2.0,2.0,1.0,13.0,7.0,1.0,1650820105684618.0
0.0,2.0,2.0,0.0,9.0,12.0,1.0,-1.0,1650820105684618.0
2.0,-4.0,2.0,7.0,13.0,8.0,2.0,5.0,1650820105697284.0
-1.0,-2.0,-2.0,-1.0,-4.0,-14.0,-8.0,-8.0,1650820105697284.0
-1.0,-4.0,-6.0,-3.0,-7.0,-16.0,-3.0,0.0,1650820105703665.0
-2.0,3.0,-1.0,-5.0,-10.0,-11.0,-1.0,-4.0,1650820105703665.0
-2.0,-2.0,-1.0,-1.0,-5.0,6.0,-7.0,1.0,1650820105719847.0
-1.0,0.0,4.0,7.0,13.0,14.0,4.0,3.0,1650820105719847.0
1.0,2.0,3.0,5.0,3.0,2.0,2.0,0.0,1650820105721776.0
-2.0,1.0,6.0,1.0,-9.0,-8.0,0.0,-3.0,1650820105721776.0
-3.0,-1.0,-14.0,-10.0,-1.0,-14.0,-7.0,-5.0,1650820105742888.0
-1.0,-8.0,2.0,0.0,-5.0,-2.0,-11.0,-1.0,1650820105742888.0
1.0,0.0,0.0,3.0,3.0,17.0,23.0,4.0,1650820105744815.0
1.0,3.0,-6.0,-1.0,6.0,-14.0,-1.0,-1.0,1650820105744815.0
1.0,1.0,5.0,4.0,-12.0,1.0,-1.0,2.0,1650820105756819.0
2.0,4.0,-4.0,-8.0,5.0,16.0,1.0,1.0,1650820105756819.0
-1.0,-2.0,-1.0,2.0,7.0,3.0,0.0,2.0,1650820105765871.0
-1.0,-2.0,0.0,0.0,-5.0,-11.0,0.0,5.0,1650820105765871.0
1.0,-3.0,-5.0,-2.0,-1.0,-10.0,-3.0,-4.0,1650820105779942.0
-2.0,2.0,-3.0,-4.0,-6.0,-2.0,3.0,0.0,1650820105779942.0
0.0,-2.0,4.0,1.0,1.0,0.0,-9.0,-3.0,1650820105781870.0
-1.0,1.0,-6.0,-4.0,5.0,9.0,12.0,5.0,1650820105781870.0
0.0,-2.0,4.0,5.0,-2.0,-1.0,-4.0,-4.0,1650820105802891.0
-1.0,-5.0,0.0,0.0,-7.0,-8.0,-6.0,-2.0,1650820105802891.0
-3.0,-1.0,-5.0,-4.0,-8.0,-9.0,-5.0,1.0,1650820105803889.0
-1.0,0.0,3.0,1.0,-1.0,-1.0,0.0,-5.0,1650820105803889.0
0.0,0.0,4.0,4.0,11.0,10.0,5.0,0.0,1650820105816836.0
0.0,1.0,0.0,0.0,3.0,5.0,4.0,1.0,1650820105816836.0
1.0,-8.0,0.0,0.0,8.0,2.0,0.0,-1.0,1650820105825882.0
2.0,1.0,2.0,1.0,2.0,6.0,-4.0,-2.0,1650820105825882.0
-7.0,0.0,-3.0,-4.0,-5.0,0.0,-1.0,1.0,1650820105848070.0
5.0,-8.0,2.0,2.0,-5.0,-10.0,2.0,-5.0,1650820105848070.0
-1.0,6.0,-5.0,-10.0,-16.0,-20.0,-8.0,-3.0,1650820105849000.0
-1.0,2.0,1.0,8.0,7.0,22.0,3.0,0.0,1650820105849000.0
1.0,0.0,1.0,2.0,11.0,11.0,4.0,4.0,1650820105863028.0
-3.0,2.0,-4.0,-4.0,1.0,-5.0,-1.0,1.0,1650820105863028.0
2.0,-1.0,3.0,2.0,6.0,-1.0,-6.0,-1.0,1650820105863971.0
-1.0,-7.0,-5.0,-4.0,-6.0,-19.0,9.0,-1.0,1650820105863971.0
-2.0,-3.0,-4.0,-3.0,-6.0,8.0,-2.0,-4.0,1650820105876109.0
0.0,2.0,-4.0,-5.0,-4.0,6.0,0.0,1.0,1650820105876109.0
-2.0,2.0,5.0,8.0,5.0,0.0,-5.0,-3.0,1650820105891768.0
0.0,0.0,4.0,4.0,1.0,-2.0,5.0,2.0,1650820105891768.0
0.0,-3.0,-4.0,-5.0,-6.0,-12.0,-3.0,-2.0,1650820105900729.0
-3.0,-3.0,-3.0,-2.0,-4.0,-8.0,-2.0,-1.0,1650820105900729.0
-2.0,-1.0,-2.0,-6.0,-6.0,-4.0,-2.0,-2.0,1650820105901726.0
1.0,2.0,-3.0,-7.0,-8.0,10.0,-4.0,-2.0,1650820105901726.0
-1.0,-4.0,3.0,9.0,5.0,5.0,2.0,-1.0,1650820105923209.0
0.0,2.0,1.0,6.0,15.0,6.0,1.0,0.0,1650820105923209.0
2.0,5.0,1.0,1.0,5.0,8.0,1.0,1.0,1650820105924209.0
0.0,-4.0,0.0,0.0,5.0,4.0,0.0,-2.0,1650820105924209.0
4.0,4.0,0.0,-3.0,-9.0,-1.0,1.0,0.0,1650820105936326.0
-11.0,0.0,-2.0,-3.0,-6.0,-11.0,-1.0,1.0,1650820105936326.0
3.0,-1.0,-5.0,-5.0,-5.0,-11.0,-3.0,-1.0,1650820105945305.0
-3.0,1.0,6.0,7.0,0.0,-1.0,-7.0,-4.0,1650820105945305.0
0.0,0.0,-1.0,-6.0,-5.0,-14.0,-4.0,-4.0,1650820105960497.0
-1.0,-1.0,-3.0,-2.0,-9.0,-2.0,-2.0,0.0,1650820105960497.0
-2.0,0.0,-2.0,0.0,-3.0,0.0,-2.0,-1.0,1650820105961428.0
-1.0,-1.0,3.0,6.0,18.0,30.0,15.0,5.0,1650820105961428.0
-1.0,0.0,4.0,4.0,14.0,12.0,3.0,1.0,1650820105983161.0
5.0,-2.0,-1.0,-1.0,1.0,-8.0,-3.0,-1.0,1650820105983161.0
-2.0,1.0,-3.0,-6.0,-12.0,-8.0,-7.0,-4.0,1650820105984164.0
-1.0,-1.0,-3.0,-5.0,-13.0,-17.0,-7.0,-2.0,1650820105984164.0
-3.0,-2.0,-2.0,1.0,-5.0,-7.0,6.0,2.0,1650820105996874.0
0.0,3.0,-1.0,-8.0,-8.0,-17.0,-4.0,-2.0,1650820105996874.0
-2.0,-4.0,7.0,10.0,6.0,23.0,5.0,0.0,1650820106005878.0
2.0,1.0,-3.0,0.0,11.0,11.0,-3.0,-2.0,1650820106005878.0
1.0,0.0,3.0,-3.0,1.0,6.0,0.0,0.0,1650820106019935.0
-3.0,-11.0,-9.0,2.0,-1.0,5.0,2.0,1.0,1650820106019935.0
-2.0,1.0,-1.0,0.0,-10.0,-26.0,-1.0,1.0,1650820106021854.0
-2.0,-2.0,-10.0,-8.0,-7.0,-1.0,-3.0,1.0,1650820106021854.0
0.0,0.0,8.0,10.0,11.0,8.0,-1.0,1.0,1650820106042668.0
0.0,2.0,0.0,-3.0,3.0,3.0,1.0,-1.0,1650820106042668.0
0.0,0.0,4.0,1.0,0.0,-4.0,-6.0,-4.0,1650820106044597.0
-3.0,-1.0,-3.0,-2.0,-7.0,-8.0,-3.0,-2.0,1650820106044597.0
-2.0,-4.0,-7.0,-5.0,-6.0,-3.0,4.0,-2.0,1650820106056684.0
1.0,4.0,0.0,-3.0,-2.0,-3.0,-4.0,0.0,1650820106056684.0
-3.0,-3.0,0.0,1.0,-4.0,0.0,5.0,0.0,1650820106065796.0
1.0,-1.0,1.0,2.0,0.0,1.0,-6.0,-2.0,1650820106065796.0
-9.0,-3.0,-1.0,1.0,11.0,16.0,1.0,1.0,1650820106079940.0
5.0,0.0,1.0,2.0,4.0,3.0,5.0,2.0,1650820106079940.0
-1.0,0.0,-3.0,-3.0,-9.0,-11.0,-1.0,-2.0,1650820106081867.0
0.0,-3.0,-5.0,-4.0,0.0,-8.0,-6.0,-2.0,1650820106081867.0
-1.0,-1.0,-7.0,-7.0,-7.0,8.0,-1.0,-2.0,1650820106102918.0
0.0,6.0,14.0,10.0,3.0,9.0,3.0,4.0,1650820106102918.0
-3.0,-4.0,3.0,4.0,0.0,-4.0,9.0,2.0,1650820106103875.0
1.0,1.0,2.0,-2.0,-2.0,-6.0,5.0,1.0,1650820106103875.0
1.0,0.0,-9.0,-4.0,-10.0,-19.0,-3.0,-2.0,1650820106115929.0
-3.0,-7.0,1.0,-1.0,12.0,16.0,-2.0,-4.0,1650820106115929.0
3.0,-3.0,-2.0,0.0,2.0,11.0,0.0,2.0,1650820106124905.0
-3.0,0.0,0.0,3.0,5.0,-1.0,0.0,-1.0,1650820106124905.0
1.0,-1.0,2.0,0.0,-1.0,0.0,0.0,1.0,1650820106140198.0
-2.0,2.0,-4.0,-5.0,-14.0,-25.0,-13.0,-3.0,1650820106140198.0
-1.0,1.0,-2.0,0.0,0.0,6.0,6.0,0.0,1650820106142155.0
0.0,-3.0,2.0,0.0,-2.0,5.0,-3.0,0.0,1650820106142155.0
2.0,6.0,0.0,2.0,14.0,2.0,0.0,-1.0,1650820106162140.0
0.0,0.0,2.0,3.0,-1.0,4.0,1.0,-2.0,1650820106162140.0
1.0,-1.0,-6.0,-6.0,2.0,4.0,3.0,0.0,1650820106170064.0
-2.0,1.0,-7.0,-8.0,-12.0,-11.0,-4.0,-2.0,1650820106170064.0
-1.0,0.0,9.0,7.0,-8.0,-8.0,-3.0,-7.0,1650820106185533.0
3.0,0.0,-6.0,-3.0,0.0,12.0,4.0,2.0,1650820106185533.0
-8.0,-2.0,3.0,4.0,8.0,9.0,-1.0,1.0,1650820106186547.0
-2.0,2.0,4.0,2.0,2.0,0.0,0.0,-1.0,1650820106186547.0
2.0,-10.0,-6.0,1.0,-2.0,-14.0,-2.0,0.0,1650820106200633.0
0.0,1.0,0.0,-3.0,-4.0,-7.0,-3.0,1.0,1650820106200633.0
1.0,1.0,-9.0,-8.0,-4.0,6.0,1.0,-1.0,1650820106201630.0
-3.0,-2.0,3.0,2.0,-5.0,4.0,8.0,1.0,1650820106201630.0
0.0,4.0,2.0,-1.0,7.0,15.0,1.0,1.0,1650820106223001.0
-1.0,2.0,3.0,7.0,2.0,0.0,0.0,0.0,1650820106223001.0
0.0,-3.0,-5.0,-6.0,4.0,-7.0,-3.0,1.0,1650820106224001.0
-2.0,0.0,4.0,2.0,4.0,-10.0,-5.0,-1.0,1650820106224001.0
-2.0,-4.0,-9.0,-7.0,-10.0,-6.0,-1.0,-1.0,1650820106246157.0
-2.0,0.0,-1.0,-1.0,-10.0,-6.0,-6.0,-4.0,1650820106246157.0
0.0,-5.0,-6.0,-1.0,1.0,-3.0,10.0,5.0,1650820106247169.0
1.0,1.0,5.0,2.0,-1.0,-1.0,-2.0,-3.0,1650820106247169.0
1.0,3.0,-4.0,-4.0,-9.0,-16.0,-2.0,2.0,1650820106260187.0
-4.0,-2.0,-2.0,-4.0,0.0,0.0,-2.0,1.0,1650820106260187.0
0.0,0.0,5.0,2.0,2.0,12.0,-6.0,-3.0,1650820106262146.0
0.0,-2.0,-5.0,0.0,4.0,9.0,6.0,1.0,1650820106262146.0
1.0,2.0,5.0,1.0,7.0,-1.0,3.0,2.0,1650820106282365.0
0.0,1.0,-2.0,-1.0,0.0,-12.0,-1.0,-1.0,1650820106282365.0
1.0,1.0,4.0,1.0,-5.0,0.0,-12.0,-3.0,1650820106284293.0
0.0,0.0,-7.0,-5.0,-3.0,7.0,9.0,1.0,1650820106284293.0
-2.0,-1.0,4.0,2.0,-6.0,-7.0,-6.0,-2.0,1650820106304868.0
-1.0,-1.0,3.0,1.0,-2.0,3.0,2.0,1.0,1650820106304868.0
0.0,1.0,-1.0,5.0,2.0,-2.0,0.0,-1.0,1650820106306892.0
0.0,2.0,8.0,11.0,10.0,17.0,0.0,0.0,1650820106306892.0
-1.0,2.0,6.0,-4.0,-2.0,-2.0,-6.0,-1.0,1650820106319841.0
0.0,-5.0,-25.0,-15.0,-4.0,1.0,11.0,1.0,1650820106319841.0
-6.0,-4.0,-4.0,-6.0,-13.0,-16.0,-4.0,-3.0,1650820106326843.0
-1.0,-3.0,-3.0,-4.0,1.0,-18.0,-6.0,0.0,1650820106326843.0
-1.0,-2.0,0.0,1.0,2.0,21.0,-3.0,0.0,1650820106343109.0
2.0,5.0,13.0,3.0,6.0,10.0,5.0,2.0,1650820106343109.0
3.0,0.0,-6.0,-1.0,0.0,-5.0,1.0,0.0,1650820106344109.0
-1.0,3.0,6.0,3.0,4.0,-7.0,-3.0,1.0,1650820106344109.0
-1.0,-1.0,-4.0,0.0,-3.0,0.0,-1.0,-1.0,1650820106372901.0
-1.0,2.0,2.0,-5.0,-3.0,-2.0,1.0,1.0,1650820106372901.0
-1.0,1.0,-5.0,-1.0,-7.0,-20.0,-4.0,0.0,1650820106373892.0
2.0,-3.0,-1.0,0.0,-13.0,8.0,-3.0,-2.0,1650820106373892.0
6.0,0.0,-4.0,-1.0,2.0,7.0,1.0,-1.0,1650820106379875.0
-1.0,-1.0,4.0,13.0,24.0,19.0,2.0,2.0,1650820106379875.0
-1.0,3.0,10.0,4.0,12.0,4.0,-2.0,2.0,1650820106386807.0
5.0,-1.0,-9.0,-11.0,-6.0,-9.0,2.0,4.0,1650820106386807.0
-2.0,-4.0,-17.0,-10.0,-20.0,-14.0,-4.0,-1.0,1650820106402976.0
-2.0,-4.0,-1.0,-7.0,-22.0,-27.0,-8.0,-3.0,1650820106402976.0
1.0,1.0,1.0,2.0,6.0,17.0,-1.0,-2.0,1650820106403998.0
-3.0,-1.0,10.0,13.0,17.0,14.0,2.0,-1.0,1650820106403998.0
3.0,0.0,-3.0,-2.0,0.0,7.0,11.0,2.0,1650820106424867.0
-10.0,6.0,4.0,2.0,-2.0,-6.0,-14.0,-5.0,1650820106424867.0
-2.0,-4.0,0.0,-2.0,-1.0,-3.0,10.0,5.0,1650820106426864.0
0.0,-1.0,1.0,-6.0,-14.0,-9.0,-7.0,-2.0,1650820106426864.0
-3.0,-3.0,-1.0,1.0,5.0,-8.0,1.0,-2.0,1650820106439924.0
3.0,1.0,4.0,6.0,1.0,0.0,-5.0,-3.0,1650820106439924.0
1.0,-2.0,-3.0,0.0,2.0,12.0,0.0,-1.0,1650820106446876.0
0.0,-2.0,-5.0,-3.0,2.0,8.0,3.0,1.0,1650820106446876.0
-2.0,0.0,2.0,-2.0,-2.0,-7.0,0.0,0.0,1650820106463125.0
0.0,-4.0,-1.0,0.0,-6.0,-2.0,3.0,4.0,1650820106463125.0
2.0,2.0,-2.0,-7.0,7.0,8.0,3.0,1.0,1650820106464025.0
-1.0,4.0,5.0,8.0,6.0,-5.0,1.0,0.0,1650820106464025.0
-1.0,-5.0,2.0,0.0,-9.0,-3.0,-5.0,-3.0,1650820106485041.0
1.0,-7.0,-4.0,-4.0,-2.0,6.0,0.0,-1.0,1650820106485041.0
1.0,-2.0,-3.0,-2.0,-2.0,5.0,3.0,1.0,1650820106486966.0
-9.0,2.0,6.0,2.0,-1.0,-7.0,-4.0,-1.0,1650820106486966.0
9.0,-5.0,-11.0,-6.0,0.0,-7.0,0.0,-2.0,1650820106500105.0
0.0,2.0,11.0,10.0,6.0,7.0,12.0,3.0,1650820106500105.0
-1.0,1.0,-4.0,1.0,-4.0,-4.0,-4.0,-1.0,1650820106506091.0
-1.0,-7.0,-9.0,-11.0,-9.0,-10.0,-7.0,-4.0,1650820106506091.0
-10.0,4.0,10.0,5.0,-3.0,0.0,0.0,1.0,1650820106522931.0
0.0,-7.0,-5.0,0.0,-9.0,-6.0,-4.0,-3.0,1650820106522931.0
1.0,0.0,0.0,-9.0,-3.0,2.0,-3.0,-3.0,1650820106524861.0
0.0,3.0,5.0,8.0,10.0,10.0,2.0,-3.0,1650820106524861.0
0.0,2.0,2.0,7.0,9.0,8.0,-1.0,6.0,1650820106544883.0
1.0,0.0,-6.0,-4.0,9.0,8.0,6.0,3.0,1650820106544883.0
0.0,0.0,4.0,-1.0,-10.0,-16.0,-4.0,-3.0,1650820106546880.0
1.0,-5.0,-12.0,-11.0,-23.0,-31.0,-9.0,-2.0,1650820106546880.0
0.0,1.0,2.0,1.0,7.0,13.0,-5.0,-3.0,1650820106559911.0
-1.0,1.0,0.0,3.0,13.0,24.0,3.0,2.0,1650820106559911.0
0.0,2.0,0.0,1.0,14.0,26.0,11.0,2.0,1650820106583800.0
0.0,1.0,5.0,8.0,-4.0,-13.0,-2.0,-1.0,1650820106583800.0
-3.0,-2.0,-3.0,-13.0,-11.0,-13.0,3.0,-1.0,1650820106584302.0
-7.0,-5.0,-3.0,-1.0,-13.0,-24.0,-9.0,-4.0,1650820106584302.0
5.0,-4.0,-8.0,-8.0,-8.0,-8.0,-7.0,-1.0,1650820106585302.0
0.0,5.0,3.0,0.0,4.0,14.0,-2.0,-2.0,1650820106585302.0
-2.0,-7.0,-1.0,-1.0,4.0,3.0,9.0,3.0,1650820106604859.0
1.0,3.0,-2.0,-2.0,-2.0,3.0,-1.0,-1.0,1650820106604859.0
-2.0,1.0,4.0,2.0,1.0,-11.0,-4.0,-3.0,1650820106606856.0
0.0,-8.0,-7.0,-3.0,2.0,1.0,0.0,0.0,1650820106606856.0
-1.0,4.0,0.0,-4.0,-3.0,4.0,-2.0,-2.0,1650820106618861.0
3.0,1.0,10.0,3.0,9.0,7.0,3.0,5.0,1650820106618861.0
-3.0,-4.0,-3.0,4.0,-5.0,-2.0,-1.0,-2.0,1650820106627562.0
1.0,2.0,-3.0,-5.0,-5.0,-5.0,1.0,2.0,1650820106627562.0
-2.0,0.0,-1.0,5.0,2.0,-15.0,-8.0,-4.0,1650820106642284.0
1.0,1.0,-6.0,-11.0,-12.0,-1.0,3.0,-2.0,1650820106642284.0
-1.0,5.0,6.0,1.0,2.0,10.0,-2.0,-1.0,1650820106650265.0
-3.0,-6.0,0.0,7.0,6.0,16.0,8.0,2.0,1650820106650265.0
2.0,2.0,-7.0,-8.0,1.0,1.0,3.0,2.0,1650820106664909.0
1.0,1.0,2.0,2.0,-4.0,-16.0,-6.0,-3.0,1650820106664909.0
-1.0,-3.0,-1.0,3.0,-4.0,-8.0,-3.0,0.0,1650820106666839.0
1.0,1.0,-2.0,-2.0,-1.0,4.0,-2.0,-2.0,1650820106666839.0
-3.0,-9.0,2.0,0.0,-3.0,-7.0,-6.0,-3.0,1650820106679905.0
0.0,-2.0,-12.0,-4.0,0.0,0.0,-2.0,0.0,1650820106679905.0
-3.0,-2.0,3.0,4.0,0.0,-3.0,0.0,1.0,1650820106685914.0
1.0,0.0,0.0,-4.0,11.0,13.0,1.0,0.0,1650820106685914.0
-1.0,5.0,9.0,8.0,-4.0,-4.0,-2.0,-2.0,1650820106703094.0
7.0,0.0,0.0,-3.0,0.0,-2.0,2.0,-1.0,1650820106703094.0
-1.0,-5.0,-7.0,-4.0,0.0,5.0,1.0,2.0,1650820106704095.0
-3.0,-2.0,5.0,6.0,1.0,-6.0,0.0,-2.0,1650820106704095.0
-1.0,1.0,-2.0,-5.0,-7.0,0.0,0.0,-1.0,1650820106725871.0
-3.0,-2.0,-3.0,-1.0,0.0,7.0,-1.0,-2.0,1650820106725871.0
3.0,5.0,7.0,1.0,4.0,-6.0,-3.0,-1.0,1650820106726895.0
-9.0,-12.0,-15.0,-7.0,-2.0,11.0,4.0,1.0,1650820106726895.0
-1.0,0.0,2.0,3.0,1.0,0.0,1.0,2.0,1650820106738862.0
0.0,3.0,7.0,8.0,-6.0,-10.0,-2.0,0.0,1650820106738862.0
-2.0,-1.0,-1.0,-8.0,-8.0,-2.0,2.0,1.0,1650820106747841.0
5.0,-2.0,-3.0,2.0,-2.0,-13.0,-5.0,-3.0,1650820106747841.0
0.0,1.0,2.0,2.0,-4.0,-3.0,-3.0,-1.0,1650820106762919.0
-4.0,1.0,-5.0,-4.0,2.0,15.0,5.0,2.0,1650820106762919.0
0.0,0.0,3.0,6.0,16.0,12.0,3.0,0.0,1650820106763850.0
1.0,3.0,-2.0,-5.0,-2.0,-3.0,-1.0,1.0,1650820106763850.0
-1.0,-2.0,-3.0,-2.0,-7.0,-10.0,-2.0,0.0,1650820106784913.0
-1.0,0.0,3.0,1.0,-3.0,-19.0,-7.0,-1.0,1650820106784913.0
-3.0,-2.0,0.0,1.0,2.0,6.0,0.0,-1.0,1650820106786910.0
2.0,0.0,1.0,-1.0,-2.0,13.0,-1.0,0.0,1650820106786910.0
1.0,0.0,-8.0,-1.0,13.0,13.0,5.0,1.0,1650820106798874.0
-1.0,0.0,5.0,5.0,0.0,-13.0,-4.0,2.0,1650820106798874.0
0.0,-1.0,-6.0,-13.0,-2.0,8.0,4.0,1.0,1650820106807560.0
-1.0,1.0,8.0,7.0,-5.0,-13.0,-3.0,0.0,1650820106807560.0
-3.0,0.0,-4.0,0.0,-9.0,-4.0,-3.0,-3.0,1650820106822784.0
1.0,-4.0,3.0,0.0,3.0,0.0,2.0,-2.0,1650820106822784.0
1.0,1.0,-1.0,0.0,-7.0,-10.0,-5.0,0.0,1650820106824737.0
-5.0,-2.0,-3.0,-1.0,1.0,7.0,1.0,-6.0,1650820106824737.0
1.0,-1.0,-6.0,0.0,7.0,5.0,5.0,1.0,1650820106853210.0
-1.0,-6.0,1.0,-1.0,5.0,0.0,-1.0,0.0,1650820106853210.0
3.0,5.0,-3.0,-5.0,-2.0,1.0,-1.0,-3.0,1650820106854224.0
-4.0,1.0,13.0,4.0,-3.0,3.0,-1.0,1.0,1650820106854224.0
-1.0,1.0,4.0,-2.0,-10.0,-24.0,-7.0,-2.0,1650820106859217.0
-1.0,-3.0,-9.0,-7.0,-12.0,0.0,-5.0,-4.0,1650820106859217.0
0.0,-1.0,4.0,10.0,1.0,7.0,0.0,0.0,1650820106867561.0
-2.0,-2.0,-13.0,-4.0,31.0,22.0,8.0,4.0,1650820106867561.0
9.0,6.0,12.0,12.0,9.0,10.0,3.0,-1.0,1650820106883211.0
0.0,2.0,1.0,1.0,-5.0,-8.0,1.0,0.0,1650820106883211.0
-1.0,0.0,2.0,1.0,-17.0,-26.0,-5.0,-1.0,1650820106884210.0
-2.0,-9.0,-9.0,-6.0,-19.0,-12.0,-5.0,-3.0,1650820106884210.0
-1.0,0.0,0.0,-6.0,6.0,5.0,0.0,-1.0,1650820106905531.0
-2.0,-1.0,4.0,4.0,11.0,28.0,3.0,1.0,1650820106905531.0
-5.0,1.0,7.0,7.0,0.0,-1.0,2.0,-2.0,1650820106906531.0
8.0,1.0,-9.0,-20.0,-8.0,-14.0,0.0,1.0,1650820106906531.0
-3.0,-2.0,-2.0,6.0,-5.0,-9.0,-2.0,2.0,1650820106918686.0
-3.0,-12.0,-8.0,8.0,0.0,-2.0,0.0,-1.0,1650820106918686.0
-3.0,-2.0,-10.0,-7.0,5.0,-1.0,-2.0,-4.0,1650820106927596.0
3.0,7.0,13.0,1.0,-13.0,-18.0,-6.0,9.0,1650820106927596.0
0.0,4.0,6.0,2.0,3.0,23.0,2.0,-1.0,1650820106942798.0
0.0,5.0,0.0,-6.0,7.0,12.0,4.0,1.0,1650820106942798.0
6.0,2.0,5.0,6.0,-3.0,-12.0,-1.0,1.0,1650820106944754.0
-9.0,-3.0,-10.0,0.0,-2.0,-11.0,-2.0,0.0,1650820106944754.0
1.0,5.0,8.0,1.0,0.0,6.0,2.0,-1.0,1650820106964958.0
1.0,2.0,14.0,11.0,11.0,10.0,4.0,3.0,1650820106964958.0
0.0,-11.0,-14.0,-4.0,5.0,6.0,3.0,1.0,1650820106966938.0
2.0,13.0,17.0,2.0,2.0,1.0,0.0,-2.0,1650820106966938.0
-1.0,-2.0,-14.0,-12.0,-1.0,-1.0,-1.0,2.0,1650820106978858.0
1.0,7.0,-12.0,0.0,-11.0,-11.0,-8.0,-7.0,1650820106978858.0
-6.0,1.0,2.0,10.0,-6.0,-13.0,-4.0,-3.0,1650820106987851.0
6.0,0.0,-17.0,-11.0,-3.0,6.0,2.0,6.0,1650820106987851.0
-14.0,-32.0,-11.0,5.0,4.0,4.0,-3.0,-24.0,1650820107003125.0
8.0,30.0,9.0,-11.0,-1.0,-1.0,6.0,22.0,1650820107003125.0
-1.0,6.0,4.0,-12.0,-4.0,-5.0,-5.0,-31.0,1650820107003765.0
-3.0,-13.0,-6.0,4.0,-6.0,-13.0,-5.0,5.0,1650820107003765.0
7.0,14.0,-9.0,3.0,2.0,2.0,0.0,-2.0,1650820107024858.0
-1.0,-6.0,-3.0,-3.0,-3.0,-6.0,-4.0,-1.0,1650820107024858.0
10.0,1.0,-16.0,-9.0,2.0,5.0,11.0,49.0,1650820107026854.0
-8.0,-8.0,19.0,9.0,12.0,19.0,1.0,-11.0,1650820107026854.0
6.0,-2.0,-9.0,-11.0,-8.0,-13.0,-11.0,-36.0,1650820107038907.0
-10.0,-11.0,19.0,8.0,-10.0,-4.0,2.0,21.0,1650820107038907.0
3.0,9.0,10.0,3.0,2.0,16.0,2.0,3.0,1650820107047859.0
30.0,20.0,10.0,-3.0,-5.0,-10.0,8.0,43.0,1650820107047859.0
-11.0,-18.0,-43.0,-5.0,10.0,18.0,-1.0,-56.0,1650820107063190.0
4.0,0.0,6.0,11.0,16.0,1.0,0.0,-1.0,1650820107063190.0
-19.0,-14.0,27.0,3.0,-7.0,-18.0,-10.0,-12.0,1650820107064189.0
4.0,1.0,-23.0,-8.0,-6.0,3.0,-5.0,13.0,1650820107064189.0
-6.0,17.0,43.0,28.0,-9.0,-20.0,-4.0,5.0,1650820107085561.0
13.0,13.0,-51.0,-39.0,-13.0,7.0,4.0,-4.0,1650820107085561.0
-5.0,-21.0,-27.0,-2.0,9.0,14.0,3.0,-12.0,1650820107086568.0
-11.0,-1.0,-14.0,-9.0,0.0,4.0,2.0,-4.0,1650820107086568.0
10.0,37.0,81.0,19.0,-5.0,-8.0,7.0,37.0,1650820107098678.0
-29.0,-70.0,-98.0,-46.0,-26.0,-28.0,-18.0,-25.0,1650820107098678.0
7.0,26.0,49.0,40.0,7.0,-4.0,6.0,3.0,1650820107107563.0
6.0,-9.0,-28.0,-25.0,-1.0,15.0,-5.0,-2.0,1650820107107563.0
-8.0,1.0,17.0,20.0,11.0,23.0,6.0,8.0,1650820107122900.0
0.0,3.0,-13.0,-32.0,-5.0,-4.0,4.0,-38.0,1650820107122900.0
4.0,13.0,36.0,38.0,-1.0,-8.0,-6.0,8.0,1650820107123927.0
-8.0,-13.0,15.0,8.0,7.0,-9.0,3.0,-9.0,1650820107123927.0
-3.0,-20.0,26.0,11.0,12.0,15.0,-2.0,-18.0,1650820107144884.0
-18.0,-6.0,42.0,30.0,27.0,24.0,9.0,50.0,1650820107144884.0
5.0,-22.0,-7.0,-16.0,-6.0,-1.0,20.0,18.0,1650820107146881.0
23.0,-12.0,-10.0,11.0,-14.0,-52.0,-10.0,1.0,1650820107146881.0
-12.0,14.0,-1.0,-36.0,-18.0,26.0,6.0,11.0,1650820107168150.0
33.0,15.0,43.0,24.0,8.0,15.0,-4.0,21.0,1650820107168150.0
-8.0,-31.0,-39.0,-22.0,9.0,9.0,-8.0,-43.0,1650820107168819.0
16.0,30.0,35.0,17.0,0.0,-15.0,-4.0,4.0,1650820107168819.0
-15.0,-43.0,-35.0,-8.0,-12.0,-38.0,-14.0,-34.0,1650820107183160.0
-18.0,0.0,1.0,-14.0,-9.0,-2.0,2.0,28.0,1650820107183160.0
-3.0,25.0,9.0,7.0,0.0,22.0,-3.0,-64.0,1650820107184160.0
-15.0,-9.0,16.0,2.0,1.0,7.0,8.0,2.0,1650820107184160.0
3.0,-17.0,-58.0,-19.0,-13.0,-24.0,-6.0,16.0,1650820107206048.0
1.0,32.0,38.0,25.0,22.0,18.0,0.0,-21.0,1650820107206048.0
-12.0,-57.0,-24.0,-19.0,2.0,7.0,4.0,20.0,1650820107206996.0
-3.0,-24.0,-69.0,-15.0,-2.0,9.0,0.0,-4.0,1650820107206996.0
-17.0,21.0,22.0,4.0,-4.0,-10.0,-5.0,6.0,1650820107227952.0
16.0,-7.0,16.0,11.0,-15.0,-11.0,6.0,-4.0,1650820107227952.0
9.0,3.0,-59.0,-15.0,-8.0,-7.0,4.0,40.0,1650820107228909.0
-19.0,9.0,74.0,7.0,2.0,6.0,-1.0,-15.0,1650820107228909.0
25.0,2.0,5.0,-14.0,1.0,-11.0,-2.0,10.0,1650820107241912.0
3.0,-16.0,-45.0,5.0,-1.0,-4.0,6.0,42.0,1650820107241912.0
61.0,61.0,45.0,3.0,-1.0,-7.0,2.0,-20.0,1650820107248859.0
-56.0,-44.0,-77.0,-13.0,8.0,18.0,-7.0,-45.0,1650820107248859.0
-3.0,24.0,48.0,17.0,8.0,17.0,-1.0,-12.0,1650820107265567.0
-10.0,6.0,-20.0,-9.0,-6.0,-16.0,-12.0,-26.0,1650820107265567.0
-3.0,26.0,-16.0,-15.0,-15.0,-8.0,-5.0,38.0,1650820107266571.0
26.0,-14.0,-19.0,-13.0,8.0,1.0,0.0,-18.0,1650820107266571.0
11.0,18.0,23.0,14.0,15.0,23.0,8.0,29.0,1650820107288084.0
-2.0,-25.0,-15.0,-3.0,11.0,6.0,-3.0,-36.0,1650820107288084.0
-27.0,-20.0,3.0,14.0,-25.0,-29.0,-8.0,24.0,1650820107289618.0
3.0,43.0,51.0,21.0,-18.0,-24.0,-8.0,-20.0,1650820107289618.0
-12.0,-33.0,-76.0,-31.0,31.0,32.0,3.0,12.0,1650820107301770.0
16.0,11.0,22.0,30.0,-2.0,-10.0,3.0,-2.0,1650820107301770.0
0.0,14.0,-5.0,-42.0,5.0,10.0,0.0,-8.0,1650820107308860.0
-14.0,3.0,19.0,35.0,-19.0,-1.0,-5.0,22.0,1650820107308860.0
9.0,-22.0,10.0,-7.0,5.0,8.0,3.0,10.0,1650820107324911.0
-5.0,-4.0,9.0,7.0,2.0,6.0,8.0,-22.0,1650820107324911.0
-17.0,-8.0,46.0,-9.0,5.0,-15.0,-11.0,-10.0,1650820107326841.0
-3.0,-74.0,-112.0,-27.0,-3.0,1.0,-5.0,-2.0,1650820107326841.0
3.0,28.0,47.0,8.0,-10.0,-12.0,1.0,19.0,1650820107347950.0
13.0,12.0,37.0,-1.0,3.0,-6.0,-4.0,-32.0,1650820107347950.0
-37.0,-3.0,-36.0,-12.0,-16.0,-11.0,-20.0,-9.0,1650820107348910.0
36.0,38.0,39.0,24.0,5.0,20.0,34.0,52.0,1650820107348910.0
-9.0,1.0,-14.0,-2.0,-6.0,-17.0,-13.0,-40.0,1650820107361914.0
-5.0,-58.0,-69.0,-24.0,-5.0,2.0,-4.0,-7.0,1650820107361914.0
9.0,19.0,28.0,24.0,18.0,6.0,0.0,-7.0,1650820107368863.0
-3.0,6.0,-20.0,-17.0,5.0,15.0,-2.0,-8.0,1650820107368863.0
1.0,-6.0,-19.0,3.0,9.0,28.0,13.0,13.0,1650820107385560.0
-7.0,33.0,58.0,30.0,-4.0,-6.0,0.0,11.0,1650820107385560.0
0.0,-7.0,6.0,12.0,3.0,-4.0,-1.0,-14.0,1650820107386566.0
-3.0,-2.0,17.0,5.0,-8.0,-24.0,-6.0,-5.0,1650820107386566.0
-2.0,-26.0,-41.0,-15.0,-25.0,-24.0,-1.0,16.0,1650820107407571.0
-4.0,15.0,10.0,-16.0,-1.0,3.0,-7.0,-9.0,1650820107407571.0
-1.0,12.0,-23.0,-5.0,1.0,9.0,-1.0,-8.0,1650820107409499.0
13.0,18.0,59.0,16.0,13.0,10.0,8.0,16.0,1650820107409499.0
2.0,2.0,-29.0,-10.0,-2.0,-9.0,-1.0,0.0,1650820107422530.0
3.0,30.0,28.0,10.0,-11.0,-7.0,-1.0,3.0,1650820107422530.0
4.0,-36.0,-38.0,-4.0,13.0,5.0,10.0,32.0,1650820107428680.0
-35.0,21.0,18.0,-12.0,-7.0,-10.0,-27.0,-79.0,1650820107428680.0
25.0,-18.0,11.0,7.0,-6.0,19.0,17.0,4.0,1650820107444957.0
-2.0,2.0,-19.0,0.0,24.0,14.0,7.0,24.0,1650820107444957.0
0.0,-8.0,23.0,3.0,0.0,-1.0,5.0,-6.0,1650820107446886.0
-12.0,-11.0,-30.0,-19.0,-13.0,-25.0,-22.0,0.0,1650820107446886.0
3.0,15.0,26.0,24.0,1.0,-6.0,-1.0,13.0,1650820107468047.0
18.0,12.0,16.0,-21.0,-15.0,-4.0,7.0,10.0,1650820107468047.0
6.0,-5.0,-9.0,17.0,2.0,-8.0,-1.0,0.0,1650820107468978.0
-4.0,-11.0,25.0,-11.0,-5.0,13.0,5.0,9.0,1650820107468978.0
-7.0,-22.0,-21.0,17.0,10.0,2.0,2.0,-6.0,1650820107482009.0
-3.0,-7.0,-1.0,-14.0,-3.0,-13.0,-8.0,-3.0,1650820107482009.0
-1.0,-12.0,-15.0,2.0,7.0,7.0,5.0,6.0,1650820107488990.0
-3.0,6.0,-16.0,3.0,-3.0,2.0,7.0,5.0,1650820107488990.0
17.0,27.0,21.0,5.0,14.0,7.0,3.0,13.0,1650820107505536.0
-20.0,-28.0,-37.0,-13.0,-13.0,-7.0,-10.0,-16.0,1650820107505536.0
-1.0,23.0,48.0,10.0,-17.0,-36.0,0.0,36.0,1650820107506530.0
27.0,-2.0,-36.0,-10.0,3.0,5.0,-2.0,-7.0,1650820107506530.0
-11.0,-22.0,-12.0,-3.0,4.0,25.0,3.0,-7.0,1650820107527750.0
-1.0,6.0,-25.0,-3.0,9.0,2.0,-2.0,-8.0,1650820107527750.0
6.0,21.0,25.0,-4.0,-14.0,-1.0,-2.0,1.0,1650820107529747.0
-8.0,-18.0,-25.0,6.0,13.0,-12.0,6.0,13.0,1650820107529747.0
14.0,9.0,-1.0,0.0,9.0,5.0,14.0,25.0,1650820107541782.0
-41.0,13.0,52.0,-3.0,-17.0,2.0,-3.0,-7.0,1650820107541782.0
23.0,-8.0,5.0,12.0,5.0,12.0,6.0,38.0,1650820107548766.0
-16.0,-28.0,29.0,-3.0,4.0,-9.0,-9.0,-28.0,1650820107548766.0
-21.0,13.0,20.0,2.0,-23.0,-33.0,-16.0,-57.0,1650820107565804.0
21.0,-8.0,-39.0,-12.0,-3.0,4.0,-2.0,-11.0,1650820107565804.0
-5.0,-11.0,-42.0,5.0,21.0,38.0,10.0,10.0,1650820107571849.0
-2.0,32.0,46.0,22.0,27.0,14.0,16.0,24.0,1650820107571849.0
1.0,22.0,52.0,15.0,-12.0,-26.0,-6.0,13.0,1650820107588125.0
4.0,17.0,-1.0,-8.0,-14.0,8.0,2.0,17.0,1650820107588125.0
-16.0,-21.0,-51.0,-9.0,-14.0,-11.0,-9.0,-20.0,1650820107588793.0
11.0,15.0,-6.0,2.0,17.0,28.0,7.0,11.0,1650820107588793.0
-1.0,-6.0,1.0,2.0,1.0,-18.0,-11.0,-18.0,1650820107602923.0
1.0,-9.0,-11.0,-6.0,2.0,-4.0,2.0,12.0,1650820107602923.0
-2.0,-2.0,-1.0,-9.0,-1.0,12.0,11.0,-4.0,1650820107609972.0
-6.0,-4.0,9.0,2.0,-1.0,-8.0,-19.0,-45.0,1650820107609972.0
1.0,-16.0,-15.0,-8.0,-1.0,0.0,21.0,72.0,1650820107624674.0
14.0,4.0,12.0,17.0,10.0,-7.0,2.0,17.0,1650820107624674.0
-7.0,20.0,7.0,-21.0,-29.0,-22.0,-20.0,-88.0,1650820107632781.0
-25.0,-7.0,-9.0,-1.0,-13.0,1.0,14.0,12.0,1650820107632781.0
-28.0,22.0,6.0,-3.0,21.0,36.0,-16.0,-42.0,1650820107648150.0
15.0,-21.0,-40.0,10.0,2.0,22.0,18.0,26.0,1650820107648150.0
16.0,-8.0,29.0,1.0,36.0,16.0,9.0,13.0,1650820107648820.0
6.0,14.0,16.0,9.0,-6.0,-21.0,-1.0,25.0,1650820107648820.0
-14.0,-4.0,-39.0,-34.0,-34.0,-43.0,-19.0,-25.0,1650820107661854.0
-7.0,-4.0,19.0,13.0,-18.0,-16.0,-11.0,-14.0,1650820107661854.0
4.0,23.0,47.0,21.0,27.0,29.0,1.0,-6.0,1650820107670876.0
12.0,23.0,24.0,-1.0,17.0,28.0,10.0,-2.0,1650820107670876.0
0.0,-23.0,-56.0,-19.0,2.0,6.0,7.0,12.0,1650820107692583.0
4.0,6.0,24.0,23.0,2.0,-20.0,-10.0,-4.0,1650820107692583.0
-17.0,-22.0,-3.0,-5.0,-14.0,-18.0,-8.0,4.0,1650820107694512.0
5.0,8.0,-3.0,-11.0,-22.0,-9.0,-2.0,-32.0,1650820107694512.0
40.0,20.0,-1.0,-4.0,6.0,-22.0,6.0,27.0,1650820107707664.0
-6.0,14.0,1.0,-2.0,4.0,5.0,-7.0,10.0,1650820107707664.0
-14.0,-26.0,-6.0,4.0,5.0,39.0,1.0,7.0,1650820107709618.0
5.0,5.0,11.0,-3.0,6.0,8.0,-4.0,-14.0,1650820107709618.0
-3.0,-31.0,-16.0,6.0,0.0,-2.0,10.0,1.0,1650820107721876.0
-2.0,-5.0,0.0,-2.0,0.0,-20.0,-11.0,-12.0,1650820107721876.0
7.0,12.0,13.0,-4.0,-8.0,-13.0,5.0,24.0,1650820107730883.0
-12.0,-12.0,-29.0,-17.0,-21.0,-16.0,-5.0,-12.0,1650820107730883.0
15.0,35.0,23.0,21.0,8.0,11.0,0.0,8.0,1650820107745563.0
-13.0,-31.0,-41.0,-42.0,-16.0,2.0,4.0,-15.0,1650820107745563.0
7.0,25.0,12.0,9.0,11.0,11.0,5.0,0.0,1650820107746569.0
11.0,-4.0,26.0,16.0,2.0,-11.0,1.0,18.0,1650820107746569.0
-15.0,9.0,-20.0,-41.0,-29.0,-14.0,-17.0,-22.0,1650820107768100.0
2.0,3.0,48.0,31.0,20.0,30.0,18.0,8.0,1650820107768100.0
-16.0,-30.0,-40.0,-20.0,-11.0,-13.0,-14.0,-27.0,1650820107769640.0
13.0,-5.0,6.0,14.0,0.0,-16.0,17.0,49.0,1650820107769640.0
12.0,-5.0,8.0,4.0,-1.0,12.0,6.0,39.0,1650820107781744.0
-1.0,4.0,-15.0,-5.0,0.0,3.0,-6.0,-49.0,1650820107781744.0
11.0,13.0,3.0,-8.0,-10.0,-11.0,-8.0,-3.0,1650820107790654.0
-3.0,1.0,-25.0,-10.0,-4.0,-5.0,-12.0,11.0,1650820107790654.0
-26.0,-19.0,6.0,-3.0,6.0,-7.0,-5.0,9.0,1650820107805624.0
6.0,30.0,53.0,4.0,6.0,12.0,9.0,20.0,1650820107805624.0
-24.0,-40.0,-85.0,-15.0,-22.0,-21.0,-17.0,-62.0,1650820107806612.0
4.0,1.0,21.0,8.0,12.0,12.0,14.0,14.0,1650820107806612.0
-11.0,-17.0,-19.0,-9.0,6.0,-6.0,-5.0,-8.0,1650820107827767.0
-8.0,-15.0,35.0,21.0,1.0,9.0,-3.0,13.0,1650820107827767.0
9.0,-21.0,-18.0,-30.0,-5.0,-4.0,3.0,15.0,1650820107835748.0
3.0,10.0,29.0,22.0,7.0,23.0,-3.0,-2.0,1650820107835748.0
13.0,-16.0,-69.0,-11.0,-1.0,5.0,6.0,-8.0,1650820107841834.0
-16.0,-22.0,-43.0,-25.0,-10.0,-22.0,-11.0,-13.0,1650820107841834.0
5.0,9.0,20.0,16.0,-12.0,-16.0,2.0,32.0,1650820107850713.0
-4.0,3.0,-13.0,-7.0,-11.0,-9.0,-5.0,-10.0,1650820107850713.0
4.0,-2.0,40.0,18.0,-3.0,-3.0,2.0,2.0,1650820107865051.0
0.0,20.0,-9.0,-13.0,-5.0,-12.0,-19.0,-18.0,1650820107865051.0
17.0,11.0,18.0,25.0,21.0,24.0,28.0,29.0,1650820107867007.0
4.0,-16.0,-39.0,-7.0,12.0,26.0,5.0,37.0,1650820107867007.0
-26.0,23.0,60.0,9.0,-9.0,-7.0,-23.0,-95.0,1650820107895073.0
-3.0,1.0,-13.0,-5.0,-3.0,-33.0,-6.0,23.0,1650820107895073.0
-9.0,20.0,-8.0,-13.0,-9.0,4.0,-11.0,-100.0,1650820107897031.0
9.0,-10.0,-11.0,-2.0,1.0,7.0,-1.0,25.0,1650820107897031.0
22.0,16.0,-2.0,-6.0,3.0,-9.0,14.0,42.0,1650820107901017.0
-4.0,-12.0,-25.0,3.0,-3.0,4.0,3.0,-6.0,1650820107901017.0
17.0,30.0,16.0,8.0,-5.0,-21.0,-15.0,13.0,1650820107910032.0
-34.0,4.0,0.0,-25.0,-14.0,4.0,6.0,-3.0,1650820107910032.0
-1.0,10.0,5.0,9.0,3.0,10.0,-3.0,-9.0,1650820107924992.0
-6.0,-12.0,42.0,33.0,27.0,16.0,11.0,5.0,1650820107924992.0
2.0,-6.0,-10.0,2.0,9.0,0.0,1.0,16.0,1650820107926948.0
11.0,19.0,48.0,16.0,-3.0,1.0,7.0,-9.0,1650820107926948.0
-4.0,-35.0,-56.0,-36.0,-5.0,-2.0,10.0,25.0,1650820107947916.0
3.0,22.0,48.0,1.0,-12.0,-16.0,-3.0,-5.0,1650820107947916.0
-9.0,-33.0,-53.0,-9.0,1.0,5.0,-4.0,5.0,1650820107948874.0
-9.0,-4.0,9.0,0.0,-2.0,-6.0,-18.0,-29.0,1650820107948874.0
2.0,10.0,11.0,4.0,2.0,21.0,20.0,15.0,1650820107961858.0
6.0,-10.0,-18.0,-5.0,20.0,17.0,8.0,2.0,1650820107961858.0
-14.0,2.0,-5.0,9.0,2.0,-6.0,0.0,-1.0,1650820107970881.0
-1.0,-17.0,-12.0,-5.0,-10.0,-32.0,-4.0,20.0,1650820107970881.0
2.0,-1.0,-11.0,-6.0,-3.0,23.0,-8.0,-47.0,1650820107985560.0
36.0,-10.0,33.0,26.0,-2.0,16.0,7.0,6.0,1650820107985560.0
-9.0,-26.0,-15.0,-41.0,-4.0,-4.0,7.0,27.0,1650820107986570.0
-2.0,-27.0,-60.0,-9.0,-4.0,-9.0,-5.0,-13.0,1650820107986570.0
-14.0,8.0,52.0,14.0,-4.0,-11.0,-11.0,-2.0,1650820108007933.0
11.0,-2.0,-22.0,5.0,8.0,9.0,8.0,17.0,1650820108007933.0
-17.0,-15.0,9.0,-24.0,-16.0,-21.0,-15.0,-18.0,1650820108008891.0
2.0,-9.0,-21.0,-25.0,22.0,28.0,-1.0,-7.0,1650820108008891.0
5.0,-19.0,-26.0,13.0,2.0,-4.0,-1.0,0.0,1650820108021876.0
-14.0,13.0,-32.0,-10.0,-2.0,-3.0,0.0,-12.0,1650820108021876.0
11.0,22.0,62.0,22.0,1.0,-3.0,1.0,34.0,1650820108036830.0
-8.0,7.0,16.0,-5.0,-9.0,-16.0,-14.0,-42.0,1650820108036830.0
-20.0,17.0,-7.0,-2.0,-6.0,0.0,-4.0,3.0,1650820108044869.0
7.0,-32.0,-35.0,-16.0,-8.0,-4.0,-3.0,-66.0,1650820108044869.0
8.0,-3.0,-7.0,9.0,-4.0,-2.0,-10.0,-17.0,1650820108046798.0
31.0,34.0,22.0,9.0,3.0,-13.0,8.0,53.0,1650820108046798.0
-29.0,-3.0,20.0,-2.0,12.0,23.0,3.0,-22.0,1650820108067685.0
-4.0,41.0,54.0,22.0,-12.0,-15.0,-7.0,-4.0,1650820108067685.0
-4.0,-27.0,-57.0,-22.0,4.0,22.0,11.0,5.0,1650820108069709.0
5.0,11.0,18.0,4.0,16.0,9.0,-3.0,-18.0,1650820108069709.0
14.0,-3.0,-31.0,-6.0,-24.0,-24.0,-15.0,10.0,1650820108090711.0
-9.0,8.0,34.0,-8.0,-7.0,-10.0,-3.0,24.0,1650820108090711.0
-1.0,18.0,33.0,43.0,22.0,19.0,6.0,-4.0,1650820108091709.0
-3.0,-10.0,-41.0,-41.0,1.0,19.0,14.0,14.0,1650820108091709.0
5.0,-1.0,-25.0,-11.0,-7.0,-18.0,-3.0,-1.0,1650820108105686.0
-6.0,-14.0,9.0,4.0,-14.0,-7.0,-1.0,11.0,1650820108105686.0
5.0,23.0,31.0,4.0,-13.0,-10.0,1.0,6.0,1650820108107694.0
-11.0,0.0,-30.0,11.0,-12.0,-21.0,-19.0,-22.0,1650820108107694.0
2.0,11.0,19.0,-15.0,-2.0,2.0,0.0,-5.0,1650820108127787.0
-9.0,-53.0,-71.0,-23.0,2.0,1.0,3.0,4.0,1650820108127787.0
-9.0,22.0,11.0,6.0,-1.0,-5.0,-4.0,-3.0,1650820108129748.0
4.0,0.0,26.0,-12.0,6.0,16.0,23.0,-35.0,1650820108129748.0
35.0,1.0,11.0,8.0,3.0,-2.0,-7.0,18.0,1650820108150619.0
-7.0,34.0,43.0,9.0,8.0,-3.0,1.0,8.0,1650820108150619.0
-7.0,-40.0,-45.0,-16.0,-6.0,-8.0,-4.0,8.0,1650820108151562.0
19.0,-25.0,-17.0,11.0,-13.0,-14.0,16.0,29.0,1650820108151562.0
-5.0,8.0,25.0,25.0,11.0,26.0,3.0,6.0,1650820108165567.0
1.0,10.0,-15.0,-20.0,19.0,23.0,-5.0,-24.0,1650820108165567.0
-1.0,21.0,55.0,22.0,14.0,11.0,17.0,10.0,1650820108166513.0
5.0,-10.0,-8.0,27.0,11.0,-4.0,-8.0,12.0,1650820108166513.0
-1.0,4.0,0.0,-2.0,-12.0,-13.0,-1.0,-6.0,1650820108187871.0
-3.0,-9.0,-22.0,-9.0,-12.0,-9.0,3.0,19.0,1650820108187871.0
5.0,29.0,29.0,-7.0,9.0,4.0,-11.0,3.0,1650820108189894.0
-23.0,-29.0,-47.0,9.0,-9.0,-4.0,-11.0,-18.0,1650820108189894.0
3.0,7.0,1.0,-38.0,1.0,-11.0,8.0,12.0,1650820108209939.0
-19.0,-3.0,-1.0,5.0,-5.0,4.0,-5.0,0.0,1650820108209939.0
27.0,-3.0,-3.0,7.0,-6.0,-9.0,-2.0,-5.0,1650820108211874.0
-1.0,21.0,32.0,4.0,-4.0,-6.0,-12.0,-8.0,1650820108211874.0
-14.0,-19.0,-23.0,10.0,11.0,12.0,16.0,30.0,1650820108224871.0
27.0,18.0,8.0,-4.0,1.0,12.0,21.0,3.0,1650820108224871.0
-7.0,-11.0,-14.0,-5.0,-5.0,-8.0,3.0,-20.0,1650820108230927.0
-6.0,7.0,7.0,6.0,6.0,10.0,-2.0,7.0,1650820108230927.0
-2.0,-25.0,-4.0,-2.0,-1.0,-4.0,2.0,1.0,1650820108247960.0
-5.0,16.0,-7.0,-4.0,-12.0,-20.0,-10.0,-4.0,1650820108247960.0
3.0,-9.0,5.0,17.0,8.0,20.0,9.0,17.0,1650820108248959.0
-6.0,7.0,1.0,-10.0,4.0,13.0,-6.0,-13.0,1650820108248959.0
1.0,4.0,13.0,23.0,5.0,-1.0,-4.0,-4.0,1650820108270215.0
5.0,-13.0,-9.0,-2.0,3.0,-5.0,-2.0,12.0,1650820108270215.0
-4.0,-7.0,-30.0,-12.0,-3.0,-14.0,-20.0,-12.0,1650820108272171.0
-4.0,11.0,18.0,-4.0,-8.0,5.0,19.0,5.0,1650820108272171.0
1.0,-14.0,-3.0,1.0,-12.0,0.0,-3.0,-10.0,1650820108284866.0
0.0,-4.0,-28.0,-3.0,22.0,17.0,4.0,0.0,1650820108284866.0
0.0,22.0,21.0,2.0,-7.0,-8.0,-11.0,3.0,1650820108291810.0
-6.0,-6.0,8.0,-7.0,-7.0,-18.0,-9.0,-8.0,1650820108291810.0
2.0,-9.0,-12.0,1.0,-4.0,-7.0,-14.0,-1.0,1650820108307740.0
-5.0,2.0,1.0,-1.0,-10.0,0.0,32.0,3.0,1650820108307740.0
-2.0,-9.0,-3.0,-4.0,-2.0,0.0,-6.0,-1.0,1650820108313775.0
1.0,3.0,4.0,5.0,3.0,2.0,-4.0,5.0,1650820108313775.0
-1.0,8.0,4.0,0.0,2.0,1.0,0.0,-6.0,1650820108329947.0
-1.0,-2.0,-11.0,-3.0,0.0,-3.0,-22.0,-3.0,1650820108329947.0
1.0,-3.0,-6.0,-2.0,2.0,3.0,13.0,2.0,1650820108331871.0
0.0,4.0,5.0,4.0,-7.0,-6.0,-9.0,-5.0,1650820108331871.0
0.0,-3.0,-2.0,-1.0,1.0,-7.0,-7.0,-5.0,1650820108345004.0
0.0,1.0,-6.0,-15.0,-3.0,-1.0,-6.0,-1.0,1650820108345004.0
0.0,1.0,29.0,34.0,9.0,7.0,6.0,6.0,1650820108351043.0
-1.0,-7.0,-13.0,-9.0,-8.0,-4.0,-3.0,-2.0,1650820108351043.0
3.0,21.0,21.0,6.0,13.0,5.0,5.0,2.0,1650820108368050.0
-3.0,-6.0,-15.0,-1.0,-1.0,0.0,-3.0,-1.0,1650820108368050.0
-1.0,14.0,14.0,-7.0,-10.0,-11.0,2.0,-2.0,1650820108368985.0
1.0,-5.0,-2.0,-1.0,3.0,10.0,5.0,1.0,1650820108368985.0
2.0,2.0,5.0,5.0,10.0,5.0,1.0,0.0,1650820108389926.0
0.0,0.0,5.0,5.0,-9.0,-14.0,-11.0,-1.0,1650820108389926.0
-3.0,-1.0,-16.0,-11.0,-4.0,11.0,-3.0,-1.0,1650820108391855.0
0.0,2.0,15.0,13.0,11.0,20.0,12.0,0.0,1650820108391855.0
1.0,-2.0,-15.0,-4.0,-1.0,0.0,8.0,1.0,1650820108404871.0
-4.0,-1.0,9.0,0.0,1.0,-3.0,3.0,-3.0,1650820108404871.0
1.0,-5.0,-8.0,-3.0,-4.0,-16.0,-6.0,-2.0,1650820108411855.0
1.0,4.0,2.0,-5.0,-7.0,-9.0,-3.0,0.0,1650820108411855.0
-1.0,-3.0,3.0,2.0,2.0,4.0,-2.0,-4.0,1650820108428070.0
1.0,0.0,-2.0,6.0,-2.0,-1.0,-5.0,-1.0,1650820108428070.0
-1.0,2.0,-9.0,-8.0,-6.0,-6.0,5.0,1.0,1650820108429010.0
-1.0,-7.0,-10.0,-4.0,1.0,2.0,-9.0,-4.0,1650820108429010.0
2.0,15.0,14.0,9.0,3.0,0.0,0.0,1.0,1650820108449971.0
0.0,-5.0,-2.0,-1.0,-4.0,0.0,2.0,1.0,1650820108449971.0
1.0,-4.0,-14.0,-7.0,4.0,-1.0,-10.0,-3.0,1650820108451900.0
1.0,11.0,23.0,6.0,4.0,12.0,10.0,5.0,1650820108451900.0
-6.0,-7.0,-11.0,-5.0,-3.0,-3.0,2.0,-3.0,1650820108465082.0
4.0,-2.0,-3.0,-9.0,-2.0,-3.0,-7.0,-1.0,1650820108465082.0
3.0,1.0,11.0,21.0,3.0,-3.0,12.0,1.0,1650820108471066.0
-1.0,-2.0,-14.0,-11.0,-5.0,10.0,-14.0,-1.0,1650820108471066.0
1.0,-4.0,-4.0,-4.0,0.0,2.0,12.0,3.0,1650820108488060.0
-3.0,1.0,1.0,1.0,3.0,-3.0,-7.0,-3.0,1650820108488060.0
-2.0,-1.0,2.0,-11.0,-6.0,-17.0,-10.0,-2.0,1650820108489005.0
0.0,-1.0,-3.0,4.0,-6.0,-6.0,2.0,2.0,1650820108489005.0
-2.0,-4.0,3.0,10.0,-6.0,5.0,-8.0,-11.0,1650820108510144.0
-2.0,1.0,-2.0,-3.0,22.0,14.0,9.0,6.0,1650820108510144.0
4.0,-4.0,-21.0,-13.0,-6.0,-10.0,-6.0,1.0,1650820108512100.0
0.0,2.0,0.0,3.0,-4.0,-4.0,12.0,-2.0,1650820108512100.0
-4.0,-4.0,-3.0,-2.0,4.0,22.0,7.0,4.0,1650820108524172.0
-1.0,-6.0,9.0,9.0,2.0,3.0,2.0,0.0,1650820108524172.0
-3.0,2.0,2.0,-1.0,0.0,0.0,-1.0,-2.0,1650820108531205.0
-2.0,0.0,-5.0,-7.0,-4.0,-18.0,-8.0,-4.0,1650820108531205.0
2.0,-4.0,2.0,0.0,1.0,-12.0,7.0,1.0,1650820108548058.0
0.0,2.0,-5.0,-7.0,-10.0,-9.0,-11.0,-4.0,1650820108548058.0
-2.0,-1.0,1.0,1.0,2.0,10.0,11.0,2.0,1650820108548987.0
1.0,-2.0,2.0,-1.0,-11.0,-18.0,-12.0,-5.0,1650820108548987.0
0.0,2.0,-3.0,2.0,-2.0,0.0,0.0,-2.0,1650820108569929.0
-2.0,-1.0,-7.0,-4.0,3.0,13.0,1.0,1.0,1650820108569929.0
-1.0,2.0,-1.0,3.0,7.0,14.0,-1.0,-1.0,1650820108571860.0
-3.0,-6.0,4.0,-1.0,1.0,-10.0,-8.0,-2.0,1650820108571860.0
0.0,12.0,5.0,0.0,-9.0,-16.0,4.0,2.0,1650820108584275.0
6.0,-5.0,-1.0,-3.0,-8.0,-5.0,-6.0,-3.0,1650820108584275.0
-2.0,2.0,-1.0,-1.0,6.0,6.0,0.0,-1.0,1650820108592564.0
-2.0,2.0,0.0,1.0,12.0,11.0,6.0,-1.0,1650820108592564.0
4.0,-5.0,-4.0,0.0,-6.0,-10.0,-9.0,-2.0,1650820108607787.0
-4.0,-1.0,-2.0,3.0,-9.0,-5.0,-6.0,-1.0,1650820108607787.0
1.0,-3.0,1.0,-1.0,-3.0,12.0,9.0,3.0,1650820108608787.0
2.0,0.0,-2.0,0.0,0.0,4.0,5.0,3.0,1650820108608787.0
-4.0,-5.0,-5.0,-4.0,4.0,-14.0,-21.0,-6.0,1650820108629941.0
-1.0,1.0,0.0,1.0,-1.0,-12.0,2.0,-5.0,1650820108629941.0
0.0,-3.0,1.0,-5.0,-4.0,12.0,-3.0,-2.0,1650820108631870.0
-1.0,-1.0,-10.0,-1.0,3.0,20.0,17.0,6.0,1650820108631870.0
1.0,-4.0,5.0,5.0,6.0,18.0,7.0,2.0,1650820108643904.0
1.0,0.0,-2.0,0.0,8.0,-10.0,-2.0,0.0,1650820108643904.0
0.0,0.0,5.0,-2.0,-5.0,-12.0,0.0,1.0,1650820108652813.0
0.0,-3.0,-6.0,6.0,-9.0,-14.0,3.0,-1.0,1650820108652813.0
-3.0,0.0,-9.0,-11.0,-13.0,-10.0,-16.0,-6.0,1650820108667911.0
-1.0,-7.0,-6.0,0.0,-4.0,7.0,14.0,3.0,1650820108667911.0
-3.0,2.0,8.0,5.0,1.0,0.0,-5.0,-1.0,1650820108668869.0
1.0,-8.0,13.0,3.0,5.0,-2.0,-19.0,-3.0,1650820108668869.0
3.0,5.0,1.0,6.0,6.0,6.0,25.0,9.0,1650820108689992.0
-2.0,1.0,5.0,-1.0,-3.0,2.0,5.0,-3.0,1650820108689992.0
-3.0,-4.0,-17.0,-7.0,-1.0,1.0,1.0,1.0,1650820108691920.0
3.0,9.0,-14.0,-2.0,4.0,2.0,3.0,0.0,1650820108691920.0
-7.0,-1.0,22.0,3.0,6.0,5.0,-6.0,-1.0,1650820108704403.0
3.0,3.0,-2.0,-2.0,-9.0,-5.0,-6.0,0.0,1650820108704403.0
1.0,-4.0,-6.0,-1.0,-2.0,-29.0,-9.0,-1.0,1650820108713368.0
0.0,5.0,4.0,4.0,-2.0,2.0,-4.0,-4.0,1650820108713368.0
-2.0,-4.0,-10.0,-2.0,2.0,26.0,5.0,-1.0,1650820108728153.0
0.0,4.0,-3.0,0.0,9.0,11.0,5.0,2.0,1650820108728153.0
1.0,2.0,4.0,2.0,0.0,3.0,4.0,0.0,1650820108729471.0
-5.0,-4.0,-4.0,-9.0,-8.0,-30.0,-9.0,-2.0,1650820108729471.0
4.0,-2.0,3.0,6.0,-13.0,-24.0,-14.0,-2.0,1650820108749939.0
-1.0,2.0,3.0,-1.0,5.0,28.0,11.0,0.0,1650820108749939.0
-6.0,0.0,-7.0,-9.0,12.0,22.0,19.0,0.0,1650820108751867.0
-2.0,-3.0,4.0,7.0,7.0,-3.0,-5.0,1.0,1650820108751867.0
2.0,1.0,1.0,-3.0,-13.0,-9.0,3.0,0.0,1650820108763801.0
4.0,7.0,3.0,3.0,-2.0,-9.0,-13.0,-1.0,1650820108763801.0
-1.0,-10.0,2.0,5.0,-1.0,-5.0,5.0,-1.0,1650820108772539.0
-1.0,0.0,-2.0,-5.0,-3.0,6.0,6.0,-1.0,1650820108772539.0
1.0,4.0,8.0,1.0,6.0,10.0,2.0,0.0,1650820108787203.0
-2.0,-6.0,1.0,4.0,2.0,-10.0,-6.0,-1.0,1650820108787203.0
0.0,2.0,-2.0,-3.0,-11.0,-8.0,-6.0,0.0,1650820108795565.0
-3.0,-9.0,-7.0,-6.0,-3.0,17.0,0.0,-1.0,1650820108795565.0
-2.0,2.0,-4.0,2.0,4.0,2.0,3.0,2.0,1650820108810556.0
5.0,3.0,5.0,8.0,21.0,13.0,4.0,6.0,1650820108810556.0
4.0,1.0,16.0,-1.0,-1.0,-5.0,-3.0,-4.0,1650820108811519.0
0.0,0.0,4.0,-4.0,-9.0,-15.0,-1.0,-1.0,1650820108811519.0
-4.0,-2.0,-18.0,-9.0,-18.0,-12.0,-13.0,-3.0,1650820108823643.0
-6.0,-3.0,-3.0,-5.0,-4.0,-11.0,5.0,0.0,1650820108823643.0
0.0,6.0,-2.0,5.0,7.0,12.0,0.0,1.0,1650820108833373.0
0.0,-4.0,15.0,11.0,9.0,16.0,3.0,2.0,1650820108833373.0
-2.0,-2.0,4.0,-2.0,16.0,8.0,-1.0,-4.0,1650820108848150.0
-2.0,0.0,-6.0,-6.0,-10.0,-12.0,-22.0,-3.0,1650820108848150.0
3.0,1.0,-1.0,-2.0,-7.0,-6.0,12.0,4.0,1650820108848822.0
-3.0,-2.0,1.0,4.0,-6.0,-8.0,-1.0,-2.0,1650820108848822.0
1.0,-5.0,-8.0,-3.0,-3.0,-10.0,2.0,0.0,1650820108871020.0
-1.0,-2.0,-4.0,-5.0,-4.0,4.0,-10.0,-6.0,1650820108871020.0
-3.0,-3.0,0.0,7.0,3.0,9.0,-3.0,-3.0,1650820108871960.0
2.0,5.0,-4.0,-2.0,0.0,0.0,3.0,3.0,1650820108871960.0
0.0,-10.0,-2.0,3.0,-1.0,-15.0,-4.0,-1.0,1650820108883986.0
-2.0,0.0,-10.0,-19.0,-9.0,-6.0,1.0,1.0,1650820108883986.0
-2.0,-1.0,1.0,5.0,-3.0,8.0,-1.0,-3.0,1650820108892898.0
-2.0,-3.0,-7.0,-6.0,-3.0,-9.0,2.0,1.0,1650820108892898.0
1.0,-1.0,4.0,4.0,10.0,2.0,-4.0,-1.0,1650820108907721.0
-1.0,2.0,4.0,8.0,1.0,5.0,6.0,0.0,1650820108907721.0
1.0,-1.0,0.0,-1.0,5.0,7.0,-3.0,2.0,1650820108909746.0
-3.0,1.0,-8.0,-4.0,-1.0,-5.0,-4.0,-3.0,1650820108909746.0
5.0,4.0,7.0,-4.0,-11.0,-17.0,-7.0,1.0,1650820108929884.0
-1.0,-1.0,0.0,5.0,-2.0,13.0,11.0,1.0,1650820108929884.0
-4.0,-3.0,-2.0,-2.0,8.0,16.0,-3.0,-2.0,1650820108931842.0
3.0,-1.0,4.0,8.0,9.0,6.0,2.0,1.0,1650820108931842.0
-3.0,1.0,-10.0,-13.0,-8.0,-21.0,-9.0,-3.0,1650820108943846.0
-3.0,-2.0,-6.0,-3.0,-28.0,-31.0,-9.0,-3.0,1650820108943846.0
-2.0,1.0,4.0,7.0,-2.0,-4.0,-12.0,-9.0,1650820108952541.0
-1.0,0.0,-3.0,0.0,24.0,42.0,25.0,7.0,1650820108952541.0
1.0,0.0,0.0,2.0,11.0,22.0,7.0,2.0,1650820108967761.0
-1.0,2.0,5.0,-1.0,2.0,-10.0,0.0,1.0,1650820108967761.0
1.0,-3.0,-8.0,-8.0,-13.0,-18.0,-4.0,-2.0,1650820108968755.0
-1.0,-4.0,-3.0,-5.0,-22.0,-19.0,-14.0,-2.0,1650820108968755.0
-3.0,-4.0,-3.0,-3.0,2.0,2.0,9.0,-1.0,1650820108989875.0
2.0,0.0,5.0,6.0,7.0,11.0,-5.0,-2.0,1650820108989875.0
2.0,1.0,8.0,12.0,0.0,-5.0,2.0,2.0,1650820108991805.0
-1.0,-1.0,-24.0,-23.0,-2.0,-3.0,-1.0,-3.0,1650820108991805.0
4.0,1.0,-3.0,2.0,-4.0,2.0,-2.0,-1.0,1650820109003618.0
-3.0,-5.0,-4.0,-2.0,1.0,1.0,3.0,0.0,1650820109003618.0
3.0,3.0,8.0,-3.0,-2.0,-10.0,-6.0,0.0,1650820109012539.0
-4.0,-1.0,3.0,8.0,-3.0,6.0,15.0,3.0,1650820109012539.0
3.0,-2.0,-3.0,-1.0,1.0,6.0,-6.0,-3.0,1650820109027708.0
-3.0,-9.0,-10.0,-4.0,2.0,-2.0,-2.0,-3.0,1650820109027708.0
-1.0,1.0,4.0,-6.0,-3.0,-10.0,-1.0,2.0,1650820109029705.0
1.0,1.0,8.0,5.0,-2.0,-5.0,-5.0,-1.0,1650820109029705.0
-5.0,2.0,-6.0,-6.0,1.0,19.0,6.0,2.0,1650820109049941.0
2.0,-5.0,7.0,14.0,10.0,10.0,3.0,0.0,1650820109049941.0
1.0,0.0,-7.0,1.0,8.0,-1.0,15.0,3.0,1650820109051869.0
-2.0,-2.0,-7.0,-18.0,-10.0,-18.0,-8.0,-1.0,1650820109051869.0
-1.0,-2.0,1.0,-3.0,-15.0,-18.0,-5.0,-2.0,1650820109073936.0
0.0,2.0,0.0,2.0,-10.0,-10.0,-3.0,0.0,1650820109073936.0
-6.0,-5.0,1.0,4.0,7.0,18.0,-4.0,-6.0,1650820109078924.0
2.0,0.0,10.0,12.0,17.0,22.0,12.0,3.0,1650820109078924.0
1.0,3.0,-3.0,-1.0,9.0,3.0,-6.0,3.0,1650820109087966.0
-1.0,3.0,2.0,-2.0,-7.0,-4.0,4.0,-2.0,1650820109087966.0
-1.0,-5.0,2.0,-4.0,-15.0,-15.0,0.0,-2.0,1650820109088939.0
0.0,6.0,-5.0,-6.0,-11.0,-16.0,-16.0,-5.0,1650820109088939.0
-5.0,-6.0,-6.0,0.0,2.0,2.0,1.0,0.0,1650820109109920.0
3.0,14.0,23.0,8.0,4.0,4.0,-2.0,-2.0,1650820109109920.0
-4.0,-21.0,-30.0,-10.0,4.0,10.0,2.0,4.0,1650820109111851.0
3.0,4.0,11.0,8.0,4.0,-1.0,-5.0,-1.0,1650820109111851.0
-5.0,2.0,-9.0,-12.0,-8.0,-9.0,0.0,-3.0,1650820109132961.0
8.0,1.0,11.0,5.0,-5.0,-11.0,3.0,-1.0,1650820109132961.0
-1.0,4.0,-7.0,-2.0,-3.0,7.0,-9.0,-2.0,1650820109133937.0
-1.0,-1.0,12.0,8.0,7.0,1.0,-2.0,0.0,1650820109133937.0
0.0,1.0,-3.0,0.0,0.0,18.0,16.0,3.0,1650820109147802.0
-2.0,-8.0,-12.0,-10.0,1.0,1.0,-3.0,-3.0,1650820109147802.0
0.0,1.0,6.0,5.0,2.0,-7.0,-5.0,1.0,1650820109148829.0
1.0,-6.0,-13.0,-10.0,-11.0,-20.0,-17.0,-3.0,1650820109148829.0
-3.0,3.0,14.0,5.0,-8.0,-13.0,15.0,2.0,1650820109169926.0
-1.0,-2.0,-16.0,-9.0,-2.0,11.0,-5.0,-3.0,1650820109169926.0
0.0,-1.0,-2.0,0.0,19.0,19.0,15.0,6.0,1650820109171856.0
-3.0,1.0,2.0,1.0,10.0,9.0,1.0,-2.0,1650820109171856.0
1.0,-1.0,7.0,1.0,-7.0,-11.0,-9.0,-5.0,1650820109193189.0
1.0,5.0,4.0,4.0,-14.0,-14.0,0.0,1.0,1650820109193189.0
-3.0,-4.0,6.0,1.0,-16.0,-15.0,-7.0,-4.0,1650820109194189.0
-2.0,-11.0,-5.0,3.0,21.0,21.0,3.0,-2.0,1650820109194189.0
3.0,-1.0,-3.0,3.0,10.0,12.0,2.0,0.0,1650820109207220.0
-6.0,-1.0,-5.0,3.0,0.0,3.0,0.0,0.0,1650820109207220.0
-1.0,1.0,-4.0,-7.0,-10.0,-10.0,-3.0,-2.0,1650820109221843.0
0.0,-2.0,2.0,3.0,-13.0,-12.0,-1.0,-2.0,1650820109221843.0
0.0,-2.0,-2.0,-6.0,-4.0,-8.0,1.0,1.0,1650820109229822.0
1.0,2.0,-3.0,-2.0,-1.0,-7.0,-3.0,-1.0,1650820109229822.0
-1.0,-2.0,3.0,-1.0,4.0,17.0,0.0,-1.0,1650820109231787.0
-3.0,3.0,-8.0,-2.0,2.0,5.0,5.0,-1.0,1650820109231787.0
0.0,4.0,13.0,5.0,4.0,6.0,-2.0,-2.0,1650820109253208.0
-1.0,-8.0,-8.0,-2.0,0.0,-9.0,3.0,3.0,1650820109253208.0
2.0,6.0,3.0,-4.0,1.0,-10.0,-7.0,4.0,1650820109254210.0
2.0,-1.0,-10.0,-14.0,-11.0,9.0,4.0,-1.0,1650820109254210.0
-2.0,2.0,7.0,9.0,2.0,-6.0,-16.0,-2.0,1650820109267285.0
-3.0,-5.0,3.0,6.0,2.0,5.0,7.0,-2.0,1650820109267285.0
1.0,2.0,-2.0,1.0,8.0,6.0,-4.0,0.0,1650820109274275.0
4.0,5.0,4.0,2.0,6.0,4.0,4.0,2.0,1650820109274275.0
0.0,-1.0,-3.0,-7.0,-7.0,-7.0,-5.0,-3.0,1650820109289947.0
-2.0,-6.0,-4.0,-7.0,-16.0,-18.0,-5.0,1.0,1650820109289947.0
-1.0,0.0,-6.0,-5.0,-4.0,-1.0,-4.0,-4.0,1650820109291875.0
0.0,0.0,-6.0,0.0,2.0,13.0,1.0,0.0,1650820109291875.0
-1.0,4.0,2.0,10.0,15.0,15.0,7.0,2.0,1650820109312863.0
-2.0,-10.0,-5.0,-4.0,2.0,-2.0,0.0,-2.0,1650820109312863.0
-6.0,2.0,13.0,0.0,-12.0,-5.0,-3.0,-4.0,1650820109314802.0
5.0,-1.0,-1.0,-6.0,-6.0,-8.0,-3.0,-1.0,1650820109314802.0
1.0,2.0,7.0,7.0,0.0,1.0,-3.0,-1.0,1650820109326946.0
-4.0,-3.0,-4.0,-1.0,12.0,9.0,12.0,0.0,1650820109326946.0
6.0,3.0,-9.0,0.0,-1.0,-7.0,-2.0,0.0,1650820109333931.0
-5.0,1.0,4.0,-1.0,-3.0,-4.0,-4.0,1.0,1650820109333931.0
-1.0,-2.0,1.0,4.0,-7.0,-11.0,-6.0,-9.0,1650820109350932.0
-2.0,2.0,-12.0,-9.0,-8.0,2.0,-6.0,-2.0,1650820109350932.0
0.0,0.0,4.0,8.0,0.0,-6.0,-2.0,-2.0,1650820109351914.0
-3.0,-3.0,5.0,2.0,0.0,-8.0,-13.0,-2.0,1650820109351914.0
3.0,-2.0,-2.0,-2.0,4.0,25.0,13.0,7.0,1650820109372918.0
2.0,4.0,2.0,-2.0,17.0,21.0,6.0,1.0,1650820109372918.0
0.0,1.0,-7.0,-5.0,-4.0,-7.0,3.0,1.0,1650820109373876.0
0.0,1.0,-7.0,-8.0,-7.0,-16.0,-6.0,-3.0,1650820109373876.0
-4.0,-6.0,2.0,5.0,-6.0,-13.0,-3.0,-4.0,1650820109386938.0
2.0,5.0,4.0,3.0,-1.0,6.0,-1.0,0.0,1650820109386938.0
-1.0,-1.0,-5.0,-5.0,0.0,2.0,2.0,1.0,1650820109394045.0
-5.0,-3.0,0.0,3.0,-7.0,-11.0,9.0,-1.0,1650820109394045.0
-1.0,3.0,0.0,-3.0,0.0,15.0,-8.0,-3.0,1650820109410196.0
7.0,-3.0,-13.0,-7.0,5.0,5.0,3.0,1.0,1650820109410196.0
4.0,4.0,3.0,5.0,4.0,-1.0,15.0,3.0,1650820109412154.0
4.0,2.0,4.0,4.0,-2.0,-4.0,-4.0,-1.0,1650820109412154.0
-5.0,-3.0,2.0,4.0,-3.0,-7.0,0.0,4.0,1650820109433637.0
-2.0,0.0,-12.0,-15.0,-6.0,-4.0,-16.0,-4.0,1650820109433637.0
-1.0,-7.0,-5.0,3.0,1.0,2.0,1.0,-1.0,1650820109434644.0
-5.0,-1.0,7.0,5.0,2.0,10.0,7.0,1.0,1650820109434644.0
7.0,1.0,4.0,2.0,4.0,-1.0,3.0,0.0,1650820109447500.0
-5.0,-5.0,-7.0,1.0,-2.0,-4.0,-6.0,-10.0,1650820109447500.0
0.0,3.0,6.0,-6.0,-5.0,-12.0,1.0,1.0,1650820109454299.0
0.0,2.0,1.0,10.0,3.0,13.0,3.0,2.0,1650820109454299.0
-1.0,-1.0,3.0,-3.0,1.0,0.0,-2.0,-2.0,1650820109469866.0
-2.0,9.0,8.0,6.0,-1.0,-3.0,3.0,2.0,1650820109469866.0
-1.0,-7.0,-16.0,-14.0,-12.0,-11.0,-11.0,0.0,1650820109471795.0
-1.0,-3.0,2.0,-4.0,-2.0,-4.0,0.0,1.0,1650820109471795.0
-2.0,-4.0,-14.0,-3.0,8.0,-3.0,-1.0,-2.0,1650820109492905.0
-2.0,-2.0,10.0,8.0,-1.0,19.0,0.0,0.0,1650820109492905.0
2.0,5.0,17.0,12.0,6.0,11.0,-3.0,0.0,1650820109498891.0
3.0,2.0,-4.0,-7.0,1.0,11.0,13.0,4.0,1650820109498891.0
-2.0,-6.0,-13.0,-8.0,-4.0,-15.0,-8.0,-3.0,1650820109507537.0
1.0,-1.0,0.0,1.0,-2.0,-12.0,8.0,4.0,1650820109507537.0
-1.0,1.0,1.0,0.0,-7.0,-5.0,-9.0,-3.0,1650820109514274.0
-4.0,-3.0,6.0,1.0,-8.0,-14.0,-8.0,-3.0,1650820109514274.0
0.0,-2.0,-7.0,-2.0,7.0,15.0,8.0,1.0,1650820109530725.0
2.0,3.0,7.0,4.0,5.0,2.0,-3.0,0.0,1650820109530725.0
0.0,0.0,-1.0,-4.0,1.0,2.0,1.0,0.0,1650820109531683.0
-2.0,-4.0,-8.0,-2.0,-3.0,-10.0,-5.0,-6.0,1650820109531683.0
-1.0,1.0,-2.0,-4.0,-13.0,-7.0,-4.0,-1.0,1650820109553208.0
1.0,0.0,-2.0,-2.0,-3.0,0.0,3.0,4.0,1650820109553208.0
-4.0,-1.0,11.0,9.0,13.0,8.0,5.0,3.0,1650820109554219.0
3.0,4.0,2.0,4.0,3.0,3.0,4.0,0.0,1650820109554219.0
1.0,-1.0,-2.0,-4.0,0.0,-3.0,-8.0,-1.0,1650820109566833.0
1.0,2.0,3.0,5.0,-5.0,-24.0,-9.0,-2.0,1650820109566833.0
-4.0,-6.0,-14.0,-13.0,2.0,29.0,13.0,0.0,1650820109575877.0
-2.0,2.0,2.0,3.0,2.0,7.0,0.0,0.0,1650820109575877.0
2.0,8.0,6.0,2.0,-13.0,-21.0,-1.0,1.0,1650820109590045.0
-6.0,-15.0,-1.0,1.0,10.0,3.0,-2.0,0.0,1650820109590045.0
1.0,-6.0,-4.0,-2.0,4.0,-13.0,-4.0,-4.0,1650820109591974.0
-1.0,-3.0,-8.0,-6.0,-7.0,4.0,7.0,3.0,1650820109591974.0
-3.0,-3.0,-3.0,0.0,2.0,16.0,11.0,2.0,1650820109612763.0
1.0,2.0,3.0,5.0,8.0,8.0,2.0,1.0,1650820109612763.0
1.0,3.0,3.0,1.0,1.0,-3.0,-8.0,-3.0,1650820109614696.0
-1.0,-1.0,1.0,-2.0,-2.0,-8.0,-2.0,-2.0,1650820109614696.0
-3.0,-3.0,2.0,2.0,-7.0,-12.0,-4.0,-2.0,1650820109626662.0
1.0,7.0,-5.0,-13.0,-2.0,-2.0,-3.0,-2.0,1650820109626662.0
1.0,4.0,0.0,3.0,0.0,4.0,1.0,0.0,1650820109635807.0
-3.0,-2.0,0.0,2.0,-6.0,-10.0,-9.0,-3.0,1650820109635807.0
2.0,-2.0,1.0,2.0,4.0,2.0,9.0,2.0,1650820109649927.0
-1.0,5.0,4.0,0.0,0.0,1.0,-2.0,0.0,1650820109649927.0
-3.0,-2.0,-8.0,1.0,-2.0,-4.0,6.0,1.0,1650820109651856.0
0.0,-1.0,-7.0,-8.0,-1.0,-3.0,-2.0,-2.0,1650820109651856.0
-2.0,-3.0,-4.0,-6.0,-6.0,10.0,-5.0,-1.0,1650820109672755.0
-1.0,-4.0,4.0,2.0,10.0,9.0,3.0,2.0,1650820109672755.0
1.0,3.0,6.0,5.0,4.0,-6.0,0.0,-1.0,1650820109674791.0
0.0,2.0,1.0,5.0,0.0,-4.0,-4.0,-1.0,1650820109674791.0
-2.0,-2.0,-4.0,-4.0,1.0,-5.0,5.0,-1.0,1650820109686790.0
1.0,6.0,8.0,4.0,0.0,0.0,7.0,4.0,1650820109686790.0
-2.0,-10.0,-17.0,-14.0,-12.0,-7.0,-8.0,-10.0,1650820109694865.0
-1.0,-2.0,-6.0,-2.0,0.0,1.0,-4.0,-1.0,1650820109694865.0
-1.0,0.0,2.0,2.0,-2.0,-2.0,-3.0,-1.0,1650820109710089.0
0.0,0.0,-10.0,-6.0,-12.0,-16.0,-7.0,-1.0,1650820109710089.0
-1.0,1.0,13.0,3.0,-8.0,8.0,14.0,2.0,1650820109712079.0
0.0,1.0,-1.0,0.0,23.0,15.0,3.0,0.0,1650820109712079.0
2.0,-2.0,3.0,7.0,18.0,22.0,4.0,1.0,1650820109732561.0
-1.0,3.0,5.0,-2.0,-7.0,-8.0,0.0,-3.0,1650820109732561.0
-5.0,-14.0,-16.0,-6.0,-7.0,-10.0,-11.0,-3.0,1650820109734516.0
0.0,-1.0,1.0,3.0,-7.0,-10.0,2.0,1.0,1650820109734516.0
-1.0,0.0,-3.0,-5.0,-2.0,-9.0,-5.0,-2.0,1650820109746581.0
1.0,3.0,8.0,10.0,0.0,6.0,2.0,1.0,1650820109746581.0
-1.0,0.0,-6.0,-5.0,-2.0,-3.0,-1.0,-2.0,1650820109755561.0
-1.0,-1.0,3.0,1.0,-12.0,-23.0,-13.0,-4.0,1650820109755561.0
-2.0,-1.0,-3.0,-4.0,3.0,19.0,10.0,2.0,1650820109777902.0
-1.0,-2.0,-6.0,1.0,6.0,11.0,-1.0,-3.0,1650820109777902.0
1.0,7.0,13.0,7.0,7.0,3.0,1.0,2.0,1650820109778862.0
0.0,-2.0,4.0,8.0,5.0,-2.0,3.0,2.0,1650820109778862.0
0.0,-1.0,-6.0,-5.0,-8.0,-17.0,-15.0,-5.0,1650820109792842.0
-5.0,-3.0,-1.0,0.0,-7.0,-9.0,-1.0,-2.0,1650820109792842.0
8.0,2.0,-4.0,-4.0,2.0,14.0,8.0,5.0,1650820109794791.0
0.0,-3.0,-2.0,-9.0,-9.0,-1.0,-14.0,-3.0,1650820109794791.0
-2.0,-1.0,1.0,1.0,-16.0,-30.0,8.0,-2.0,1650820109806877.0
-1.0,-2.0,1.0,6.0,17.0,27.0,5.0,0.0,1650820109806877.0
-2.0,4.0,3.0,6.0,13.0,15.0,-1.0,1.0,1650820109814974.0
0.0,-1.0,-1.0,-2.0,4.0,10.0,9.0,3.0,1650820109814974.0
0.0,-5.0,-5.0,-5.0,-6.0,-12.0,-6.0,-1.0,1650820109830083.0
-2.0,-4.0,-1.0,-5.0,-11.0,-18.0,-8.0,-3.0,1650820109830083.0
0.0,1.0,-2.0,-4.0,-8.0,-14.0,5.0,1.0,1650820109832013.0
-1.0,-2.0,1.0,1.0,1.0,8.0,1.0,-1.0,1650820109832013.0
0.0,3.0,2.0,1.0,3.0,7.0,-2.0,-2.0,1650820109852279.0
2.0,-2.0,0.0,1.0,-1.0,-8.0,-5.0,-3.0,1650820109852279.0
-2.0,2.0,2.0,5.0,1.0,-4.0,3.0,1.0,1650820109854244.0
2.0,3.0,-1.0,-5.0,-8.0,-2.0,-1.0,-2.0,1650820109854244.0
0.0,1.0,-1.0,-1.0,2.0,8.0,4.0,0.0,1650820109866774.0
1.0,0.0,-1.0,2.0,5.0,14.0,4.0,5.0,1650820109866774.0
2.0,-1.0,4.0,11.0,12.0,3.0,1.0,1.0,1650820109875722.0
1.0,-1.0,1.0,2.0,7.0,5.0,5.0,1.0,1650820109875722.0
-1.0,-1.0,1.0,2.0,-1.0,0.0,-5.0,-1.0,1650820109889950.0
1.0,-3.0,-9.0,-9.0,-18.0,-28.0,-8.0,-2.0,1650820109889950.0
-5.0,-1.0,3.0,-2.0,-13.0,-9.0,-8.0,-3.0,1650820109891907.0
2.0,-2.0,-10.0,-11.0,-3.0,3.0,-1.0,-2.0,1650820109891907.0
0.0,4.0,9.0,9.0,5.0,10.0,1.0,3.0,1650820109913036.0
-1.0,-3.0,0.0,1.0,0.0,-1.0,3.0,-1.0,1650820109913036.0
-1.0,-7.0,-22.0,-12.0,3.0,-3.0,-7.0,-1.0,1650820109913970.0
-2.0,2.0,5.0,6.0,-3.0,1.0,1.0,-1.0,1650820109913970.0
-1.0,0.0,-2.0,-9.0,1.0,3.0,-1.0,-1.0,1650820109925937.0
-1.0,0.0,0.0,-4.0,-6.0,-6.0,2.0,-1.0,1650820109925937.0
-3.0,-1.0,1.0,1.0,-8.0,-12.0,-4.0,-3.0,1650820109935081.0
0.0,1.0,1.0,1.0,-4.0,2.0,-3.0,3.0,1650820109935081.0
-1.0,-2.0,-2.0,-2.0,9.0,14.0,5.0,0.0,1650820109950247.0
