EMG_s0,EMG_s1,EMG_s2,EMG_s3,EMG_s4,EMG_s5,EMG_s6,EMG_s7,timestamp
1.0,-1.0,0.0,-4.0,-6.0,-4.0,-2.0,0.0,1650823587892604.0
-1.0,-3.0,0.0,0.0,-1.0,-1.0,-4.0,-1.0,1650823587892604.0
-2.0,1.0,-8.0,3.0,8.0,8.0,4.0,-1.0,1650823587893601.0
-1.0,1.0,3.0,1.0,2.0,-3.0,1.0,0.0,1650823587893601.0
-1.0,-1.0,1.0,-2.0,-4.0,3.0,-1.0,-1.0,1650823587894633.0
0.0,-1.0,-2.0,-5.0,1.0,-7.0,-2.0,-1.0,1650823587894633.0
2.0,-2.0,2.0,-4.0,-1.0,-4.0,-3.0,-1.0,1650823587894633.0
0.0,-1.0,1.0,1.0,-11.0,-5.0,0.0,-1.0,1650823587894633.0
1.0,1.0,0.0,0.0,7.0,0.0,2.0,1.0,1650823587905597.0
0.0,0.0,2.0,2.0,-6.0,3.0,-1.0,1.0,1650823587905597.0
-1.0,1.0,4.0,3.0,6.0,9.0,0.0,-1.0,1650823587915543.0
1.0,-3.0,-10.0,-5.0,1.0,-4.0,-2.0,0.0,1650823587915543.0
-1.0,-2.0,-2.0,-3.0,-1.0,-7.0,-1.0,-3.0,1650823587922525.0
0.0,0.0,0.0,1.0,8.0,9.0,2.0,-3.0,1650823587922525.0
-2.0,-1.0,4.0,1.0,-11.0,-11.0,3.0,2.0,1650823587936532.0
-1.0,0.0,-5.0,0.0,-1.0,3.0,0.0,-1.0,1650823587936532.0
-2.0,0.0,11.0,3.0,8.0,-1.0,-3.0,-3.0,1650823587943940.0
0.0,1.0,-1.0,-3.0,4.0,4.0,-3.0,0.0,1650823587943940.0
-2.0,-1.0,-1.0,-3.0,-2.0,5.0,-1.0,-1.0,1650823587959739.0
1.0,-2.0,-8.0,-3.0,-4.0,-6.0,-2.0,-1.0,1650823587959739.0
-1.0,-1.0,-3.0,-5.0,-5.0,1.0,-2.0,-2.0,1650823587967717.0
-1.0,1.0,1.0,5.0,5.0,1.0,2.0,0.0,1650823587967717.0
1.0,-1.0,-1.0,-1.0,-1.0,-2.0,-1.0,-2.0,1650823587980729.0
0.0,0.0,2.0,-3.0,-2.0,-3.0,-1.0,1.0,1650823587980729.0
-2.0,-2.0,-3.0,-3.0,-4.0,-4.0,-1.0,-1.0,1650823588029546.0
0.0,-2.0,-2.0,-2.0,1.0,12.0,-2.0,-3.0,1650823588029546.0
-1.0,-1.0,0.0,-2.0,-6.0,-18.0,0.0,1.0,1650823588030551.0
0.0,2.0,2.0,0.0,-6.0,-3.0,1.0,0.0,1650823588030551.0
0.0,1.0,1.0,1.0,6.0,5.0,0.0,-1.0,1650823588035534.0
0.0,-3.0,-1.0,-2.0,-5.0,-11.0,-3.0,-1.0,1650823588035534.0
0.0,2.0,-2.0,-1.0,1.0,6.0,-2.0,-2.0,1650823588036529.0
-1.0,0.0,-3.0,-3.0,0.0,0.0,-2.0,0.0,1650823588036529.0
0.0,0.0,-2.0,-2.0,-7.0,-8.0,-3.0,-1.0,1650823588037526.0
-1.0,1.0,3.0,7.0,5.0,7.0,4.0,0.0,1650823588037526.0
0.0,-1.0,-2.0,0.0,-3.0,2.0,-1.0,0.0,1650823588041516.0
0.0,-2.0,1.0,-2.0,0.0,-7.0,-1.0,0.0,1650823588041516.0
0.0,0.0,-3.0,-3.0,-2.0,1.0,-2.0,0.0,1650823588047526.0
-2.0,1.0,-2.0,-4.0,1.0,-5.0,-2.0,-1.0,1650823588047526.0
0.0,0.0,2.0,3.0,4.0,2.0,1.0,-1.0,1650823588062480.0
-2.0,-3.0,-4.0,-5.0,-4.0,2.0,-1.0,-3.0,1650823588062480.0
0.0,0.0,4.0,4.0,6.0,0.0,-3.0,0.0,1650823588070460.0
0.0,-1.0,2.0,0.0,-3.0,-1.0,-1.0,0.0,1650823588070460.0
0.0,-1.0,-4.0,-5.0,-2.0,-2.0,-2.0,0.0,1650823588093381.0
-1.0,0.0,0.0,11.0,7.0,9.0,3.0,1.0,1650823588093381.0
0.0,-3.0,-2.0,-2.0,-2.0,-3.0,0.0,-1.0,1650823588094376.0
1.0,0.0,-2.0,1.0,-1.0,-3.0,-1.0,-2.0,1650823588094376.0
-1.0,-3.0,2.0,-5.0,-8.0,-7.0,-3.0,-2.0,1650823588108369.0
1.0,0.0,1.0,-1.0,0.0,5.0,-1.0,-1.0,1650823588108369.0
0.0,2.0,2.0,6.0,5.0,4.0,2.0,-1.0,1650823588109333.0
0.0,0.0,-1.0,-2.0,0.0,-1.0,2.0,1.0,1650823588109333.0
0.0,1.0,-1.0,-1.0,1.0,3.0,0.0,0.0,1650823588139281.0
-2.0,-2.0,-2.0,-2.0,5.0,-4.0,-1.0,-1.0,1650823588139281.0
-1.0,0.0,1.0,0.0,-16.0,-11.0,2.0,1.0,1650823588140251.0
0.0,2.0,1.0,-1.0,4.0,3.0,-3.0,0.0,1650823588140251.0
1.0,-1.0,-1.0,1.0,1.0,-2.0,-2.0,0.0,1650823588153249.0
-1.0,-3.0,-11.0,-8.0,1.0,1.0,-4.0,2.0,1650823588153249.0
-2.0,-3.0,-2.0,-6.0,-5.0,5.0,-3.0,-1.0,1650823588154214.0
-2.0,1.0,1.0,1.0,-4.0,-1.0,2.0,-2.0,1650823588154214.0
1.0,0.0,3.0,5.0,3.0,1.0,2.0,1.0,1650823588168204.0
2.0,0.0,3.0,4.0,-4.0,-4.0,2.0,-2.0,1650823588168204.0
0.0,-3.0,0.0,2.0,9.0,-1.0,-1.0,-2.0,1650823588169174.0
-1.0,-2.0,-11.0,-13.0,-9.0,-5.0,-3.0,-1.0,1650823588169174.0
-1.0,-1.0,2.0,1.0,4.0,5.0,0.0,-1.0,1650823588191134.0
0.0,2.0,3.0,-1.0,-1.0,-2.0,0.0,-1.0,1650823588191134.0
1.0,-2.0,-2.0,-4.0,-8.0,-11.0,-4.0,0.0,1650823588192146.0
-1.0,-2.0,0.0,3.0,3.0,7.0,2.0,-1.0,1650823588192146.0
-1.0,1.0,0.0,2.0,5.0,5.0,4.0,1.0,1650823588214052.0
0.0,-1.0,0.0,-1.0,-3.0,-5.0,-4.0,0.0,1650823588214052.0
0.0,-1.0,-1.0,-1.0,-1.0,3.0,-2.0,-1.0,1650823588214052.0
3.0,-1.0,-2.0,-3.0,-3.0,-7.0,-4.0,-2.0,1650823588214052.0
-2.0,-1.0,-5.0,-5.0,-7.0,-2.0,-2.0,-2.0,1650823588227552.0
-2.0,0.0,-1.0,2.0,-2.0,2.0,2.0,0.0,1650823588227552.0
-1.0,1.0,2.0,3.0,7.0,5.0,2.0,-2.0,1650823588236527.0
-1.0,-3.0,-13.0,-8.0,-3.0,-1.0,-2.0,0.0,1650823588236527.0
1.0,0.0,1.0,2.0,-1.0,0.0,1.0,-2.0,1650823588251516.0
1.0,0.0,1.0,3.0,-2.0,-2.0,-1.0,-1.0,1650823588251516.0
-1.0,2.0,-2.0,-1.0,-1.0,-1.0,0.0,0.0,1650823588251516.0
-2.0,-2.0,-3.0,-1.0,0.0,-1.0,1.0,0.0,1650823588251516.0
-1.0,-2.0,-1.0,-3.0,-5.0,-2.0,-2.0,-1.0,1650823588273430.0
-1.0,0.0,-1.0,1.0,3.0,-1.0,-2.0,-1.0,1650823588273430.0
0.0,-1.0,0.0,0.0,-4.0,0.0,1.0,-1.0,1650823588274427.0
1.0,2.0,9.0,11.0,5.0,3.0,2.0,1.0,1650823588274427.0
-1.0,-2.0,0.0,2.0,2.0,-2.0,0.0,0.0,1650823588288401.0
0.0,-1.0,-2.0,-6.0,-7.0,-3.0,-2.0,0.0,1650823588288401.0
0.0,-2.0,0.0,-1.0,0.0,-2.0,-2.0,0.0,1650823588303383.0
0.0,-1.0,4.0,2.0,6.0,0.0,0.0,-2.0,1650823588303383.0
2.0,-2.0,-7.0,-7.0,-7.0,-3.0,-1.0,0.0,1650823588311329.0
-1.0,2.0,5.0,2.0,2.0,1.0,3.0,-1.0,1650823588311329.0
-2.0,-1.0,-1.0,-2.0,3.0,1.0,1.0,-1.0,1650823588312325.0
0.0,-2.0,-1.0,-3.0,-6.0,-5.0,-4.0,-1.0,1650823588312325.0
-1.0,-2.0,-3.0,-4.0,-2.0,-4.0,-5.0,-1.0,1650823588333328.0
-1.0,0.0,3.0,1.0,6.0,2.0,3.0,0.0,1650823588333328.0
2.0,1.0,-1.0,3.0,-3.0,-2.0,2.0,2.0,1650823588334305.0
-1.0,-1.0,1.0,3.0,11.0,5.0,-1.0,0.0,1650823588334305.0
-1.0,-1.0,4.0,3.0,-5.0,-6.0,-1.0,0.0,1650823588348288.0
0.0,0.0,1.0,0.0,-7.0,-3.0,-2.0,0.0,1650823588348288.0
-2.0,-2.0,-15.0,-5.0,-1.0,-1.0,-2.0,-3.0,1650823588356245.0
-2.0,-2.0,7.0,0.0,7.0,0.0,0.0,-2.0,1650823588356245.0
-2.0,2.0,1.0,0.0,-1.0,6.0,2.0,1.0,1650823588371226.0
0.0,-2.0,-2.0,-2.0,-1.0,-2.0,-2.0,-1.0,1650823588371226.0
1.0,3.0,4.0,2.0,0.0,0.0,-1.0,2.0,1650823588372204.0
-1.0,-2.0,-3.0,0.0,-2.0,-5.0,-1.0,0.0,1650823588372204.0
-4.0,-6.0,-4.0,-11.0,-4.0,-2.0,-4.0,-2.0,1650823588393169.0
-2.0,-1.0,2.0,2.0,0.0,4.0,-2.0,-1.0,1650823588393169.0
0.0,3.0,6.0,8.0,8.0,4.0,6.0,0.0,1650823588394144.0
-1.0,0.0,0.0,1.0,-2.0,-1.0,0.0,1.0,1650823588394144.0
1.0,1.0,0.0,4.0,9.0,7.0,2.0,1.0,1650823588408107.0
2.0,0.0,0.0,4.0,-9.0,-11.0,0.0,0.0,1650823588408107.0
-2.0,-2.0,0.0,-9.0,3.0,2.0,-2.0,-1.0,1650823588416106.0
0.0,0.0,1.0,-2.0,-7.0,-3.0,-1.0,-1.0,1650823588416106.0
-1.0,-2.0,-3.0,-4.0,0.0,-2.0,-3.0,-2.0,1650823588431077.0
-1.0,-2.0,-1.0,0.0,9.0,5.0,1.0,-1.0,1650823588431077.0
0.0,-1.0,0.0,1.0,-9.0,-6.0,0.0,-2.0,1650823588432044.0
1.0,2.0,0.0,0.0,0.0,1.0,0.0,1.0,1650823588432044.0
-2.0,0.0,-3.0,-1.0,-2.0,-4.0,0.0,-1.0,1650823588461963.0
0.0,-2.0,-5.0,-7.0,3.0,1.0,-4.0,0.0,1650823588461963.0
-2.0,-3.0,0.0,2.0,-2.0,3.0,1.0,0.0,1650823588462962.0
0.0,0.0,0.0,-1.0,-3.0,-3.0,0.0,-2.0,1650823588462962.0
0.0,1.0,2.0,3.0,-1.0,2.0,-2.0,-1.0,1650823588467947.0
-1.0,-1.0,1.0,-5.0,-1.0,-3.0,-1.0,-2.0,1650823588467947.0
-2.0,-4.0,-7.0,-8.0,-4.0,-5.0,-4.0,0.0,1650823588475927.0
-4.0,2.0,5.0,9.0,13.0,15.0,5.0,0.0,1650823588475927.0
1.0,1.0,5.0,6.0,-2.0,-6.0,4.0,2.0,1650823588490917.0
-1.0,-3.0,-7.0,-5.0,-4.0,-2.0,-3.0,0.0,1650823588490917.0
3.0,-1.0,-4.0,0.0,1.0,-4.0,-3.0,-1.0,1650823588491890.0
2.0,-1.0,-5.0,-4.0,-6.0,-4.0,-4.0,1.0,1650823588491890.0
-1.0,-2.0,0.0,1.0,-2.0,-2.0,-2.0,-1.0,1650823588513864.0
0.0,1.0,9.0,0.0,1.0,1.0,0.0,0.0,1650823588513864.0
0.0,-1.0,-2.0,-2.0,-4.0,4.0,1.0,1.0,1650823588514823.0
-1.0,0.0,0.0,2.0,8.0,-2.0,-3.0,-1.0,1650823588514823.0
1.0,2.0,2.0,1.0,-7.0,3.0,2.0,0.0,1650823588527788.0
-2.0,-4.0,-9.0,-10.0,-8.0,-4.0,-1.0,-3.0,1650823588527788.0
-2.0,0.0,8.0,7.0,12.0,7.0,5.0,0.0,1650823588535787.0
0.0,-2.0,0.0,-5.0,-8.0,-5.0,-1.0,1.0,1650823588535787.0
0.0,-1.0,-3.0,-6.0,-3.0,-6.0,-5.0,-1.0,1650823588550757.0
-1.0,0.0,-3.0,-3.0,-2.0,2.0,-2.0,-1.0,1650823588550757.0
-1.0,1.0,5.0,7.0,5.0,3.0,2.0,-2.0,1650823588551723.0
0.0,-2.0,-4.0,-2.0,0.0,8.0,-2.0,0.0,1650823588551723.0
-1.0,-3.0,-4.0,-6.0,-6.0,-16.0,-2.0,1.0,1650823588581682.0
0.0,1.0,3.0,5.0,-4.0,0.0,1.0,-1.0,1650823588581682.0
0.0,-2.0,-1.0,-1.0,6.0,5.0,-1.0,0.0,1650823588582641.0
-1.0,0.0,2.0,-2.0,-8.0,-7.0,-2.0,-1.0,1650823588582641.0
-1.0,-2.0,-3.0,0.0,9.0,11.0,1.0,-3.0,1650823588596643.0
-1.0,1.0,-1.0,3.0,3.0,1.0,1.0,0.0,1650823588596643.0
-2.0,-3.0,1.0,-3.0,-6.0,-8.0,-2.0,0.0,1650823588597601.0
0.0,-1.0,-4.0,-3.0,-4.0,-5.0,-3.0,-1.0,1650823588597601.0
0.0,-2.0,-2.0,-1.0,1.0,3.0,1.0,0.0,1650823588611563.0
-2.0,1.0,0.0,2.0,1.0,1.0,2.0,0.0,1650823588611563.0
0.0,-1.0,-2.0,-4.0,-5.0,-1.0,-3.0,0.0,1650823588611563.0
1.0,-2.0,-2.0,1.0,3.0,-3.0,-1.0,-1.0,1650823588611563.0
-3.0,-2.0,3.0,-3.0,-3.0,5.0,1.0,-3.0,1650823588633574.0
0.0,1.0,2.0,1.0,-1.0,0.0,1.0,0.0,1650823588633574.0
-1.0,3.0,1.0,3.0,0.0,-3.0,-2.0,-3.0,1650823588634548.0
-2.0,-5.0,-15.0,-10.0,-6.0,0.0,0.0,-1.0,1650823588634548.0
1.0,0.0,-7.0,2.0,5.0,0.0,2.0,1.0,1650823588656480.0
0.0,2.0,7.0,4.0,6.0,5.0,3.0,2.0,1650823588656480.0
0.0,-3.0,-5.0,-2.0,-5.0,-4.0,-3.0,1.0,1650823588657490.0
-1.0,3.0,3.0,-4.0,-7.0,-5.0,-3.0,1.0,1650823588657490.0
-1.0,2.0,3.0,3.0,0.0,3.0,-3.0,-1.0,1650823588671473.0
-1.0,-2.0,-3.0,1.0,-1.0,-1.0,-1.0,0.0,1650823588671473.0
2.0,1.0,4.0,0.0,-1.0,-2.0,-2.0,1.0,1650823588671473.0
-1.0,0.0,2.0,4.0,6.0,-1.0,3.0,-1.0,1650823588671473.0
-2.0,-1.0,-1.0,0.0,-5.0,-3.0,2.0,-1.0,1650823588701399.0
0.0,-2.0,-1.0,-1.0,-2.0,-2.0,-1.0,0.0,1650823588701399.0
0.0,-2.0,-3.0,-4.0,-4.0,-1.0,-1.0,-1.0,1650823588702358.0
-1.0,-3.0,-1.0,-1.0,1.0,4.0,1.0,-1.0,1650823588702358.0
0.0,1.0,-3.0,-3.0,-11.0,-4.0,-2.0,0.0,1650823588716359.0
0.0,-1.0,1.0,0.0,-1.0,-2.0,-3.0,1.0,1650823588716359.0
-1.0,1.0,1.0,0.0,5.0,6.0,2.0,0.0,1650823588717318.0
-1.0,-2.0,-7.0,1.0,1.0,2.0,2.0,0.0,1650823588717318.0
1.0,2.0,6.0,2.0,5.0,1.0,0.0,1.0,1650823588731319.0
-1.0,-4.0,-12.0,-7.0,-11.0,-3.0,-2.0,-2.0,1650823588731319.0
0.0,1.0,-1.0,-8.0,-7.0,-8.0,-1.0,1.0,1650823588732311.0
1.0,3.0,14.0,18.0,4.0,2.0,1.0,0.0,1650823588732311.0
-2.0,-3.0,-11.0,-8.0,11.0,0.0,1.0,1.0,1650823588753241.0
-3.0,-6.0,-10.0,-7.0,-8.0,-1.0,-2.0,-2.0,1650823588753241.0
-1.0,-1.0,-2.0,-2.0,-1.0,1.0,-1.0,0.0,1650823588754219.0
0.0,1.0,2.0,-4.0,-1.0,-4.0,0.0,1.0,1650823588754219.0
0.0,0.0,7.0,1.0,-10.0,-5.0,-2.0,0.0,1650823588777190.0
1.0,2.0,3.0,1.0,3.0,-3.0,-1.0,2.0,1650823588777190.0
-3.0,-1.0,-1.0,0.0,4.0,2.0,3.0,-1.0,1650823588777190.0
-1.0,-1.0,3.0,3.0,-1.0,3.0,1.0,-1.0,1650823588777190.0
2.0,0.0,1.0,1.0,6.0,2.0,0.0,-1.0,1650823588791159.0
1.0,0.0,-1.0,-3.0,-5.0,-2.0,-3.0,0.0,1650823588791159.0
1.0,-1.0,2.0,0.0,-3.0,0.0,-1.0,0.0,1650823588792145.0
-1.0,-3.0,-6.0,-5.0,-5.0,-3.0,-3.0,0.0,1650823588792145.0
0.0,0.0,0.0,5.0,6.0,0.0,1.0,-2.0,1650823588814063.0
1.0,0.0,5.0,4.0,5.0,1.0,1.0,-1.0,1650823588814063.0
-1.0,0.0,-6.0,-3.0,0.0,-1.0,0.0,-2.0,1650823588814063.0
-1.0,-2.0,-2.0,-6.0,-7.0,-2.0,-3.0,-1.0,1650823588814063.0
-2.0,0.0,-1.0,-5.0,5.0,-3.0,-3.0,-1.0,1650823588836545.0
1.0,0.0,2.0,1.0,-12.0,-8.0,-1.0,-1.0,1650823588836545.0
1.0,-2.0,0.0,-1.0,0.0,-1.0,-2.0,0.0,1650823588836545.0
0.0,2.0,3.0,4.0,4.0,6.0,3.0,-2.0,1650823588836545.0
1.0,-1.0,-1.0,3.0,1.0,6.0,1.0,0.0,1650823588851530.0
-1.0,3.0,1.0,5.0,7.0,7.0,1.0,-1.0,1650823588851530.0
1.0,-2.0,18.0,3.0,-4.0,-2.0,1.0,-1.0,1650823588851530.0
-1.0,-1.0,-16.0,-8.0,-7.0,-9.0,-6.0,0.0,1650823588851530.0
0.0,-1.0,-6.0,-3.0,-4.0,1.0,-1.0,0.0,1650823588873626.0
-3.0,-1.0,2.0,-7.0,3.0,2.0,-1.0,-2.0,1650823588873626.0
-1.0,0.0,2.0,3.0,-5.0,-3.0,-1.0,0.0,1650823588874636.0
0.0,2.0,6.0,2.0,-4.0,-7.0,-2.0,-1.0,1650823588874636.0
0.0,0.0,-1.0,1.0,0.0,1.0,0.0,1.0,1650823588896615.0
0.0,-1.0,1.0,0.0,2.0,0.0,0.0,0.0,1650823588896615.0
-2.0,-3.0,-10.0,-8.0,4.0,5.0,1.0,-1.0,1650823588896615.0
0.0,-3.0,-1.0,-2.0,-2.0,1.0,0.0,-1.0,1650823588896615.0
-1.0,-1.0,1.0,3.0,-1.0,-3.0,0.0,0.0,1650823588911576.0
-1.0,-2.0,-5.0,-3.0,-2.0,-4.0,-2.0,-2.0,1650823588911576.0
0.0,-2.0,-5.0,0.0,3.0,2.0,1.0,-1.0,1650823588911576.0
1.0,2.0,2.0,4.0,7.0,4.0,1.0,1.0,1650823588911576.0
1.0,1.0,6.0,-2.0,-3.0,-6.0,-2.0,0.0,1650823588933543.0
1.0,0.0,-5.0,0.0,-4.0,1.0,0.0,-2.0,1650823588933543.0
-1.0,-3.0,-1.0,-6.0,-12.0,-5.0,-2.0,-1.0,1650823588934514.0
-1.0,2.0,7.0,8.0,5.0,1.0,5.0,-1.0,1650823588934514.0
1.0,-1.0,5.0,4.0,2.0,1.0,-1.0,-1.0,1650823588956475.0
-2.0,-1.0,-6.0,-5.0,1.0,-1.0,-2.0,0.0,1650823588956475.0
-1.0,-2.0,-15.0,-10.0,4.0,4.0,-4.0,0.0,1650823588956475.0
0.0,-2.0,-2.0,-4.0,-15.0,-14.0,0.0,1.0,1650823588956475.0
-1.0,1.0,3.0,1.0,0.0,-1.0,-1.0,0.0,1650823588971449.0
-1.0,-1.0,-1.0,0.0,0.0,-3.0,0.0,-1.0,1650823588971449.0
0.0,2.0,-2.0,3.0,4.0,5.0,2.0,-2.0,1650823588971449.0
0.0,-1.0,3.0,-2.0,1.0,1.0,-3.0,0.0,1650823588971449.0
-1.0,-2.0,-7.0,-3.0,-5.0,-6.0,-2.0,-2.0,1650823588993356.0
0.0,1.0,4.0,9.0,5.0,10.0,2.0,1.0,1650823588993356.0
-2.0,-1.0,2.0,-4.0,-3.0,-4.0,-2.0,-1.0,1650823589001368.0
0.0,-4.0,-5.0,-5.0,-5.0,-2.0,-3.0,0.0,1650823589001368.0
-1.0,-1.0,0.0,2.0,5.0,1.0,-1.0,-1.0,1650823589016393.0
-1.0,-1.0,13.0,-1.0,3.0,-1.0,-1.0,-1.0,1650823589016393.0
1.0,1.0,0.0,4.0,-7.0,0.0,3.0,-2.0,1650823589017350.0
0.0,0.0,1.0,6.0,-1.0,-7.0,-2.0,1.0,1650823589017350.0
-1.0,-2.0,1.0,1.0,4.0,3.0,-1.0,-2.0,1650823589039322.0
1.0,1.0,-4.0,1.0,0.0,-3.0,3.0,1.0,1650823589039322.0
0.0,0.0,-3.0,-4.0,1.0,-2.0,-1.0,1.0,1650823589040316.0
-2.0,-5.0,-10.0,-12.0,-11.0,-9.0,-5.0,-5.0,1650823589040316.0
-1.0,2.0,6.0,3.0,1.0,6.0,0.0,2.0,1650823589053275.0
-1.0,-1.0,3.0,-3.0,0.0,0.0,-1.0,0.0,1650823589053275.0
-1.0,1.0,5.0,0.0,-2.0,-1.0,-1.0,1.0,1650823589061233.0
0.0,1.0,-4.0,0.0,6.0,10.0,1.0,1.0,1650823589061233.0
0.0,2.0,2.0,3.0,4.0,12.0,1.0,0.0,1650823589076214.0
0.0,-1.0,0.0,0.0,-13.0,-19.0,0.0,5.0,1650823589076214.0
-1.0,-3.0,-8.0,-5.0,-4.0,-7.0,-6.0,-9.0,1650823589077211.0
-1.0,1.0,4.0,1.0,2.0,7.0,0.0,-3.0,1650823589077211.0
-1.0,-1.0,1.0,3.0,7.0,0.0,0.0,-3.0,1650823589099174.0
2.0,2.0,-2.0,1.0,-3.0,8.0,1.0,1.0,1650823589099174.0
1.0,-3.0,1.0,2.0,4.0,0.0,4.0,9.0,1650823589100129.0
0.0,1.0,1.0,-2.0,-3.0,0.0,-2.0,1.0,1650823589100129.0
-1.0,-1.0,-3.0,-6.0,-7.0,-3.0,0.0,-2.0,1650823589122090.0
-2.0,-1.0,-6.0,-1.0,3.0,0.0,-3.0,-4.0,1650823589122090.0
0.0,-1.0,1.0,4.0,-2.0,-2.0,0.0,2.0,1650823589122090.0
-3.0,-1.0,1.0,7.0,2.0,2.0,0.0,-4.0,1650823589122090.0
-1.0,-1.0,-4.0,-4.0,-1.0,-5.0,1.0,2.0,1650823589136155.0
1.0,2.0,5.0,4.0,8.0,4.0,0.0,1.0,1650823589136155.0
0.0,3.0,5.0,3.0,-3.0,1.0,0.0,-2.0,1650823589137119.0
0.0,-11.0,-25.0,-15.0,-8.0,-5.0,-1.0,1.0,1650823589137119.0
-2.0,0.0,-3.0,1.0,-9.0,0.0,-1.0,-3.0,1650823589159088.0
-8.0,-9.0,-4.0,-11.0,4.0,-6.0,-4.0,-9.0,1650823589159088.0
5.0,20.0,17.0,12.0,-1.0,7.0,3.0,1.0,1650823589160057.0
-5.0,-28.0,-19.0,0.0,11.0,-3.0,9.0,24.0,1650823589160057.0
-1.0,-4.0,-10.0,-5.0,-16.0,-11.0,-5.0,-56.0,1650823589182038.0
-2.0,-4.0,-29.0,-8.0,0.0,7.0,-11.0,-19.0,1650823589182038.0
2.0,12.0,-1.0,-2.0,2.0,-1.0,1.0,6.0,1650823589183031.0
-4.0,2.0,11.0,-2.0,0.0,2.0,-6.0,-29.0,1650823589183031.0
-1.0,13.0,16.0,5.0,2.0,4.0,3.0,7.0,1650823589195962.0
4.0,-12.0,4.0,6.0,9.0,3.0,0.0,5.0,1650823589195962.0
0.0,3.0,-9.0,-2.0,-6.0,-3.0,-2.0,6.0,1650823589196960.0
1.0,10.0,15.0,6.0,0.0,0.0,-1.0,2.0,1650823589196960.0
0.0,-1.0,-3.0,-1.0,-3.0,-2.0,-2.0,4.0,1650823589218933.0
-3.0,1.0,-11.0,-12.0,-8.0,-4.0,-3.0,-9.0,1650823589218933.0
0.0,-5.0,14.0,8.0,7.0,1.0,5.0,10.0,1650823589219907.0
-7.0,-18.0,-35.0,-12.0,0.0,1.0,-2.0,-13.0,1650823589219907.0
0.0,10.0,-9.0,1.0,-1.0,2.0,-10.0,5.0,1650823589241838.0
1.0,12.0,9.0,-19.0,-10.0,-7.0,6.0,1.0,1650823589241838.0
6.0,-20.0,-14.0,9.0,9.0,2.0,13.0,33.0,1650823589242878.0
-14.0,15.0,36.0,14.0,-4.0,5.0,-9.0,-23.0,1650823589242878.0
-10.0,15.0,25.0,-2.0,-1.0,0.0,-3.0,1.0,1650823589255829.0
0.0,-16.0,-82.0,-27.0,-4.0,-5.0,-10.0,-29.0,1650823589255829.0
2.0,17.0,5.0,-7.0,-2.0,-9.0,-13.0,-2.0,1650823589256799.0
28.0,24.0,53.0,13.0,1.0,1.0,21.0,74.0,1650823589256799.0
-6.0,3.0,2.0,12.0,12.0,11.0,-2.0,-18.0,1650823589279738.0
-9.0,-8.0,-23.0,-6.0,-12.0,-6.0,9.0,9.0,1650823589279738.0
-3.0,-3.0,-1.0,14.0,4.0,-2.0,-13.0,-40.0,1650823589279738.0
4.0,25.0,37.0,0.0,-1.0,-2.0,-9.0,-5.0,1650823589279738.0
7.0,-8.0,17.0,12.0,4.0,11.0,2.0,6.0,1650823589301679.0
4.0,-2.0,18.0,-2.0,-9.0,-9.0,7.0,11.0,1650823589301679.0
-1.0,14.0,-3.0,8.0,16.0,16.0,0.0,0.0,1650823589302676.0
-1.0,4.0,-15.0,-2.0,-5.0,-11.0,-3.0,-24.0,1650823589302676.0
7.0,3.0,6.0,-8.0,-11.0,-12.0,-5.0,-4.0,1650823589315642.0
23.0,0.0,47.0,43.0,18.0,14.0,5.0,23.0,1650823589315642.0
-10.0,0.0,-7.0,-15.0,-13.0,-3.0,5.0,32.0,1650823589316639.0
1.0,-6.0,19.0,-15.0,-2.0,10.0,4.0,-8.0,1650823589316639.0
-23.0,0.0,-52.0,-37.0,-15.0,-22.0,-34.0,-66.0,1650823589339578.0
-17.0,-68.0,-16.0,2.0,-2.0,-8.0,-13.0,-11.0,1650823589339578.0
18.0,1.0,40.0,36.0,3.0,3.0,-4.0,-15.0,1650823589339578.0
-3.0,42.0,7.0,9.0,10.0,7.0,7.0,12.0,1650823589339578.0
-8.0,-56.0,-70.0,-35.0,-16.0,-10.0,-3.0,10.0,1650823589361519.0
-5.0,5.0,13.0,-3.0,-6.0,1.0,-4.0,-32.0,1650823589361519.0
2.0,15.0,-27.0,-13.0,-2.0,-2.0,6.0,-51.0,1650823589362517.0
-34.0,-73.0,7.0,4.0,0.0,-4.0,-1.0,42.0,1650823589362517.0
23.0,8.0,21.0,16.0,13.0,7.0,35.0,116.0,1650823589376479.0
-7.0,55.0,67.0,23.0,1.0,-1.0,-21.0,-33.0,1650823589376479.0
-21.0,-89.0,-63.0,-58.0,-20.0,-17.0,-26.0,-15.0,1650823589377477.0
24.0,44.0,30.0,36.0,3.0,2.0,-1.0,-17.0,1650823589377477.0
20.0,29.0,-50.0,-17.0,3.0,4.0,15.0,51.0,1650823589399417.0
-15.0,26.0,48.0,-13.0,-3.0,0.0,7.0,20.0,1650823589399417.0
9.0,16.0,-31.0,14.0,1.0,2.0,17.0,-1.0,1650823589400415.0
18.0,0.0,-59.0,-41.0,-4.0,-6.0,-4.0,19.0,1650823589400415.0
-10.0,-87.0,-6.0,27.0,4.0,2.0,-6.0,-87.0,1650823589421358.0
16.0,13.0,8.0,-33.0,-8.0,-2.0,-11.0,91.0,1650823589421358.0
-11.0,4.0,6.0,20.0,6.0,-2.0,-11.0,-40.0,1650823589422356.0
-3.0,-39.0,-96.0,-35.0,-10.0,-5.0,7.0,-24.0,1650823589422356.0
8.0,28.0,17.0,29.0,9.0,9.0,9.0,-22.0,1650823589436319.0
16.0,61.0,61.0,47.0,11.0,6.0,7.0,-28.0,1650823589436319.0
-35.0,-59.0,-7.0,-71.0,-19.0,-12.0,15.0,4.0,1650823589437324.0
10.0,11.0,58.0,55.0,20.0,19.0,-35.0,17.0,1650823589437324.0
1.0,29.0,-18.0,-51.0,-18.0,-21.0,-27.0,-40.0,1650823589459257.0
-29.0,-81.0,-57.0,7.0,3.0,-3.0,-19.0,-98.0,1650823589459257.0
10.0,27.0,-24.0,50.0,14.0,6.0,-5.0,41.0,1650823589460255.0
-57.0,-39.0,-39.0,-44.0,-22.0,-14.0,0.0,-102.0,1650823589460255.0
4.0,-11.0,-21.0,-46.0,-23.0,-11.0,12.0,77.0,1650823589482198.0
34.0,30.0,47.0,58.0,27.0,21.0,12.0,59.0,1650823589482198.0
-18.0,-36.0,-51.0,-66.0,-10.0,0.0,2.0,-14.0,1650823589482198.0
4.0,13.0,82.0,34.0,14.0,5.0,7.0,-7.0,1650823589482198.0
-2.0,23.0,29.0,36.0,9.0,13.0,11.0,54.0,1650823589496160.0
28.0,17.0,-70.0,-49.0,-20.0,-16.0,-13.0,-23.0,1650823589496160.0
5.0,-2.0,18.0,11.0,10.0,0.0,12.0,27.0,1650823589497157.0
9.0,3.0,-20.0,6.0,-2.0,5.0,8.0,71.0,1650823589497157.0
-37.0,8.0,63.0,12.0,-4.0,-5.0,9.0,-41.0,1650823589519138.0
15.0,42.0,21.0,24.0,2.0,3.0,11.0,2.0,1650823589519138.0
1.0,-7.0,15.0,11.0,6.0,0.0,-4.0,25.0,1650823589520126.0
4.0,6.0,-10.0,-13.0,-2.0,-11.0,-36.0,-84.0,1650823589520126.0
7.0,-36.0,-31.0,8.0,16.0,16.0,42.0,35.0,1650823589542181.0
-16.0,-30.0,14.0,26.0,4.0,5.0,6.0,-18.0,1650823589542181.0
16.0,65.0,44.0,-23.0,-16.0,-12.0,-22.0,-5.0,1650823589542181.0
2.0,8.0,14.0,14.0,2.0,0.0,22.0,40.0,1650823589542181.0
16.0,6.0,12.0,36.0,10.0,13.0,7.0,30.0,1650823589555671.0
-2.0,8.0,22.0,7.0,4.0,0.0,-7.0,-82.0,1650823589555671.0
-5.0,15.0,6.0,-40.0,-17.0,-12.0,-11.0,-5.0,1650823589556636.0
9.0,-23.0,-1.0,5.0,-9.0,-2.0,1.0,28.0,1650823589556636.0
34.0,51.0,23.0,34.0,35.0,17.0,-3.0,-3.0,1650823589580572.0
-21.0,22.0,-39.0,-56.0,-16.0,-7.0,9.0,45.0,1650823589580572.0
17.0,38.0,65.0,18.0,12.0,9.0,9.0,1.0,1650823589582567.0
-9.0,-22.0,-13.0,20.0,-2.0,3.0,8.0,-10.0,1650823589582567.0
12.0,88.0,52.0,10.0,-6.0,-4.0,-5.0,51.0,1650823589600537.0
-3.0,9.0,-22.0,2.0,5.0,4.0,5.0,15.0,1650823589600537.0
14.0,-4.0,18.0,19.0,-2.0,-1.0,3.0,26.0,1650823589609495.0
-2.0,-31.0,-29.0,-32.0,-5.0,-2.0,1.0,29.0,1650823589609495.0
-19.0,-45.0,2.0,8.0,3.0,-1.0,-31.0,-94.0,1650823589615517.0
-13.0,-27.0,-37.0,-11.0,3.0,3.0,27.0,74.0,1650823589615517.0
37.0,20.0,16.0,10.0,-7.0,5.0,1.0,9.0,1650823589624454.0
-34.0,21.0,-5.0,-9.0,6.0,4.0,-18.0,-55.0,1650823589624454.0
7.0,6.0,-14.0,-19.0,-9.0,-15.0,-32.0,-61.0,1650823589639501.0
-26.0,-45.0,33.0,13.0,8.0,-3.0,-3.0,24.0,1650823589639501.0
-11.0,-6.0,-37.0,7.0,-9.0,4.0,11.0,-24.0,1650823589640492.0
-13.0,-21.0,-19.0,6.0,1.0,-4.0,-5.0,-25.0,1650823589640492.0
-32.0,-99.0,14.0,-21.0,-31.0,-20.0,-6.0,29.0,1650823589661429.0
14.0,16.0,25.0,-30.0,1.0,3.0,-1.0,-8.0,1650823589661429.0
-17.0,1.0,-68.0,-40.0,7.0,6.0,0.0,6.0,1650823589663413.0
-22.0,3.0,-22.0,7.0,-3.0,2.0,-1.0,8.0,1650823589663413.0
-4.0,7.0,-49.0,-39.0,-11.0,-19.0,0.0,-10.0,1650823589675371.0
32.0,28.0,50.0,57.0,-8.0,1.0,8.0,11.0,1650823589675371.0
-15.0,14.0,40.0,7.0,2.0,0.0,-4.0,-1.0,1650823589691456.0
6.0,27.0,9.0,-7.0,2.0,1.0,19.0,66.0,1650823589691456.0
4.0,-7.0,-15.0,5.0,3.0,0.0,-44.0,-71.0,1650823589699502.0
1.0,12.0,-5.0,8.0,8.0,4.0,7.0,56.0,1650823589699502.0
5.0,-38.0,-16.0,5.0,-3.0,3.0,23.0,88.0,1650823589700433.0
11.0,12.0,4.0,-3.0,0.0,-7.0,-11.0,-28.0,1650823589700433.0
27.0,47.0,43.0,18.0,11.0,15.0,31.0,3.0,1650823589721690.0
1.0,47.0,33.0,12.0,5.0,-1.0,-16.0,-19.0,1650823589721690.0
-13.0,-28.0,-12.0,26.0,10.0,0.0,-12.0,-66.0,1650823589723655.0
13.0,-8.0,4.0,-37.0,-20.0,-4.0,12.0,29.0,1650823589723655.0
-1.0,41.0,-37.0,-41.0,-13.0,2.0,11.0,55.0,1650823589735694.0
4.0,-13.0,28.0,-2.0,5.0,1.0,10.0,5.0,1650823589735694.0
5.0,19.0,-4.0,21.0,21.0,11.0,-1.0,-13.0,1650823589744613.0
20.0,30.0,-10.0,-36.0,-12.0,-8.0,-2.0,6.0,1650823589744613.0
-9.0,-4.0,52.0,22.0,4.0,-1.0,8.0,19.0,1650823589759590.0
-11.0,-33.0,-68.0,-34.0,-12.0,-2.0,-5.0,-19.0,1650823589759590.0
11.0,9.0,35.0,25.0,-2.0,-3.0,-16.0,-63.0,1650823589760556.0
10.0,8.0,-9.0,16.0,11.0,7.0,28.0,72.0,1650823589760556.0
-1.0,-17.0,13.0,2.0,-7.0,-5.0,-14.0,-26.0,1650823589781500.0
-19.0,-16.0,-32.0,-9.0,-10.0,-5.0,-28.0,-16.0,1650823589781500.0
-1.0,-4.0,2.0,-11.0,-7.0,-6.0,16.0,39.0,1650823589783516.0
37.0,55.0,49.0,20.0,11.0,10.0,50.0,67.0,1650823589783516.0
-22.0,-76.0,-45.0,9.0,2.0,-4.0,-11.0,-45.0,1650823589795492.0
3.0,-7.0,-42.0,-2.0,10.0,4.0,8.0,49.0,1650823589795492.0
-25.0,-22.0,-81.0,-55.0,-15.0,-9.0,-23.0,-34.0,1650823589804444.0
10.0,57.0,47.0,8.0,-2.0,-4.0,-9.0,-7.0,1650823589804444.0
-17.0,-42.0,-6.0,1.0,-3.0,-1.0,1.0,-34.0,1650823589819420.0
-4.0,-33.0,-29.0,-28.0,-2.0,-6.0,-2.0,-9.0,1650823589819420.0
2.0,39.0,65.0,34.0,6.0,7.0,10.0,20.0,1650823589820397.0
14.0,47.0,23.0,26.0,20.0,8.0,-5.0,-40.0,1650823589820397.0
-7.0,5.0,-12.0,-28.0,-10.0,-6.0,-1.0,18.0,1650823589841340.0
27.0,37.0,11.0,3.0,-6.0,-3.0,1.0,-5.0,1650823589841340.0
-7.0,-3.0,20.0,15.0,1.0,0.0,9.0,46.0,1650823589849321.0
-10.0,-7.0,-2.0,4.0,-5.0,-5.0,-14.0,-41.0,1650823589849321.0
16.0,26.0,30.0,20.0,11.0,13.0,33.0,10.0,1650823589855345.0
-21.0,-21.0,-19.0,-17.0,-11.0,-3.0,-13.0,-29.0,1650823589855345.0
20.0,10.0,16.0,5.0,-7.0,-8.0,-4.0,-16.0,1650823589864279.0
2.0,-33.0,-13.0,15.0,5.0,6.0,1.0,-35.0,1650823589864279.0
-16.0,-31.0,-35.0,-45.0,-14.0,-13.0,-11.0,-19.0,1650823589878347.0
-6.0,1.0,42.0,13.0,2.0,1.0,29.0,-7.0,1650823589878347.0
6.0,26.0,-43.0,11.0,12.0,4.0,-8.0,-6.0,1650823589887324.0
-32.0,-1.0,4.0,-29.0,-17.0,-11.0,-29.0,-74.0,1650823589887324.0
9.0,7.0,16.0,37.0,10.0,7.0,5.0,10.0,1650823589901350.0
-7.0,11.0,-73.0,-39.0,-10.0,-6.0,-8.0,-7.0,1650823589901350.0
5.0,34.0,17.0,22.0,-10.0,-6.0,1.0,11.0,1650823589903319.0
-16.0,-63.0,-40.0,-5.0,2.0,-5.0,-14.0,-17.0,1650823589903319.0
1.0,-39.0,-49.0,-38.0,0.0,4.0,7.0,50.0,1650823589915313.0
-24.0,-23.0,-19.0,3.0,1.0,-4.0,-5.0,0.0,1650823589915313.0
-4.0,-24.0,-18.0,3.0,-1.0,7.0,7.0,-16.0,1650823589931638.0
6.0,-27.0,-10.0,6.0,-4.0,-3.0,16.0,68.0,1650823589931638.0
-3.0,34.0,35.0,35.0,12.0,6.0,-9.0,1.0,1650823589939684.0
16.0,11.0,5.0,-1.0,7.0,7.0,10.0,12.0,1650823589939684.0
19.0,-23.0,11.0,-14.0,-9.0,-6.0,-9.0,-50.0,1650823589940618.0
-3.0,7.0,25.0,20.0,9.0,7.0,13.0,14.0,1650823589940618.0
-33.0,-23.0,-55.0,-29.0,-3.0,-6.0,7.0,-65.0,1650823589969535.0
4.0,8.0,25.0,16.0,0.0,4.0,-23.0,-18.0,1650823589969535.0
-4.0,-2.0,19.0,-7.0,-3.0,-11.0,2.0,28.0,1650823589970543.0
-8.0,-76.0,-68.0,-9.0,-6.0,-3.0,-5.0,-9.0,1650823589970543.0
6.0,0.0,40.0,14.0,4.0,6.0,5.0,-5.0,1650823589975519.0
11.0,19.0,-34.0,-22.0,-3.0,2.0,3.0,-4.0,1650823589975519.0
-15.0,-26.0,-13.0,-2.0,-6.0,-4.0,-6.0,-15.0,1650823589984501.0
5.0,-4.0,-28.0,6.0,-4.0,-8.0,-9.0,3.0,1650823589984501.0
21.0,76.0,46.0,-11.0,18.0,18.0,8.0,22.0,1650823590000470.0
4.0,1.0,2.0,19.0,3.0,0.0,9.0,28.0,1650823590000470.0
-5.0,-4.0,16.0,-7.0,-1.0,-2.0,-11.0,7.0,1650823590001452.0
-2.0,2.0,2.0,-5.0,-2.0,-3.0,-8.0,-27.0,1650823590001452.0
22.0,5.0,-17.0,19.0,-4.0,-2.0,9.0,90.0,1650823590022137.0
5.0,22.0,61.0,23.0,3.0,-5.0,-28.0,-84.0,1650823590022137.0
-39.0,-2.0,-4.0,-17.0,-4.0,-7.0,-23.0,-52.0,1650823590023082.0
-11.0,14.0,3.0,-14.0,-12.0,-2.0,23.0,35.0,1650823590023082.0
23.0,-4.0,5.0,2.0,-6.0,-4.0,12.0,2.0,1650823590035606.0
-15.0,-26.0,-10.0,-6.0,-3.0,2.0,-13.0,17.0,1650823590035606.0
7.0,11.0,13.0,25.0,10.0,1.0,-8.0,-4.0,1650823590044524.0
-5.0,0.0,25.0,10.0,7.0,2.0,-14.0,-30.0,1650823590044524.0
0.0,2.0,-6.0,1.0,-2.0,0.0,8.0,101.0,1650823590059646.0
2.0,-49.0,-49.0,-20.0,-4.0,0.0,21.0,17.0,1650823590059646.0
-10.0,-20.0,6.0,9.0,-2.0,-5.0,1.0,1.0,1650823590060580.0
24.0,59.0,-11.0,-35.0,-9.0,-8.0,-14.0,2.0,1650823590060580.0
-22.0,48.0,-37.0,2.0,-8.0,-5.0,-9.0,-26.0,1650823590081521.0
6.0,57.0,64.0,-5.0,-6.0,-6.0,-1.0,-3.0,1650823590081521.0
-11.0,-80.0,-90.0,-35.0,0.0,2.0,1.0,14.0,1650823590087506.0
9.0,31.0,39.0,-16.0,-5.0,3.0,-1.0,-1.0,1650823590087506.0
-7.0,-5.0,11.0,25.0,-1.0,-7.0,-24.0,-80.0,1650823590104632.0
15.0,-8.0,4.0,-17.0,-9.0,-4.0,4.0,22.0,1650823590104632.0
-13.0,19.0,19.0,4.0,0.0,3.0,4.0,6.0,1650823590105572.0
-9.0,-25.0,-9.0,12.0,-1.0,-1.0,0.0,0.0,1650823590105572.0
12.0,-22.0,-3.0,-5.0,5.0,6.0,21.0,34.0,1650823590119636.0
11.0,3.0,6.0,13.0,-5.0,-8.0,0.0,44.0,1650823590119636.0
-13.0,-13.0,13.0,9.0,18.0,10.0,7.0,-36.0,1650823590120611.0
6.0,-3.0,-24.0,2.0,-1.0,3.0,-4.0,5.0,1650823590120611.0
6.0,42.0,21.0,-18.0,-7.0,-7.0,-15.0,-5.0,1650823590141752.0
-12.0,-26.0,-6.0,12.0,2.0,1.0,2.0,-25.0,1650823590141752.0
29.0,51.0,78.0,45.0,12.0,11.0,10.0,25.0,1650823590143707.0
-11.0,-44.0,-21.0,-30.0,-1.0,-2.0,1.0,4.0,1650823590143707.0
-7.0,27.0,34.0,20.0,-1.0,-7.0,-11.0,-17.0,1650823590164641.0
-4.0,51.0,29.0,9.0,3.0,4.0,11.0,-2.0,1650823590164641.0
8.0,25.0,-37.0,-34.0,-3.0,2.0,4.0,16.0,1650823590165634.0
-6.0,-26.0,24.0,16.0,0.0,-2.0,-5.0,-9.0,1650823590165634.0
2.0,-21.0,12.0,10.0,4.0,6.0,0.0,-10.0,1650823590179647.0
0.0,-31.0,-47.0,-11.0,-4.0,-1.0,3.0,14.0,1650823590179647.0
2.0,12.0,-3.0,-7.0,-9.0,-8.0,1.0,-17.0,1650823590180582.0
-2.0,39.0,3.0,8.0,8.0,3.0,-2.0,-36.0,1650823590180582.0
-11.0,-28.0,-20.0,-14.0,-1.0,-1.0,-7.0,18.0,1650823590201592.0
6.0,2.0,7.0,11.0,1.0,-1.0,2.0,37.0,1650823590201592.0
10.0,59.0,56.0,14.0,3.0,2.0,11.0,3.0,1650823590208512.0
-14.0,-10.0,-40.0,-2.0,2.0,0.0,3.0,32.0,1650823590208512.0
-2.0,17.0,24.0,-6.0,-4.0,-2.0,9.0,-2.0,1650823590224531.0
13.0,3.0,30.0,28.0,19.0,13.0,12.0,52.0,1650823590224531.0
-8.0,-35.0,-11.0,-7.0,-7.0,-7.0,-4.0,-1.0,1650823590225461.0
0.0,28.0,-11.0,-10.0,-10.0,-5.0,-10.0,-6.0,1650823590225461.0
-2.0,8.0,33.0,1.0,-5.0,-4.0,-7.0,-17.0,1650823590246686.0
-4.0,4.0,-26.0,-11.0,12.0,2.0,2.0,0.0,1650823590246686.0
5.0,-19.0,-4.0,8.0,6.0,4.0,1.0,8.0,1650823590248654.0
10.0,13.0,19.0,15.0,2.0,1.0,0.0,-6.0,1650823590248654.0
2.0,-11.0,-23.0,-15.0,12.0,9.0,2.0,5.0,1650823590261777.0
-12.0,-31.0,-20.0,-34.0,-20.0,-13.0,-11.0,-52.0,1650823590261777.0
-17.0,3.0,-14.0,-13.0,-14.0,-5.0,-10.0,5.0,1650823590263710.0
4.0,-1.0,17.0,8.0,2.0,2.0,0.0,0.0,1650823590263710.0
3.0,-3.0,-7.0,6.0,-5.0,-4.0,-1.0,18.0,1650823590284678.0
-5.0,0.0,25.0,23.0,12.0,9.0,-7.0,-6.0,1650823590284678.0
22.0,7.0,1.0,4.0,5.0,-3.0,29.0,27.0,1650823590285681.0
6.0,7.0,-3.0,-4.0,-6.0,-1.0,5.0,26.0,1650823590285681.0
-10.0,-14.0,-8.0,11.0,1.0,-1.0,-12.0,-33.0,1650823590298644.0
22.0,26.0,8.0,-8.0,0.0,2.0,-11.0,-43.0,1650823590298644.0
-21.0,-66.0,-34.0,7.0,0.0,-4.0,-18.0,-24.0,1650823590305624.0
-18.0,-64.0,-24.0,-35.0,-8.0,-8.0,-6.0,-5.0,1650823590305624.0
2.0,9.0,-49.0,-30.0,-21.0,-15.0,-9.0,-11.0,1650823590321609.0
-16.0,-15.0,-5.0,10.0,-1.0,-1.0,3.0,-4.0,1650823590321609.0
16.0,5.0,18.0,6.0,1.0,1.0,3.0,12.0,1650823590323576.0
5.0,18.0,25.0,30.0,10.0,2.0,-5.0,-17.0,1650823590323576.0
-10.0,-30.0,-20.0,-15.0,9.0,12.0,10.0,14.0,1650823590344630.0
5.0,-4.0,-16.0,-21.0,-16.0,-12.0,-6.0,-16.0,1650823590344630.0
-3.0,-8.0,-15.0,-5.0,-1.0,1.0,-4.0,4.0,1650823590345599.0
0.0,6.0,-14.0,-2.0,-3.0,-4.0,-2.0,7.0,1650823590345599.0
9.0,28.0,27.0,21.0,5.0,2.0,11.0,43.0,1650823590358594.0
7.0,0.0,0.0,13.0,2.0,7.0,13.0,38.0,1650823590358594.0
24.0,38.0,23.0,4.0,6.0,2.0,-9.0,-11.0,1650823590365545.0
2.0,-14.0,-26.0,6.0,4.0,1.0,0.0,8.0,1650823590365545.0
-5.0,27.0,59.0,15.0,13.0,10.0,-1.0,-44.0,1650823590381516.0
-6.0,-35.0,-35.0,-31.0,-21.0,-21.0,-5.0,12.0,1650823590381516.0
-1.0,19.0,7.0,4.0,-7.0,-4.0,1.0,15.0,1650823590383498.0
6.0,-10.0,6.0,-6.0,2.0,2.0,3.0,8.0,1650823590383498.0
0.0,-10.0,8.0,7.0,-4.0,-1.0,-4.0,-5.0,1650823590404680.0
-11.0,-9.0,6.0,13.0,7.0,4.0,1.0,-11.0,1650823590404680.0
-4.0,7.0,1.0,13.0,0.0,1.0,-6.0,-11.0,1650823590406033.0
4.0,16.0,14.0,-7.0,3.0,1.0,2.0,-9.0,1650823590406033.0
4.0,-10.0,-12.0,-2.0,-6.0,-1.0,1.0,9.0,1650823590418781.0
-9.0,5.0,-10.0,-3.0,2.0,2.0,-5.0,-10.0,1650823590418781.0
-4.0,-17.0,0.0,-6.0,-6.0,-7.0,-1.0,11.0,1650823590425697.0
-2.0,12.0,0.0,1.0,-1.0,3.0,4.0,-2.0,1650823590425697.0
-1.0,-9.0,-13.0,-4.0,2.0,-2.0,-8.0,4.0,1650823590441660.0
-6.0,-6.0,-3.0,16.0,-4.0,0.0,6.0,-2.0,1650823590441660.0
0.0,5.0,0.0,-17.0,9.0,4.0,-9.0,-2.0,1650823590443618.0
2.0,2.0,9.0,7.0,-5.0,4.0,15.0,0.0,1650823590443618.0
-2.0,-10.0,-11.0,-2.0,-4.0,-7.0,-16.0,-6.0,1650823590464538.0
-2.0,-1.0,-4.0,-6.0,-5.0,-3.0,6.0,-5.0,1650823590464538.0
-3.0,-1.0,-1.0,2.0,-3.0,-1.0,1.0,-1.0,1650823590465535.0
-2.0,4.0,4.0,1.0,7.0,0.0,-5.0,-6.0,1650823590465535.0
1.0,-15.0,-28.0,-33.0,-8.0,-5.0,2.0,9.0,1650823590478500.0
-1.0,10.0,12.0,10.0,3.0,2.0,1.0,-2.0,1650823590478500.0
-4.0,-3.0,-1.0,9.0,10.0,3.0,0.0,3.0,1650823590485550.0
-4.0,-4.0,-9.0,-21.0,-10.0,-1.0,-3.0,-2.0,1650823590485550.0
3.0,9.0,4.0,9.0,-4.0,-1.0,4.0,1.0,1650823590501631.0
8.0,24.0,12.0,7.0,5.0,3.0,-5.0,-1.0,1650823590501631.0
-11.0,-7.0,2.0,-7.0,-5.0,-2.0,1.0,-3.0,1650823590503559.0
1.0,8.0,11.0,5.0,1.0,-2.0,-4.0,-2.0,1650823590503559.0
0.0,-5.0,-2.0,5.0,-2.0,-1.0,2.0,3.0,1650823590524530.0
-2.0,-1.0,-9.0,-13.0,-6.0,-2.0,-2.0,-3.0,1650823590524530.0
0.0,7.0,5.0,-5.0,-2.0,6.0,4.0,0.0,1650823590526498.0
0.0,-2.0,-4.0,-6.0,5.0,0.0,-4.0,-1.0,1650823590526498.0
1.0,-1.0,-4.0,0.0,-6.0,-2.0,5.0,1.0,1650823590538974.0
-1.0,-2.0,0.0,4.0,-4.0,-12.0,-5.0,-2.0,1650823590538974.0
3.0,-7.0,-9.0,-5.0,-3.0,-2.0,-3.0,-1.0,1650823590544959.0
-2.0,-1.0,2.0,5.0,-1.0,3.0,3.0,-1.0,1650823590544959.0
-1.0,-4.0,-3.0,7.0,10.0,5.0,-1.0,-1.0,1650823590561921.0
-5.0,-6.0,0.0,4.0,2.0,3.0,-2.0,-4.0,1650823590561921.0
0.0,-2.0,-10.0,-8.0,-9.0,-5.0,0.0,3.0,1650823590562913.0
2.0,5.0,9.0,7.0,2.0,-1.0,-11.0,-2.0,1650823590562913.0
-3.0,-5.0,-6.0,-4.0,-1.0,-3.0,4.0,-5.0,1650823590584642.0
-4.0,-3.0,-1.0,2.0,4.0,2.0,-2.0,-3.0,1650823590584642.0
2.0,-1.0,-6.0,-10.0,-11.0,-2.0,1.0,5.0,1650823590585644.0
2.0,2.0,7.0,14.0,-2.0,-3.0,-2.0,1.0,1650823590585644.0
-1.0,-3.0,-3.0,1.0,-7.0,-6.0,-8.0,-17.0,1650823590597611.0
-5.0,-7.0,-12.0,-11.0,7.0,8.0,2.0,-2.0,1650823590597611.0
2.0,-2.0,-3.0,-2.0,-2.0,-4.0,-1.0,1.0,1650823590606690.0
-1.0,4.0,10.0,8.0,1.0,4.0,4.0,0.0,1650823590606690.0
0.0,0.0,-5.0,12.0,3.0,-4.0,1.0,6.0,1650823590621692.0
2.0,-1.0,-4.0,-9.0,-5.0,-2.0,1.0,0.0,1650823590621692.0
-4.0,-15.0,-25.0,-11.0,2.0,1.0,1.0,-5.0,1650823590623653.0
1.0,-15.0,3.0,2.0,2.0,3.0,3.0,2.0,1650823590623653.0
-1.0,36.0,13.0,-4.0,-6.0,-2.0,-4.0,3.0,1650823590644566.0
-1.0,-4.0,3.0,6.0,1.0,-1.0,0.0,0.0,1650823590644566.0
3.0,6.0,-2.0,5.0,-2.0,-1.0,-1.0,3.0,1650823590645565.0
0.0,-2.0,0.0,-5.0,3.0,1.0,2.0,-1.0,1650823590645565.0
-2.0,-11.0,-2.0,7.0,2.0,2.0,2.0,1.0,1650823590657548.0
-1.0,-1.0,-3.0,-4.0,-5.0,-5.0,-5.0,-1.0,1650823590657548.0
0.0,6.0,6.0,0.0,1.0,6.0,4.0,0.0,1650823590667514.0
-1.0,4.0,8.0,4.0,4.0,2.0,5.0,1.0,1650823590667514.0
-2.0,-7.0,-6.0,-2.0,2.0,3.0,-9.0,-36.0,1650823590682465.0
-2.0,-2.0,3.0,-1.0,0.0,0.0,0.0,9.0,1650823590682465.0
0.0,-3.0,0.0,0.0,0.0,1.0,2.0,-3.0,1650823590683464.0
-3.0,1.0,4.0,3.0,0.0,-2.0,-1.0,-6.0,1650823590683464.0
0.0,-3.0,1.0,-1.0,-8.0,-4.0,2.0,16.0,1650823590704435.0
-3.0,-8.0,-10.0,-14.0,0.0,0.0,-3.0,-2.0,1650823590704435.0
-2.0,-3.0,-9.0,-5.0,7.0,-2.0,-5.0,-6.0,1650823590705425.0
1.0,3.0,-1.0,4.0,-7.0,0.0,3.0,6.0,1650823590705425.0
1.0,2.0,4.0,4.0,4.0,0.0,2.0,5.0,1650823590718415.0
-2.0,1.0,5.0,7.0,5.0,2.0,2.0,-3.0,1650823590718415.0
2.0,1.0,2.0,2.0,-5.0,4.0,0.0,6.0,1650823590726746.0
0.0,2.0,-7.0,-6.0,-6.0,-12.0,-8.0,-4.0,1650823590726746.0
-2.0,-14.0,-7.0,-11.0,1.0,1.0,2.0,5.0,1650823590741603.0
2.0,2.0,3.0,3.0,-3.0,1.0,1.0,-4.0,1650823590741603.0
-2.0,-5.0,-6.0,0.0,3.0,0.0,1.0,-1.0,1650823590743531.0
-3.0,-1.0,-1.0,0.0,5.0,1.0,-1.0,0.0,1650823590743531.0
2.0,0.0,4.0,-1.0,-13.0,-4.0,-1.0,0.0,1650823590764596.0
-3.0,-5.0,1.0,2.0,1.0,1.0,0.0,1.0,1650823590764596.0
0.0,0.0,-10.0,-5.0,-1.0,1.0,1.0,1.0,1650823590765595.0
1.0,1.0,-1.0,1.0,1.0,3.0,0.0,-2.0,1650823590765595.0
1.0,-3.0,0.0,0.0,7.0,4.0,0.0,4.0,1650823590777561.0
1.0,3.0,-1.0,-2.0,1.0,0.0,-1.0,-2.0,1650823590777561.0
2.0,1.0,6.0,3.0,-3.0,-4.0,0.0,0.0,1650823590786623.0
-1.0,-1.0,-11.0,-7.0,-4.0,-4.0,-2.0,-4.0,1650823590786623.0
-3.0,-6.0,-4.0,-3.0,-1.0,3.0,2.0,2.0,1650823590801565.0
-2.0,0.0,10.0,4.0,-2.0,-1.0,0.0,-2.0,1650823590801565.0
-1.0,1.0,-2.0,6.0,7.0,-6.0,-3.0,-3.0,1650823590803492.0
-1.0,-1.0,-3.0,-13.0,-9.0,2.0,-2.0,0.0,1650823590803492.0
3.0,0.0,2.0,6.0,10.0,2.0,1.0,2.0,1650823590824685.0
0.0,-1.0,0.0,1.0,-1.0,-4.0,-2.0,-2.0,1650823590824685.0
-2.0,-3.0,3.0,-5.0,0.0,2.0,2.0,-1.0,1650823590825479.0
0.0,1.0,2.0,3.0,2.0,5.0,-2.0,-1.0,1650823590825479.0
-1.0,0.0,-5.0,-4.0,1.0,-4.0,1.0,1.0,1650823590848420.0
-1.0,0.0,-1.0,2.0,-11.0,-3.0,1.0,-1.0,1650823590848420.0
2.0,0.0,4.0,-1.0,0.0,2.0,1.0,1.0,1650823590849419.0
0.0,3.0,-3.0,0.0,-1.0,-3.0,-4.0,0.0,1650823590849419.0
-2.0,-5.0,-3.0,-5.0,3.0,3.0,-2.0,-1.0,1650823590861414.0
-1.0,0.0,-1.0,-6.0,-10.0,-6.0,-3.0,0.0,1650823590861414.0
0.0,4.0,2.0,0.0,-6.0,0.0,1.0,-2.0,1650823590863387.0
-1.0,0.0,0.0,1.0,3.0,2.0,2.0,2.0,1650823590863387.0
-1.0,-2.0,2.0,3.0,4.0,1.0,0.0,1.0,1650823590884673.0
-1.0,-1.0,-1.0,-1.0,1.0,-3.0,-3.0,0.0,1650823590884673.0
-2.0,-4.0,4.0,-4.0,-7.0,-3.0,-2.0,-2.0,1650823590885674.0
0.0,-5.0,-5.0,5.0,-1.0,-1.0,-2.0,-2.0,1650823590885674.0
-2.0,-1.0,-11.0,-8.0,-1.0,-2.0,-2.0,-1.0,1650823590897668.0
2.0,-1.0,1.0,2.0,2.0,1.0,0.0,-1.0,1650823590897668.0
-1.0,1.0,4.0,8.0,-4.0,0.0,0.0,0.0,1650823590906790.0
-1.0,2.0,4.0,0.0,1.0,0.0,2.0,0.0,1650823590906790.0
1.0,1.0,1.0,-1.0,-7.0,-7.0,-3.0,2.0,1650823590921780.0
-1.0,0.0,-1.0,5.0,4.0,3.0,-2.0,-2.0,1650823590921780.0
-3.0,-4.0,-12.0,-12.0,-1.0,-4.0,-2.0,-1.0,1650823590923744.0
-2.0,-6.0,2.0,2.0,-1.0,-3.0,-1.0,-4.0,1650823590923744.0
0.0,1.0,-1.0,1.0,-3.0,-1.0,2.0,1.0,1650823590944689.0
0.0,-1.0,-4.0,-1.0,5.0,4.0,1.0,1.0,1650823590944689.0
2.0,3.0,8.0,6.0,2.0,-2.0,3.0,0.0,1650823590945687.0
-1.0,-6.0,-13.0,-8.0,-1.0,-2.0,-2.0,-1.0,1650823590945687.0
0.0,4.0,1.0,1.0,6.0,3.0,0.0,-1.0,1650823590957681.0
-2.0,-1.0,-2.0,2.0,-7.0,-2.0,3.0,-2.0,1650823590957681.0
-2.0,-1.0,1.0,-1.0,5.0,3.0,-2.0,0.0,1650823590966629.0
3.0,0.0,-4.0,-6.0,-5.0,-6.0,-2.0,-1.0,1650823590966629.0
0.0,-3.0,-2.0,0.0,0.0,-1.0,-3.0,0.0,1650823590981589.0
-3.0,-2.0,-9.0,-6.0,1.0,1.0,-1.0,-1.0,1650823590981589.0
-1.0,1.0,-3.0,3.0,-4.0,-5.0,-2.0,-2.0,1650823590983585.0
0.0,1.0,4.0,-1.0,-2.0,1.0,0.0,1.0,1650823590983585.0
2.0,2.0,2.0,4.0,7.0,1.0,1.0,0.0,1650823591004549.0
-1.0,-7.0,4.0,0.0,-9.0,-1.0,-2.0,-2.0,1650823591004549.0
2.0,0.0,-3.0,-2.0,-1.0,1.0,1.0,0.0,1650823591005527.0
2.0,4.0,3.0,0.0,-1.0,-1.0,0.0,1.0,1650823591005527.0
-2.0,-5.0,-5.0,1.0,-6.0,0.0,0.0,-1.0,1650823591026491.0
1.0,-2.0,0.0,-2.0,8.0,4.0,1.0,-1.0,1650823591026491.0
-1.0,-1.0,-1.0,4.0,4.0,3.0,0.0,0.0,1650823591028465.0
0.0,0.0,2.0,4.0,-5.0,-8.0,-4.0,-1.0,1650823591028465.0
-1.0,-1.0,-2.0,-5.0,-3.0,-2.0,-2.0,0.0,1650823591041450.0
0.0,8.0,6.0,4.0,6.0,7.0,0.0,1.0,1650823591041450.0
-2.0,-3.0,-13.0,-16.0,-2.0,3.0,1.0,-1.0,1650823591043425.0
-2.0,0.0,-5.0,-3.0,-4.0,-7.0,-3.0,-1.0,1650823591043425.0
-3.0,-2.0,7.0,1.0,-1.0,1.0,0.0,-1.0,1650823591064646.0
1.0,-1.0,-4.0,6.0,2.0,-4.0,0.0,2.0,1650823591064646.0
-2.0,3.0,4.0,0.0,-2.0,-1.0,-3.0,1.0,1650823591065430.0
-3.0,-3.0,-2.0,-2.0,15.0,4.0,-2.0,-1.0,1650823591065430.0
0.0,2.0,-1.0,0.0,-25.0,-11.0,3.0,2.0,1650823591086514.0
0.0,1.0,2.0,-1.0,-1.0,-3.0,1.0,0.0,1650823591086514.0
0.0,-1.0,5.0,5.0,1.0,-1.0,-2.0,1.0,1650823591088471.0
1.0,-3.0,1.0,2.0,5.0,6.0,3.0,0.0,1650823591088471.0
-1.0,-2.0,-1.0,-2.0,5.0,3.0,-3.0,-2.0,1650823591101981.0
0.0,-2.0,-2.0,-3.0,0.0,0.0,-2.0,-2.0,1650823591101981.0
0.0,-3.0,-2.0,-3.0,-3.0,-2.0,1.0,-1.0,1650823591102909.0
-1.0,1.0,-2.0,5.0,-3.0,-1.0,1.0,-1.0,1650823591102909.0
-2.0,-1.0,0.0,-4.0,3.0,2.0,0.0,-2.0,1650823591124677.0
-2.0,-2.0,-1.0,2.0,2.0,2.0,1.0,1.0,1650823591124677.0
0.0,0.0,-1.0,1.0,0.0,-6.0,-3.0,0.0,1650823591125884.0
-1.0,4.0,6.0,2.0,-5.0,-1.0,1.0,-1.0,1650823591125884.0
-3.0,-5.0,-4.0,-2.0,-2.0,2.0,-1.0,-2.0,1650823591147338.0
-1.0,-2.0,-1.0,-4.0,-2.0,-2.0,-2.0,0.0,1650823591147338.0
-1.0,0.0,1.0,-1.0,-3.0,-3.0,-2.0,-1.0,1650823591148331.0
-1.0,-1.0,2.0,-1.0,-2.0,3.0,1.0,-2.0,1650823591148331.0
0.0,2.0,2.0,3.0,-1.0,-4.0,1.0,0.0,1650823591161363.0
1.0,1.0,-1.0,6.0,5.0,2.0,-1.0,-1.0,1650823591161363.0
0.0,4.0,3.0,4.0,17.0,7.0,1.0,0.0,1650823591168278.0
-1.0,-1.0,-4.0,-4.0,-14.0,-6.0,-3.0,-1.0,1650823591168278.0
1.0,2.0,7.0,-1.0,2.0,3.0,-2.0,-1.0,1650823591184686.0
-2.0,-8.0,-5.0,-11.0,-19.0,-12.0,-4.0,-3.0,1650823591184686.0
1.0,-1.0,2.0,4.0,-2.0,0.0,1.0,-2.0,1650823591185683.0
0.0,2.0,3.0,5.0,12.0,4.0,3.0,1.0,1650823591185683.0
0.0,-1.0,-4.0,-1.0,-1.0,0.0,1.0,0.0,1650823591206783.0
0.0,8.0,7.0,0.0,-1.0,2.0,2.0,-2.0,1650823591206783.0
-4.0,-10.0,-3.0,2.0,3.0,-5.0,-6.0,-2.0,1650823591208711.0
-1.0,-2.0,-9.0,-7.0,-8.0,-1.0,-1.0,-1.0,1650823591208711.0
-1.0,1.0,3.0,3.0,-3.0,-3.0,0.0,0.0,1650823591220805.0
2.0,4.0,1.0,-1.0,4.0,5.0,0.0,2.0,1650823591220805.0
0.0,0.0,-4.0,1.0,-8.0,-1.0,0.0,0.0,1650823591227856.0
-2.0,-4.0,-4.0,-7.0,1.0,-3.0,-3.0,-1.0,1650823591227856.0
-3.0,0.0,1.0,-2.0,-3.0,-1.0,-1.0,-2.0,1650823591244687.0
-3.0,-4.0,-5.0,-5.0,-5.0,-6.0,-3.0,-1.0,1650823591244687.0
-2.0,-1.0,-4.0,-3.0,1.0,0.0,0.0,-1.0,1650823591245681.0
0.0,-2.0,4.0,3.0,-11.0,0.0,-1.0,-1.0,1650823591245681.0
1.0,-2.0,-2.0,0.0,5.0,5.0,3.0,-2.0,1650823591266785.0
-1.0,0.0,-2.0,0.0,7.0,1.0,1.0,0.0,1650823591266785.0
0.0,1.0,5.0,4.0,-3.0,3.0,2.0,1.0,1650823591268806.0
1.0,1.0,-3.0,-1.0,1.0,-3.0,-1.0,-2.0,1650823591268806.0
-3.0,-5.0,-4.0,-7.0,-6.0,-4.0,-4.0,-3.0,1650823591280813.0
0.0,-1.0,-3.0,0.0,-5.0,-2.0,-2.0,0.0,1650823591280813.0
0.0,2.0,0.0,-2.0,-4.0,-2.0,-1.0,0.0,1650823591287735.0
-2.0,0.0,-2.0,0.0,1.0,-2.0,1.0,-1.0,1650823591287735.0
-1.0,1.0,-3.0,-1.0,-1.0,4.0,1.0,-1.0,1650823591304690.0
3.0,6.0,9.0,12.0,3.0,-1.0,2.0,1.0,1650823591304690.0
-4.0,-15.0,-27.0,-14.0,3.0,4.0,-1.0,-2.0,1650823591305681.0
-2.0,0.0,3.0,-4.0,1.0,5.0,-1.0,0.0,1650823591305681.0
0.0,-2.0,3.0,3.0,1.0,-1.0,1.0,0.0,1650823591326735.0
1.0,3.0,5.0,1.0,3.0,1.0,1.0,-2.0,1650823591326735.0
-1.0,0.0,-11.0,-6.0,-7.0,1.0,0.0,-1.0,1650823591328755.0
0.0,-1.0,1.0,-1.0,-2.0,-7.0,-1.0,0.0,1650823591328755.0
-1.0,1.0,-2.0,-4.0,6.0,-2.0,-2.0,1.0,1650823591341694.0
-2.0,-4.0,-2.0,1.0,-9.0,2.0,-1.0,0.0,1650823591341694.0
2.0,2.0,6.0,4.0,-4.0,-5.0,0.0,1.0,1650823591355724.0
0.0,-2.0,-6.0,-1.0,-2.0,-2.0,2.0,0.0,1650823591355724.0
-1.0,1.0,3.0,3.0,8.0,4.0,0.0,-1.0,1650823591364719.0
-2.0,-5.0,-2.0,0.0,4.0,-1.0,-1.0,-2.0,1650823591364719.0
-2.0,3.0,8.0,0.0,1.0,5.0,2.0,-2.0,1650823591365719.0
2.0,4.0,2.0,2.0,1.0,-1.0,-2.0,-1.0,1650823591365719.0
1.0,-5.0,-9.0,0.0,0.0,2.0,0.0,1.0,1650823591386709.0
-2.0,-5.0,-4.0,-4.0,-2.0,-1.0,-2.0,-2.0,1650823591386709.0
3.0,-1.0,4.0,-2.0,-7.0,-8.0,-6.0,-1.0,1650823591388663.0
0.0,0.0,0.0,2.0,-2.0,-1.0,0.0,-1.0,1650823591388663.0
-1.0,-1.0,0.0,-1.0,1.0,7.0,4.0,-1.0,1650823591401603.0
3.0,9.0,7.0,-1.0,6.0,2.0,0.0,1.0,1650823591401603.0
-3.0,-7.0,-5.0,3.0,0.0,-3.0,1.0,-1.0,1650823591407653.0
-1.0,0.0,0.0,2.0,1.0,-1.0,-2.0,1.0,1650823591407653.0
1.0,1.0,-3.0,-8.0,5.0,-1.0,-3.0,-2.0,1650823591424827.0
-2.0,1.0,-2.0,-5.0,-13.0,-5.0,0.0,0.0,1650823591424827.0
2.0,4.0,6.0,3.0,3.0,1.0,3.0,1.0,1650823591425818.0
0.0,-1.0,2.0,3.0,2.0,3.0,1.0,-2.0,1650823591425818.0
0.0,-1.0,-2.0,-2.0,-6.0,-4.0,-4.0,0.0,1650823591446794.0
-1.0,-5.0,-3.0,-4.0,1.0,-1.0,-3.0,-2.0,1650823591446794.0
0.0,1.0,4.0,1.0,-1.0,-1.0,-1.0,0.0,1650823591448777.0
-2.0,-2.0,-2.0,2.0,7.0,2.0,-2.0,0.0,1650823591448777.0
-1.0,-7.0,5.0,-2.0,-11.0,-6.0,-1.0,0.0,1650823591460819.0
-1.0,2.0,-5.0,8.0,4.0,-1.0,-1.0,-1.0,1650823591460819.0
-1.0,-3.0,-14.0,-12.0,-4.0,-1.0,2.0,0.0,1650823591467809.0
-1.0,1.0,6.0,3.0,8.0,6.0,2.0,-1.0,1650823591467809.0
0.0,2.0,-2.0,1.0,-2.0,-2.0,-1.0,0.0,1650823591484757.0
-1.0,-5.0,-6.0,-4.0,-4.0,-4.0,-2.0,0.0,1650823591484757.0
1.0,0.0,3.0,1.0,-5.0,-3.0,-6.0,-1.0,1650823591485765.0
-1.0,-3.0,-4.0,-8.0,-9.0,-8.0,-2.0,-1.0,1650823591485765.0
0.0,3.0,1.0,7.0,3.0,4.0,2.0,-2.0,1650823591506766.0
0.0,2.0,7.0,7.0,14.0,10.0,7.0,1.0,1650823591506766.0
0.0,0.0,-3.0,3.0,5.0,1.0,0.0,0.0,1650823591508720.0
0.0,-4.0,-4.0,-8.0,-10.0,-7.0,-3.0,0.0,1650823591508720.0
0.0,1.0,1.0,-2.0,-4.0,-8.0,-4.0,-1.0,1650823591520728.0
-2.0,-1.0,-1.0,-2.0,-1.0,0.0,-1.0,-2.0,1650823591520728.0
1.0,2.0,3.0,-1.0,-4.0,0.0,3.0,2.0,1650823591529637.0
-2.0,-3.0,-5.0,-1.0,0.0,1.0,-1.0,0.0,1650823591529637.0
1.0,-1.0,-3.0,-1.0,-1.0,0.0,-2.0,0.0,1650823591544597.0
-2.0,-2.0,-4.0,-5.0,-4.0,-3.0,-4.0,0.0,1650823591544597.0
-1.0,0.0,3.0,1.0,-1.0,-1.0,-1.0,-1.0,1650823591545595.0
0.0,4.0,5.0,5.0,6.0,5.0,3.0,0.0,1650823591545595.0
-1.0,-9.0,-6.0,1.0,0.0,3.0,1.0,1.0,1650823591566624.0
2.0,-2.0,-1.0,0.0,5.0,-2.0,-1.0,0.0,1650823591566624.0
0.0,-2.0,-1.0,-4.0,-6.0,-3.0,-1.0,-1.0,1650823591568648.0
0.0,0.0,1.0,0.0,0.0,-1.0,1.0,-2.0,1650823591568648.0
-1.0,0.0,1.0,-2.0,0.0,2.0,-1.0,0.0,1650823591580613.0
-3.0,-5.0,-5.0,-4.0,-1.0,-6.0,-3.0,-2.0,1650823591580613.0
-1.0,1.0,-3.0,1.0,-10.0,-7.0,-2.0,-1.0,1650823591589561.0
-2.0,-1.0,-1.0,-3.0,-4.0,-1.0,0.0,-1.0,1650823591589561.0
0.0,3.0,2.0,1.0,-4.0,-2.0,0.0,-1.0,1650823591604575.0
-1.0,-6.0,-3.0,-4.0,-6.0,0.0,-2.0,0.0,1650823591604575.0
0.0,2.0,5.0,2.0,6.0,2.0,0.0,-1.0,1650823591605523.0
-3.0,0.0,-1.0,7.0,7.0,6.0,6.0,-2.0,1650823591605523.0
3.0,1.0,-3.0,3.0,1.0,-5.0,-2.0,0.0,1650823591642444.0
-2.0,1.0,13.0,-6.0,2.0,3.0,0.0,-3.0,1650823591642444.0
0.0,-1.0,-1.0,-3.0,-3.0,-2.0,-3.0,-1.0,1650823591644439.0
0.0,2.0,-2.0,-4.0,-6.0,-4.0,-4.0,0.0,1650823591644439.0
1.0,3.0,2.0,1.0,5.0,-1.0,3.0,0.0,1650823591644439.0
2.0,3.0,0.0,5.0,3.0,2.0,0.0,0.0,1650823591644439.0
-1.0,-2.0,0.0,-6.0,2.0,3.0,-2.0,0.0,1650823591649402.0
1.0,-3.0,-11.0,-7.0,-5.0,-4.0,-6.0,-2.0,1650823591649402.0
-3.0,1.0,3.0,2.0,-3.0,0.0,4.0,-2.0,1650823591664392.0
2.0,4.0,2.0,3.0,2.0,0.0,2.0,3.0,1650823591664392.0
-3.0,-5.0,4.0,9.0,5.0,-1.0,-1.0,-2.0,1650823591665380.0
0.0,-3.0,4.0,2.0,0.0,-1.0,-3.0,-1.0,1650823591665380.0
-2.0,-2.0,-2.0,-6.0,3.0,6.0,2.0,0.0,1650823591687300.0
1.0,0.0,-7.0,-4.0,-4.0,-2.0,-1.0,-2.0,1650823591687300.0
-1.0,-1.0,0.0,-1.0,2.0,3.0,1.0,-1.0,1650823591688300.0
2.0,0.0,3.0,-1.0,-2.0,-2.0,0.0,0.0,1650823591688300.0
0.0,-1.0,-1.0,-4.0,-9.0,-7.0,-4.0,0.0,1650823591700266.0
-1.0,-3.0,-3.0,-4.0,-6.0,-1.0,-2.0,0.0,1650823591700266.0
2.0,5.0,0.0,5.0,4.0,6.0,3.0,2.0,1650823591709255.0
2.0,0.0,14.0,8.0,5.0,1.0,3.0,2.0,1650823591709255.0
-2.0,-4.0,-26.0,-11.0,1.0,-2.0,1.0,-1.0,1650823591723954.0
2.0,-2.0,-6.0,-4.0,8.0,1.0,-2.0,0.0,1650823591723954.0
-1.0,-1.0,0.0,-4.0,-12.0,-3.0,-3.0,-2.0,1650823591725919.0
0.0,1.0,4.0,4.0,-12.0,-6.0,3.0,0.0,1650823591725919.0
0.0,-1.0,5.0,1.0,0.0,0.0,-2.0,-1.0,1650823591746925.0
-3.0,-3.0,-2.0,-1.0,-5.0,-4.0,0.0,1.0,1650823591746925.0
-1.0,-2.0,-4.0,-2.0,3.0,2.0,-1.0,-1.0,1650823591748897.0
0.0,-4.0,-9.0,-6.0,-1.0,-2.0,-6.0,-2.0,1650823591748897.0
2.0,4.0,9.0,2.0,-6.0,0.0,1.0,3.0,1650823591760821.0
-5.0,-3.0,-7.0,4.0,8.0,9.0,2.0,-3.0,1650823591760821.0
0.0,-1.0,1.0,2.0,13.0,3.0,1.0,2.0,1650823591769798.0
1.0,0.0,-1.0,-4.0,-1.0,-1.0,-1.0,-2.0,1650823591769798.0
-1.0,-1.0,-1.0,-1.0,-3.0,-2.0,-2.0,0.0,1650823591791960.0
1.0,-2.0,3.0,-2.0,-10.0,-5.0,-3.0,-2.0,1650823591791960.0
-2.0,2.0,1.0,1.0,-3.0,-1.0,-1.0,0.0,1650823591792910.0
-3.0,-2.0,-7.0,-4.0,4.0,-1.0,0.0,0.0,1650823591792910.0
0.0,-2.0,-2.0,-2.0,-3.0,-8.0,-5.0,1.0,1650823591806949.0
-1.0,0.0,-3.0,2.0,4.0,2.0,0.0,-1.0,1650823591806949.0
-2.0,-1.0,6.0,2.0,-12.0,0.0,3.0,-1.0,1650823591807910.0
1.0,-3.0,-8.0,-3.0,4.0,2.0,3.0,1.0,1650823591807910.0
1.0,9.0,13.0,19.0,11.0,4.0,-1.0,-1.0,1650823591820914.0
-1.0,-5.0,-3.0,-5.0,8.0,1.0,1.0,2.0,1650823591820914.0
2.0,1.0,0.0,-4.0,0.0,-4.0,-5.0,-1.0,1650823591829852.0
0.0,-1.0,0.0,-2.0,-4.0,0.0,-1.0,-1.0,1650823591829852.0
1.0,-2.0,-3.0,-3.0,-4.0,-3.0,-2.0,-1.0,1650823591844784.0
2.0,1.0,-2.0,-4.0,-4.0,2.0,-2.0,0.0,1650823591844784.0
0.0,1.0,-3.0,-2.0,-4.0,-6.0,-1.0,0.0,1650823591845782.0
-2.0,2.0,6.0,3.0,-2.0,-1.0,7.0,1.0,1650823591845782.0
-5.0,-6.0,-8.0,0.0,4.0,3.0,0.0,-1.0,1650823591866726.0
1.0,-2.0,-2.0,3.0,2.0,5.0,-1.0,0.0,1650823591866726.0
1.0,0.0,-2.0,0.0,6.0,4.0,1.0,-1.0,1650823591868722.0
-2.0,-1.0,-3.0,0.0,4.0,5.0,-4.0,0.0,1650823591868722.0
1.0,1.0,0.0,-6.0,-7.0,-5.0,-2.0,-1.0,1650823591880754.0
-2.0,0.0,1.0,-1.0,-7.0,-6.0,0.0,0.0,1650823591880754.0
-2.0,-2.0,-3.0,-4.0,1.0,-2.0,-1.0,-2.0,1650823591889684.0
2.0,-1.0,0.0,0.0,-5.0,-2.0,-3.0,-2.0,1650823591889684.0
-1.0,1.0,17.0,3.0,-10.0,4.0,5.0,0.0,1650823591911729.0
-1.0,-1.0,0.0,1.0,6.0,2.0,3.0,0.0,1650823591911729.0
-1.0,0.0,-4.0,2.0,8.0,-1.0,1.0,1.0,1650823591913683.0
-1.0,-1.0,-1.0,-2.0,2.0,0.0,-1.0,0.0,1650823591913683.0
1.0,-3.0,0.0,0.0,1.0,-2.0,0.0,-1.0,1650823591926652.0
0.0,2.0,0.0,-2.0,-7.0,-4.0,-1.0,-1.0,1650823591926652.0
-2.0,-3.0,-2.0,-4.0,-6.0,-7.0,-3.0,1.0,1650823591928646.0
-1.0,0.0,1.0,2.0,4.0,4.0,-2.0,-1.0,1650823591928646.0
-6.0,-6.0,-2.0,-3.0,-7.0,-2.0,2.0,-1.0,1650823591949587.0
2.0,1.0,-2.0,1.0,7.0,0.0,2.0,1.0,1650823591949587.0
3.0,3.0,11.0,4.0,7.0,3.0,2.0,0.0,1650823591950558.0
-2.0,-2.0,-7.0,-3.0,-2.0,1.0,-3.0,-1.0,1650823591950558.0
-1.0,2.0,2.0,-3.0,-3.0,-1.0,-4.0,-2.0,1650823591964549.0
-1.0,-1.0,-2.0,-3.0,-11.0,-7.0,-2.0,-1.0,1650823591964549.0
0.0,1.0,1.0,-2.0,0.0,-3.0,-3.0,-1.0,1650823591965538.0
-2.0,0.0,4.0,3.0,-6.0,-2.0,1.0,0.0,1650823591965538.0
2.0,0.0,-5.0,2.0,6.0,14.0,3.0,1.0,1650823591986529.0
-1.0,0.0,2.0,5.0,9.0,0.0,1.0,0.0,1650823591986529.0
-1.0,0.0,-3.0,-2.0,-5.0,-1.0,0.0,-1.0,1650823591988457.0
-2.0,-1.0,-2.0,2.0,5.0,-2.0,-2.0,-2.0,1650823591988457.0
1.0,-3.0,-8.0,-5.0,-2.0,-4.0,-3.0,-1.0,1650823592009571.0
-2.0,-1.0,0.0,2.0,-6.0,1.0,-2.0,-1.0,1650823592009571.0
0.0,-3.0,-5.0,-6.0,-5.0,-2.0,-3.0,1.0,1650823592010528.0
0.0,1.0,0.0,1.0,0.0,0.0,3.0,-2.0,1650823592010528.0
0.0,2.0,3.0,11.0,6.0,3.0,5.0,1.0,1650823592031445.0
1.0,-1.0,-5.0,-13.0,1.0,-2.0,-2.0,0.0,1650823592031445.0
-1.0,-2.0,0.0,-1.0,-2.0,-1.0,0.0,0.0,1650823592033439.0
-2.0,1.0,5.0,5.0,6.0,6.0,3.0,0.0,1650823592033439.0
1.0,1.0,-3.0,-3.0,3.0,-2.0,-4.0,0.0,1650823592046433.0
0.0,-1.0,-1.0,0.0,-2.0,-3.0,-1.0,-1.0,1650823592046433.0
-1.0,-1.0,-5.0,-5.0,-18.0,-7.0,-2.0,-3.0,1650823592048400.0
1.0,1.0,2.0,0.0,1.0,-3.0,0.0,1.0,1650823592048400.0
0.0,-2.0,-3.0,6.0,9.0,8.0,2.0,0.0,1650823592069344.0
0.0,0.0,4.0,-2.0,2.0,2.0,0.0,0.0,1650823592069344.0
-1.0,1.0,1.0,1.0,0.0,-4.0,-1.0,-1.0,1650823592071365.0
-1.0,-5.0,-3.0,-3.0,2.0,-2.0,0.0,1.0,1650823592071365.0
-1.0,-2.0,-4.0,-8.0,-7.0,-9.0,-4.0,-2.0,1650823592084304.0
-2.0,-2.0,-1.0,-1.0,-6.0,0.0,-4.0,-2.0,1650823592084304.0
-1.0,2.0,1.0,-1.0,0.0,2.0,1.0,-1.0,1650823592086299.0
-1.0,3.0,-3.0,-3.0,-3.0,-3.0,-4.0,1.0,1650823592086299.0
-2.0,0.0,1.0,-2.0,4.0,2.0,3.0,0.0,1650823592106330.0
0.0,-2.0,-8.0,-1.0,-1.0,0.0,-3.0,-1.0,1650823592106330.0
0.0,1.0,5.0,7.0,10.0,6.0,3.0,2.0,1650823592113340.0
0.0,-1.0,11.0,3.0,-6.0,2.0,3.0,-1.0,1650823592113340.0
0.0,-4.0,-9.0,-8.0,-2.0,-3.0,-5.0,-1.0,1650823592128919.0
-2.0,0.0,1.0,0.0,-5.0,0.0,2.0,-4.0,1650823592128919.0
-3.0,1.0,1.0,1.0,-2.0,-6.0,2.0,1.0,1650823592130888.0
0.0,-1.0,-4.0,-6.0,3.0,0.0,-3.0,-1.0,1650823592130888.0
0.0,1.0,-2.0,0.0,-1.0,-3.0,-3.0,-4.0,1650823592151838.0
-1.0,-2.0,-3.0,-2.0,-9.0,-8.0,0.0,1.0,1650823592151838.0
0.0,0.0,-4.0,6.0,3.0,5.0,-1.0,0.0,1650823592153833.0
-2.0,-3.0,6.0,-5.0,-4.0,4.0,-1.0,-4.0,1650823592153833.0
0.0,0.0,4.0,-10.0,-6.0,-8.0,1.0,3.0,1650823592167004.0
-3.0,-1.0,-11.0,12.0,15.0,7.0,6.0,1.0,1650823592167004.0
3.0,1.0,1.0,6.0,10.0,5.0,2.0,1.0,1650823592167934.0
2.0,0.0,-2.0,-1.0,-4.0,-4.0,-2.0,2.0,1650823592167934.0
-1.0,-2.0,0.0,-7.0,-13.0,-8.0,-5.0,-1.0,1650823592189941.0
-1.0,-1.0,5.0,2.0,2.0,1.0,-2.0,-2.0,1650823592189941.0
-3.0,1.0,1.0,4.0,-1.0,5.0,4.0,-2.0,1650823592191875.0
-2.0,0.0,-7.0,8.0,8.0,1.0,1.0,0.0,1650823592191875.0
2.0,1.0,-7.0,-6.0,-2.0,-1.0,0.0,0.0,1650823592203905.0
0.0,-8.0,-1.0,0.0,-4.0,-4.0,-1.0,1.0,1650823592203905.0
-2.0,1.0,-1.0,-4.0,-2.0,2.0,-6.0,-15.0,1650823592210568.0
2.0,0.0,-1.0,-8.0,-7.0,-5.0,3.0,16.0,1650823592210568.0
0.0,-1.0,-7.0,3.0,14.0,4.0,0.0,-6.0,1650823592226674.0
0.0,1.0,4.0,-5.0,-18.0,-8.0,-5.0,-4.0,1650823592226674.0
1.0,-2.0,7.0,2.0,1.0,-1.0,0.0,3.0,1650823592228629.0
-2.0,-1.0,-7.0,-1.0,2.0,-5.0,-4.0,-2.0,1650823592228629.0
-1.0,1.0,2.0,4.0,11.0,9.0,2.0,0.0,1650823592249614.0
1.0,3.0,21.0,7.0,4.0,5.0,7.0,33.0,1650823592249614.0
-5.0,-14.0,-23.0,-9.0,-5.0,-6.0,-12.0,-46.0,1650823592251541.0
1.0,12.0,9.0,1.0,2.0,2.0,-3.0,-15.0,1650823592251541.0
-8.0,-42.0,-14.0,5.0,-11.0,-1.0,22.0,40.0,1650823592263577.0
5.0,36.0,32.0,3.0,5.0,3.0,-23.0,-23.0,1650823592263577.0
-11.0,-36.0,-26.0,-18.0,-10.0,-11.0,-14.0,-60.0,1650823592270557.0
1.0,-6.0,-21.0,-4.0,2.0,0.0,-1.0,-4.0,1650823592270557.0
10.0,17.0,14.0,7.0,2.0,2.0,6.0,12.0,1650823592286447.0
-4.0,7.0,36.0,22.0,8.0,5.0,4.0,-21.0,1650823592286447.0
-1.0,-2.0,-30.0,-10.0,-5.0,2.0,16.0,28.0,1650823592288469.0
-5.0,-34.0,21.0,-13.0,-10.0,-13.0,-23.0,11.0,1650823592288469.0
-8.0,20.0,21.0,4.0,-3.0,-1.0,-6.0,-35.0,1650823592309503.0
10.0,-9.0,-47.0,-3.0,6.0,0.0,2.0,3.0,1650823592309503.0
4.0,-6.0,28.0,10.0,11.0,6.0,-2.0,8.0,1650823592310473.0
-8.0,-4.0,-60.0,-14.0,-13.0,-6.0,7.0,31.0,1650823592310473.0
8.0,4.0,14.0,2.0,1.0,1.0,8.0,46.0,1650823592323438.0
8.0,45.0,31.0,-5.0,-12.0,-6.0,6.0,-9.0,1650823592323438.0
6.0,-12.0,13.0,20.0,9.0,-1.0,-4.0,19.0,1650823592330419.0
-12.0,-3.0,-12.0,-16.0,-6.0,4.0,0.0,1.0,1650823592330419.0
10.0,8.0,2.0,-8.0,1.0,1.0,-9.0,-37.0,1650823592346404.0
-1.0,-54.0,-11.0,14.0,18.0,0.0,5.0,-40.0,1650823592346404.0
-40.0,-46.0,-59.0,-16.0,-21.0,-4.0,-1.0,-7.0,1650823592348373.0
0.0,2.0,64.0,34.0,7.0,5.0,13.0,-5.0,1650823592348373.0
8.0,16.0,16.0,-17.0,-11.0,-15.0,-12.0,60.0,1650823592369802.0
-10.0,-56.0,-33.0,-24.0,-15.0,-3.0,2.0,-10.0,1650823592369802.0
7.0,-6.0,33.0,29.0,18.0,7.0,4.0,-7.0,1650823592370809.0
15.0,7.0,-23.0,-10.0,10.0,8.0,-1.0,-6.0,1650823592370809.0
-2.0,35.0,0.0,-2.0,3.0,3.0,19.0,29.0,1650823592383922.0
-4.0,-22.0,-1.0,-13.0,-4.0,-2.0,4.0,13.0,1650823592383922.0
5.0,-27.0,-49.0,-10.0,-1.0,-3.0,2.0,71.0,1650823592390854.0
11.0,42.0,-11.0,-19.0,-7.0,-5.0,1.0,-6.0,1650823592390854.0
-9.0,18.0,48.0,57.0,23.0,18.0,12.0,8.0,1650823592406859.0
-16.0,-39.0,-49.0,-29.0,-5.0,-6.0,-40.0,-91.0,1650823592406859.0
-11.0,6.0,-5.0,-34.0,-22.0,-14.0,12.0,-13.0,1650823592408808.0
-15.0,-27.0,-52.0,5.0,-16.0,-12.0,-12.0,17.0,1650823592408808.0
-7.0,-32.0,-56.0,-32.0,1.0,-5.0,0.0,-27.0,1650823592428922.0
21.0,34.0,27.0,10.0,7.0,12.0,15.0,16.0,1650823592428922.0
-15.0,20.0,38.0,25.0,6.0,5.0,3.0,62.0,1650823592430903.0
13.0,-42.0,-16.0,0.0,7.0,2.0,6.0,10.0,1650823592430903.0
-16.0,-39.0,-59.0,-14.0,-2.0,6.0,4.0,13.0,1650823592442850.0
-18.0,-1.0,27.0,-17.0,-17.0,-16.0,-4.0,39.0,1650823592442850.0
40.0,-12.0,27.0,-5.0,0.0,-1.0,-13.0,-46.0,1650823592451827.0
-3.0,68.0,37.0,12.0,-3.0,-4.0,-6.0,-18.0,1650823592451827.0
31.0,47.0,19.0,37.0,20.0,13.0,-4.0,-2.0,1650823592466814.0
-19.0,37.0,67.0,26.0,1.0,-3.0,-1.0,20.0,1650823592466814.0
24.0,0.0,-30.0,-42.0,-3.0,6.0,11.0,88.0,1650823592468782.0
-10.0,-2.0,27.0,-9.0,-4.0,-5.0,1.0,-74.0,1650823592468782.0
1.0,-21.0,-18.0,-6.0,2.0,-1.0,-10.0,-37.0,1650823592489792.0
-6.0,-38.0,-50.0,8.0,11.0,7.0,6.0,-1.0,1650823592489792.0
-2.0,119.0,60.0,10.0,-14.0,-14.0,-4.0,-43.0,1650823592490722.0
4.0,1.0,21.0,27.0,8.0,7.0,-24.0,-56.0,1650823592490722.0
8.0,52.0,44.0,-9.0,3.0,-4.0,-4.0,14.0,1650823592502806.0
2.0,-76.0,-34.0,-9.0,-10.0,-7.0,27.0,98.0,1650823592502806.0
-21.0,21.0,-33.0,-23.0,-8.0,-6.0,-11.0,-52.0,1650823592511781.0
8.0,-9.0,11.0,-8.0,5.0,13.0,17.0,16.0,1650823592511781.0
-22.0,-7.0,62.0,13.0,-10.0,-12.0,-11.0,-32.0,1650823592526828.0
-1.0,-63.0,-86.0,8.0,12.0,6.0,-8.0,4.0,1650823592526828.0
1.0,34.0,35.0,8.0,3.0,11.0,22.0,51.0,1650823592528870.0
28.0,37.0,-14.0,-5.0,5.0,-2.0,-16.0,29.0,1650823592528870.0
-33.0,-106.0,-15.0,7.0,-6.0,-1.0,7.0,26.0,1650823592548797.0
14.0,55.0,-9.0,-6.0,0.0,5.0,12.0,72.0,1650823592548797.0
1.0,4.0,39.0,18.0,8.0,2.0,-19.0,-14.0,1650823592550763.0
6.0,-4.0,-14.0,8.0,11.0,-4.0,-16.0,-38.0,1650823592550763.0
2.0,-9.0,-44.0,-42.0,-20.0,6.0,43.0,90.0,1650823592562731.0
24.0,101.0,36.0,7.0,7.0,5.0,-15.0,-53.0,1650823592562731.0
-2.0,-32.0,0.0,34.0,9.0,2.0,12.0,26.0,1650823592571720.0
-4.0,46.0,46.0,-17.0,-12.0,-11.0,0.0,20.0,1650823592571720.0
2.0,18.0,5.0,17.0,6.0,-2.0,-17.0,-40.0,1650823592586670.0
-13.0,-58.0,-66.0,-70.0,-5.0,-2.0,0.0,-15.0,1650823592586670.0
16.0,23.0,-20.0,-19.0,5.0,-1.0,-2.0,-20.0,1650823592588663.0
-21.0,-28.0,-5.0,-1.0,1.0,6.0,12.0,11.0,1650823592588663.0
21.0,60.0,70.0,25.0,7.0,5.0,-9.0,-76.0,1650823592609654.0
-13.0,19.0,15.0,34.0,3.0,1.0,-9.0,-74.0,1650823592609654.0
25.0,12.0,4.0,-1.0,-4.0,-4.0,-2.0,21.0,1650823592610626.0
-28.0,-75.0,-26.0,5.0,-5.0,-4.0,17.0,101.0,1650823592610626.0
-22.0,24.0,14.0,-12.0,-5.0,-6.0,-24.0,-32.0,1650823592631629.0
7.0,50.0,50.0,20.0,-2.0,-7.0,-28.0,-49.0,1650823592631629.0
-18.0,0.0,17.0,15.0,9.0,6.0,-2.0,-49.0,1650823592633589.0
-10.0,6.0,-12.0,-20.0,-7.0,-8.0,7.0,29.0,1650823592633589.0
-10.0,-14.0,-31.0,-8.0,-7.0,-2.0,-27.0,-99.0,1650823592646701.0
3.0,6.0,-9.0,1.0,1.0,3.0,30.0,90.0,1650823592646701.0
-9.0,-25.0,43.0,18.0,5.0,-4.0,9.0,5.0,1650823592648660.0
2.0,-11.0,-40.0,-19.0,-12.0,-2.0,-4.0,-43.0,1650823592648660.0
14.0,0.0,-16.0,-3.0,-3.0,-3.0,4.0,36.0,1650823592669703.0
-8.0,13.0,37.0,3.0,-17.0,-10.0,-13.0,2.0,1650823592669703.0
-23.0,-80.0,-35.0,-51.0,2.0,-3.0,-2.0,-28.0,1650823592670709.0
19.0,22.0,53.0,53.0,4.0,11.0,16.0,10.0,1650823592670709.0
-4.0,-26.0,-60.0,-32.0,20.0,8.0,-5.0,-4.0,1650823592682697.0
6.0,22.0,5.0,15.0,-12.0,-6.0,4.0,-3.0,1650823592682697.0
19.0,71.0,51.0,30.0,10.0,10.0,-5.0,-39.0,1650823592691696.0
-31.0,-2.0,19.0,-15.0,-2.0,-5.0,-23.0,-68.0,1650823592691696.0
-10.0,-75.0,-58.0,-10.0,-16.0,-11.0,5.0,2.0,1650823592706633.0
22.0,-8.0,-4.0,-4.0,-3.0,-8.0,-17.0,53.0,1650823592706633.0
-46.0,-9.0,-18.0,3.0,0.0,8.0,15.0,0.0,1650823592708621.0
16.0,10.0,18.0,15.0,9.0,6.0,-1.0,39.0,1650823592708621.0
6.0,4.0,-4.0,-8.0,-10.0,-5.0,6.0,-29.0,1650823592729571.0
12.0,3.0,58.0,33.0,20.0,11.0,16.0,39.0,1650823592729571.0
-1.0,-29.0,-88.0,-33.0,-8.0,-6.0,-11.0,11.0,1650823592730542.0
-3.0,-31.0,-73.0,-64.0,-15.0,-8.0,10.0,13.0,1650823592730542.0
-20.0,12.0,65.0,23.0,-8.0,-10.0,-12.0,-16.0,1650823592743629.0
7.0,-36.0,26.0,21.0,7.0,10.0,7.0,0.0,1650823592743629.0
-21.0,-56.0,-39.0,9.0,-12.0,-9.0,-7.0,-9.0,1650823592751612.0
-13.0,76.0,25.0,13.0,10.0,6.0,5.0,-11.0,1650823592751612.0
22.0,64.0,21.0,-34.0,-16.0,-9.0,-3.0,59.0,1650823592766814.0
-11.0,-26.0,-18.0,-19.0,4.0,3.0,-14.0,-86.0,1650823592766814.0
52.0,58.0,89.0,87.0,19.0,16.0,23.0,58.0,1650823592768739.0
-25.0,-58.0,-87.0,-69.0,-9.0,-9.0,-20.0,-40.0,1650823592768739.0
23.0,-2.0,38.0,18.0,-9.0,-6.0,-12.0,3.0,1650823592789865.0
-9.0,30.0,10.0,16.0,8.0,11.0,27.0,-16.0,1650823592789865.0
20.0,-8.0,-19.0,-17.0,0.0,-2.0,-45.0,-72.0,1650823592790810.0
-17.0,-16.0,1.0,8.0,-6.0,-1.0,2.0,2.0,1650823592790810.0
13.0,-32.0,-26.0,2.0,9.0,3.0,2.0,-5.0,1650823592802778.0
-28.0,-4.0,-41.0,-28.0,-7.0,-5.0,-15.0,-87.0,1650823592802778.0
-3.0,-30.0,-25.0,-11.0,-1.0,-6.0,10.0,38.0,1650823592812124.0
20.0,28.0,83.0,46.0,11.0,11.0,15.0,1.0,1650823592812124.0
-36.0,-80.0,-110.0,-52.0,-3.0,-4.0,-10.0,8.0,1650823592827271.0
-3.0,39.0,81.0,-10.0,-14.0,-13.0,-5.0,-4.0,1650823592827271.0
9.0,-16.0,1.0,9.0,-3.0,-5.0,4.0,15.0,1650823592828232.0
8.0,60.0,45.0,20.0,-4.0,2.0,-3.0,-19.0,1650823592828232.0
6.0,9.0,-47.0,7.0,15.0,11.0,14.0,11.0,1650823592848837.0
-16.0,-39.0,-75.0,-21.0,-15.0,-10.0,-7.0,8.0,1650823592848837.0
3.0,16.0,24.0,-29.0,5.0,4.0,2.0,24.0,1650823592850814.0
9.0,-5.0,19.0,26.0,3.0,-2.0,6.0,30.0,1650823592850814.0
4.0,12.0,6.0,10.0,5.0,3.0,-8.0,-17.0,1650823592863384.0
-6.0,25.0,-12.0,-15.0,-11.0,-12.0,-13.0,-2.0,1650823592863384.0
-11.0,24.0,3.0,-6.0,-4.0,1.0,-7.0,8.0,1650823592871807.0
-1.0,-39.0,-23.0,1.0,6.0,-4.0,3.0,3.0,1650823592871807.0
-8.0,-11.0,25.0,13.0,-2.0,-4.0,-25.0,-21.0,1650823592886902.0
-8.0,2.0,-7.0,14.0,3.0,9.0,27.0,32.0,1650823592886902.0
-2.0,41.0,9.0,-6.0,2.0,-1.0,15.0,-6.0,1650823592888877.0
5.0,-9.0,-38.0,-64.0,-10.0,-4.0,-8.0,-11.0,1650823592888877.0
-18.0,-53.0,-29.0,2.0,-10.0,-8.0,3.0,14.0,1650823592908784.0
2.0,9.0,-11.0,-6.0,6.0,2.0,-15.0,-12.0,1650823592908784.0
-1.0,14.0,24.0,10.0,-3.0,2.0,-1.0,-15.0,1650823592910787.0
11.0,17.0,29.0,47.0,13.0,10.0,9.0,16.0,1650823592910787.0
-1.0,6.0,-30.0,-58.0,4.0,4.0,5.0,-19.0,1650823592931815.0
-3.0,7.0,26.0,6.0,-4.0,-2.0,1.0,-8.0,1650823592931815.0
-12.0,-37.0,-54.0,-16.0,-7.0,-7.0,-11.0,-18.0,1650823592933771.0
6.0,8.0,17.0,22.0,10.0,4.0,-4.0,1.0,1650823592933771.0
6.0,24.0,32.0,23.0,3.0,0.0,9.0,27.0,1650823592946671.0
14.0,-18.0,13.0,0.0,1.0,2.0,7.0,27.0,1650823592946671.0
-5.0,2.0,-12.0,-6.0,-3.0,-8.0,-9.0,-18.0,1650823592952653.0
-17.0,-8.0,4.0,9.0,5.0,14.0,38.0,20.0,1650823592952653.0
42.0,107.0,70.0,22.0,-2.0,-10.0,-70.0,-73.0,1650823592969619.0
-17.0,3.0,-21.0,-9.0,2.0,2.0,7.0,39.0,1650823592969619.0
10.0,10.0,15.0,9.0,-3.0,1.0,-3.0,22.0,1650823592970606.0
4.0,-13.0,-23.0,17.0,1.0,-1.0,5.0,23.0,1650823592970606.0
8.0,38.0,-26.0,-22.0,-2.0,5.0,24.0,21.0,1650823592991794.0
-11.0,-57.0,-3.0,-35.0,-25.0,-19.0,-13.0,-14.0,1650823592991794.0
-23.0,-11.0,-16.0,-7.0,0.0,2.0,-4.0,-5.0,1650823592993742.0
-3.0,-26.0,47.0,34.0,2.0,1.0,-4.0,-8.0,1650823592993742.0
-6.0,-29.0,-44.0,-14.0,-3.0,4.0,17.0,20.0,1650823593006652.0
21.0,33.0,23.0,21.0,12.0,2.0,-3.0,3.0,1650823593006652.0
-1.0,-9.0,42.0,18.0,-8.0,2.0,8.0,3.0,1650823593008607.0
-8.0,-45.0,-75.0,-60.0,-18.0,-17.0,-21.0,-16.0,1650823593008607.0
-2.0,2.0,41.0,30.0,6.0,4.0,11.0,-10.0,1650823593029591.0
10.0,3.0,-1.0,-10.0,3.0,2.0,0.0,20.0,1650823593029591.0
7.0,12.0,-3.0,-9.0,-10.0,-10.0,7.0,74.0,1650823593030548.0
12.0,24.0,21.0,13.0,2.0,-1.0,-20.0,-66.0,1650823593030548.0
-25.0,-42.0,4.0,7.0,-3.0,-5.0,-5.0,12.0,1650823593052231.0
-13.0,20.0,2.0,19.0,8.0,5.0,17.0,22.0,1650823593052231.0
8.0,-26.0,-29.0,-10.0,11.0,6.0,6.0,-14.0,1650823593053219.0
18.0,31.0,8.0,-17.0,-13.0,-10.0,-3.0,13.0,1650823593053219.0
-17.0,-47.0,-91.0,-21.0,-13.0,-10.0,7.0,-1.0,1650823593074231.0
-2.0,-35.0,5.0,12.0,11.0,5.0,-15.0,-15.0,1650823593074231.0
-9.0,31.0,47.0,-3.0,-11.0,-6.0,-4.0,-12.0,1650823593076156.0
-3.0,4.0,-12.0,-17.0,-1.0,3.0,1.0,5.0,1650823593076156.0
0.0,32.0,43.0,16.0,5.0,-1.0,-5.0,-33.0,1650823593089236.0
13.0,18.0,-23.0,-4.0,-1.0,3.0,3.0,2.0,1650823593089236.0
3.0,5.0,-20.0,-23.0,-2.0,1.0,-3.0,-19.0,1650823593091261.0
2.0,20.0,5.0,10.0,8.0,10.0,-1.0,7.0,1650823593091261.0
-1.0,12.0,63.0,26.0,1.0,1.0,4.0,-9.0,1650823593112239.0
1.0,19.0,-26.0,-16.0,-8.0,-2.0,-6.0,-27.0,1650823593112239.0
-18.0,-40.0,-35.0,-2.0,-2.0,-5.0,-21.0,-82.0,1650823593113175.0
18.0,0.0,3.0,-17.0,-3.0,-4.0,-13.0,25.0,1650823593113175.0
5.0,-3.0,-15.0,-6.0,-6.0,-6.0,7.0,52.0,1650823593126215.0
-2.0,9.0,88.0,44.0,19.0,14.0,9.0,17.0,1650823593126215.0
-17.0,7.0,-65.0,-46.0,-15.0,-10.0,-1.0,-21.0,1650823593140440.0
20.0,-21.0,-29.0,29.0,13.0,10.0,-4.0,-14.0,1650823593140440.0
-9.0,0.0,12.0,-42.0,-7.0,-5.0,-7.0,-27.0,1650823593149361.0
23.0,34.0,30.0,32.0,7.0,0.0,13.0,54.0,1650823593149361.0
0.0,-10.0,11.0,-5.0,-2.0,-2.0,0.0,8.0,1650823593151335.0
-12.0,-4.0,7.0,4.0,-5.0,-5.0,1.0,0.0,1650823593151335.0
10.0,47.0,53.0,32.0,3.0,2.0,12.0,43.0,1650823593172277.0
-6.0,5.0,-11.0,-29.0,-6.0,-2.0,-7.0,-40.0,1650823593172277.0
9.0,22.0,23.0,12.0,9.0,9.0,14.0,21.0,1650823593173281.0
-22.0,-40.0,-28.0,-12.0,-5.0,-3.0,1.0,5.0,1650823593173281.0
-4.0,-10.0,11.0,13.0,12.0,5.0,-6.0,-58.0,1650823593186246.0
-23.0,-37.0,-43.0,-18.0,-18.0,-16.0,-15.0,-9.0,1650823593186246.0
16.0,0.0,19.0,14.0,5.0,4.0,-10.0,-23.0,1650823593193277.0
-31.0,5.0,-14.0,-4.0,-1.0,-5.0,-8.0,-9.0,1650823593193277.0
6.0,-2.0,3.0,23.0,11.0,16.0,15.0,35.0,1650823593209719.0
2.0,-30.0,-14.0,-5.0,-6.0,-6.0,-6.0,3.0,1650823593209719.0
7.0,4.0,-11.0,-13.0,0.0,-5.0,9.0,13.0,1650823593210654.0
-10.0,7.0,15.0,3.0,2.0,4.0,10.0,45.0,1650823593210654.0
4.0,2.0,-8.0,2.0,-7.0,-4.0,12.0,62.0,1650823593231756.0
4.0,-2.0,-10.0,4.0,6.0,3.0,0.0,-18.0,1650823593231756.0
-9.0,10.0,-13.0,-11.0,-9.0,-10.0,-12.0,3.0,1650823593233683.0
18.0,40.0,72.0,-3.0,-1.0,-5.0,0.0,12.0,1650823593233683.0
-21.0,22.0,-23.0,-14.0,-12.0,-9.0,0.0,3.0,1650823593245710.0
5.0,44.0,46.0,17.0,5.0,11.0,9.0,15.0,1650823593245710.0
6.0,-4.0,-7.0,-14.0,-4.0,-2.0,-1.0,34.0,1650823593252686.0
0.0,-10.0,-4.0,16.0,18.0,6.0,8.0,2.0,1650823593252686.0
25.0,-19.0,20.0,6.0,5.0,1.0,-5.0,-22.0,1650823593269666.0
-20.0,3.0,-51.0,-21.0,-7.0,-5.0,-9.0,-22.0,1650823593269666.0
6.0,-13.0,26.0,12.0,-8.0,-3.0,0.0,8.0,1650823593270665.0
-2.0,-3.0,-7.0,-5.0,-7.0,-1.0,-2.0,-10.0,1650823593270665.0
-21.0,-4.0,11.0,10.0,4.0,4.0,16.0,-1.0,1650823593299170.0
29.0,6.0,-15.0,-14.0,-8.0,-7.0,6.0,63.0,1650823593299170.0
-6.0,-5.0,2.0,12.0,10.0,12.0,3.0,-7.0,1650823593301121.0
5.0,-5.0,18.0,20.0,2.0,-1.0,14.0,19.0,1650823593301121.0
2.0,-39.0,-53.0,-29.0,2.0,6.0,18.0,63.0,1650823593306108.0
15.0,29.0,33.0,29.0,9.0,8.0,-4.0,-11.0,1650823593306108.0
-10.0,6.0,2.0,-16.0,-6.0,-9.0,-7.0,2.0,1650823593313089.0
-6.0,5.0,-23.0,-7.0,-1.0,3.0,-2.0,2.0,1650823593313089.0
32.0,33.0,52.0,-4.0,-4.0,-2.0,2.0,28.0,1650823593329083.0
-55.0,-85.0,-43.0,-23.0,-16.0,-10.0,-11.0,-35.0,1650823593329083.0
23.0,32.0,33.0,32.0,4.0,1.0,3.0,16.0,1650823593331045.0
0.0,-13.0,-57.0,-25.0,28.0,14.0,0.0,-19.0,1650823593331045.0
-7.0,-11.0,4.0,14.0,1.0,2.0,-7.0,0.0,1650823593351769.0
20.0,-5.0,8.0,10.0,5.0,1.0,-6.0,-54.0,1650823593351769.0
-15.0,-29.0,11.0,6.0,3.0,5.0,7.0,2.0,1650823593353736.0
-6.0,-15.0,4.0,-23.0,-29.0,-19.0,-12.0,-15.0,1650823593353736.0
-4.0,9.0,2.0,8.0,5.0,4.0,-9.0,-29.0,1650823593365739.0
-5.0,0.0,3.0,-5.0,6.0,8.0,8.0,36.0,1650823593365739.0
16.0,1.0,-14.0,16.0,2.0,-3.0,-27.0,-59.0,1650823593372748.0
-39.0,4.0,-17.0,-16.0,-13.0,-13.0,-3.0,-43.0,1650823593372748.0
7.0,19.0,44.0,32.0,10.0,3.0,-3.0,10.0,1650823593389710.0
-6.0,-13.0,-26.0,-47.0,-13.0,-9.0,1.0,-2.0,1650823593389710.0
-23.0,-51.0,10.0,21.0,13.0,11.0,26.0,73.0,1650823593390644.0
31.0,33.0,49.0,23.0,-3.0,-1.0,-17.0,-37.0,1650823593390644.0
-21.0,-52.0,-69.0,-46.0,-18.0,-15.0,-14.0,-34.0,1650823593412033.0
-9.0,-27.0,-42.0,-8.0,-7.0,-2.0,1.0,1.0,1650823593412033.0
19.0,14.0,20.0,37.0,20.0,16.0,12.0,17.0,1650823593412991.0
-17.0,-42.0,-59.0,-49.0,-26.0,-17.0,-6.0,6.0,1650823593412991.0
4.0,35.0,19.0,22.0,1.0,-2.0,5.0,22.0,1650823593424956.0
1.0,10.0,6.0,5.0,7.0,6.0,3.0,7.0,1650823593424956.0
-1.0,-2.0,-34.0,-29.0,-5.0,-6.0,-2.0,-8.0,1650823593434932.0
9.0,-7.0,30.0,49.0,14.0,13.0,1.0,-28.0,1650823593434932.0
17.0,1.0,-14.0,-12.0,-2.0,-4.0,-6.0,-7.0,1650823593448894.0
33.0,-7.0,-9.0,-4.0,-7.0,-3.0,-5.0,10.0,1650823593448894.0
-8.0,27.0,27.0,6.0,-4.0,-3.0,6.0,1.0,1650823593450888.0
3.0,13.0,29.0,20.0,7.0,2.0,0.0,-53.0,1650823593450888.0
-17.0,-31.0,-15.0,-12.0,4.0,4.0,2.0,32.0,1650823593471900.0
31.0,89.0,60.0,27.0,17.0,12.0,9.0,17.0,1650823593471900.0
-7.0,-35.0,-40.0,-39.0,-26.0,-16.0,2.0,-14.0,1650823593473855.0
-19.0,-32.0,-40.0,-20.0,-6.0,-2.0,-3.0,14.0,1650823593473855.0
-8.0,40.0,14.0,-12.0,-2.0,2.0,-2.0,-26.0,1650823593485794.0
14.0,15.0,62.0,40.0,13.0,5.0,6.0,8.0,1650823593485794.0
-1.0,58.0,32.0,-12.0,-4.0,-5.0,-12.0,-11.0,1650823593494771.0
-8.0,-38.0,-77.0,-15.0,7.0,-1.0,1.0,38.0,1650823593494771.0
-3.0,-24.0,39.0,13.0,-20.0,-5.0,-14.0,-60.0,1650823593509674.0
-19.0,26.0,10.0,15.0,0.0,-3.0,0.0,21.0,1650823593509674.0
8.0,9.0,2.0,-14.0,-1.0,0.0,0.0,16.0,1650823593510605.0
-10.0,0.0,40.0,19.0,13.0,5.0,9.0,27.0,1650823593510605.0
-5.0,15.0,31.0,28.0,11.0,5.0,-2.0,30.0,1650823593531724.0
-16.0,44.0,-39.0,-36.0,-11.0,-8.0,-12.0,-50.0,1650823593531724.0
2.0,-3.0,4.0,12.0,-8.0,-3.0,4.0,12.0,1650823593533678.0
30.0,16.0,-15.0,-41.0,-20.0,-8.0,7.0,30.0,1650823593533678.0
0.0,-3.0,10.0,3.0,8.0,2.0,5.0,-4.0,1650823593545648.0
-14.0,11.0,67.0,52.0,23.0,14.0,3.0,-3.0,1650823593545648.0
6.0,-43.0,-93.0,-50.0,-15.0,-11.0,-2.0,27.0,1650823593554604.0
11.0,34.0,34.0,1.0,-15.0,-7.0,-6.0,13.0,1650823593554604.0
-1.0,16.0,18.0,1.0,1.0,1.0,1.0,-11.0,1650823593576707.0
6.0,-20.0,-6.0,-3.0,6.0,2.0,-3.0,-3.0,1650823593576707.0
1.0,0.0,14.0,14.0,11.0,7.0,2.0,-7.0,1650823593582654.0
8.0,58.0,30.0,28.0,8.0,5.0,7.0,21.0,1650823593582654.0
-2.0,-1.0,-39.0,-17.0,-16.0,-11.0,-10.0,-8.0,1650823593591698.0
-10.0,-46.0,-57.0,-28.0,-12.0,-6.0,7.0,19.0,1650823593591698.0
-11.0,-8.0,-14.0,2.0,-5.0,-2.0,-3.0,16.0,1650823593593646.0
2.0,-1.0,1.0,12.0,0.0,1.0,-3.0,23.0,1650823593593646.0
21.0,2.0,47.0,29.0,25.0,13.0,11.0,22.0,1650823593605660.0
13.0,51.0,56.0,41.0,11.0,7.0,4.0,50.0,1650823593605660.0
-38.0,-45.0,-69.0,-85.0,-50.0,-32.0,-27.0,-77.0,1650823593614570.0
-11.0,52.0,98.0,35.0,-7.0,-1.0,3.0,-11.0,1650823593614570.0
7.0,-3.0,9.0,23.0,7.0,7.0,8.0,-3.0,1650823593629643.0
-3.0,0.0,27.0,9.0,2.0,0.0,-2.0,7.0,1650823593629643.0
19.0,28.0,27.0,37.0,27.0,17.0,3.0,8.0,1650823593630613.0
11.0,-19.0,-14.0,2.0,4.0,0.0,8.0,57.0,1650823593630613.0
-10.0,-15.0,-57.0,-44.0,-20.0,-9.0,2.0,-31.0,1650823593651642.0
-1.0,-10.0,-15.0,-13.0,-8.0,-5.0,-3.0,-25.0,1650823593651642.0
11.0,-57.0,-30.0,13.0,12.0,8.0,-6.0,-40.0,1650823593653640.0
3.0,26.0,11.0,9.0,12.0,7.0,9.0,54.0,1650823593653640.0
13.0,34.0,-9.0,35.0,26.0,13.0,-5.0,-7.0,1650823593665803.0
-17.0,-64.0,-76.0,-111.0,-68.0,-47.0,-37.0,-89.0,1650823593665803.0
0.0,33.0,24.0,15.0,2.0,2.0,5.0,14.0,1650823593674147.0
6.0,-1.0,1.0,1.0,9.0,10.0,-1.0,-27.0,1650823593674147.0
5.0,-7.0,17.0,2.0,2.0,0.0,4.0,22.0,1650823593688132.0
1.0,-8.0,-18.0,24.0,10.0,8.0,10.0,24.0,1650823593688132.0
4.0,-4.0,-3.0,-15.0,13.0,6.0,8.0,3.0,1650823593697171.0
-12.0,11.0,17.0,8.0,-8.0,3.0,-4.0,-28.0,1650823593697171.0
-10.0,8.0,9.0,-4.0,-4.0,-7.0,-1.0,18.0,1650823593711349.0
-1.0,-8.0,-16.0,-23.0,-14.0,-8.0,-11.0,-21.0,1650823593711349.0
2.0,16.0,23.0,8.0,12.0,11.0,13.0,13.0,1650823593713290.0
1.0,-23.0,-26.0,-6.0,5.0,2.0,-9.0,-27.0,1650823593713290.0
-6.0,-23.0,-10.0,-3.0,-17.0,-7.0,-9.0,-12.0,1650823593725308.0
-1.0,15.0,14.0,2.0,5.0,5.0,14.0,9.0,1650823593725308.0
9.0,20.0,21.0,20.0,5.0,-1.0,-10.0,6.0,1650823593734221.0
-15.0,-13.0,3.0,4.0,7.0,3.0,4.0,-17.0,1650823593734221.0
8.0,38.0,10.0,-14.0,-4.0,-3.0,-3.0,2.0,1650823593748959.0
-18.0,-37.0,-36.0,-20.0,7.0,1.0,-7.0,-3.0,1650823593748959.0
5.0,24.0,24.0,14.0,-2.0,-2.0,16.0,13.0,1650823593750928.0
-2.0,-17.0,-21.0,-11.0,-7.0,-7.0,-8.0,-10.0,1650823593750928.0
-5.0,8.0,6.0,-2.0,-13.0,-4.0,-8.0,-3.0,1650823593771892.0
17.0,-16.0,-6.0,10.0,8.0,-1.0,6.0,18.0,1650823593771892.0
0.0,10.0,20.0,16.0,-4.0,3.0,1.0,5.0,1650823593773874.0
-25.0,-23.0,-7.0,-10.0,-1.0,-2.0,0.0,-11.0,1650823593773874.0
7.0,-25.0,-21.0,-6.0,10.0,5.0,6.0,7.0,1650823593785861.0
1.0,4.0,14.0,9.0,-3.0,1.0,-3.0,2.0,1650823593785861.0
16.0,8.0,4.0,0.0,-9.0,-7.0,-8.0,2.0,1650823593794811.0
-5.0,11.0,-11.0,-3.0,-2.0,-1.0,1.0,3.0,1650823593794811.0
-8.0,-17.0,-19.0,-13.0,-12.0,-6.0,-1.0,-3.0,1650823593809838.0
-5.0,3.0,9.0,17.0,12.0,5.0,8.0,9.0,1650823593809838.0
-8.0,2.0,9.0,-16.0,-15.0,-10.0,-7.0,-5.0,1650823593810776.0
11.0,-2.0,-9.0,-7.0,-3.0,-3.0,-2.0,3.0,1650823593810776.0
-3.0,-9.0,-4.0,6.0,13.0,0.0,-4.0,-2.0,1650823593831778.0
-6.0,4.0,-1.0,11.0,-14.0,-4.0,1.0,0.0,1650823593831778.0
-3.0,2.0,7.0,14.0,18.0,6.0,-3.0,2.0,1650823593833706.0
10.0,-4.0,-1.0,-10.0,-5.0,-3.0,-2.0,-3.0,1650823593833706.0
5.0,-8.0,-13.0,-4.0,0.0,0.0,4.0,2.0,1650823593854680.0
18.0,10.0,13.0,6.0,7.0,3.0,13.0,8.0,1650823593854680.0
-52.0,-4.0,-2.0,4.0,1.0,2.0,3.0,-3.0,1650823593856703.0
9.0,-13.0,-9.0,-7.0,-2.0,-7.0,-22.0,-10.0,1650823593856703.0
-4.0,0.0,1.0,1.0,2.0,3.0,7.0,1.0,1650823593869708.0
8.0,-2.0,-2.0,-2.0,-1.0,1.0,8.0,45.0,1650823593869708.0
9.0,3.0,-1.0,-3.0,-6.0,-8.0,-12.0,-66.0,1650823593870638.0
3.0,0.0,-3.0,0.0,0.0,2.0,4.0,-1.0,1650823593870638.0
-2.0,1.0,2.0,4.0,4.0,2.0,0.0,0.0,1650823593891767.0
-5.0,1.0,3.0,-8.0,1.0,4.0,2.0,0.0,1650823593891767.0
1.0,-13.0,-17.0,7.0,1.0,0.0,3.0,31.0,1650823593893722.0
5.0,-8.0,2.0,-7.0,-8.0,-6.0,0.0,0.0,1650823593893722.0
-2.0,-3.0,-1.0,-1.0,-4.0,-2.0,-6.0,-11.0,1650823593913842.0
-5.0,-2.0,-2.0,-4.0,4.0,4.0,-3.0,-10.0,1650823593913842.0
5.0,1.0,-1.0,-1.0,4.0,5.0,2.0,15.0,1650823593915851.0
6.0,2.0,0.0,6.0,1.0,1.0,0.0,-5.0,1650823593915851.0
-6.0,-5.0,-6.0,-8.0,-7.0,-7.0,2.0,7.0,1650823593928832.0
-4.0,-1.0,0.0,1.0,-1.0,-1.0,-4.0,-7.0,1650823593928832.0
4.0,7.0,8.0,5.0,2.0,1.0,0.0,5.0,1650823593935813.0
0.0,1.0,1.0,-1.0,1.0,4.0,5.0,5.0,1650823593935813.0
-3.0,-4.0,-6.0,-7.0,5.0,1.0,-3.0,-3.0,1650823593951773.0
2.0,3.0,4.0,2.0,-14.0,-4.0,-5.0,-8.0,1650823593951773.0
1.0,5.0,7.0,6.0,3.0,1.0,2.0,0.0,1650823593953789.0
-3.0,-4.0,1.0,2.0,9.0,2.0,4.0,-1.0,1650823593953789.0
-2.0,0.0,4.0,-1.0,-7.0,-4.0,0.0,13.0,1650823593974672.0
-1.0,-6.0,-5.0,-4.0,10.0,7.0,-2.0,-16.0,1650823593974672.0
2.0,4.0,3.0,0.0,-7.0,-6.0,2.0,10.0,1650823593976696.0
5.0,8.0,-2.0,7.0,-5.0,0.0,1.0,5.0,1650823593976696.0
-2.0,-11.0,-5.0,-11.0,-2.0,-3.0,-2.0,-1.0,1650823593989702.0
-2.0,-2.0,5.0,3.0,-3.0,-2.0,0.0,0.0,1650823593989702.0
0.0,3.0,1.0,-1.0,0.0,3.0,0.0,1.0,1650823593990633.0
2.0,0.0,2.0,3.0,8.0,1.0,-2.0,-2.0,1650823593990633.0
1.0,4.0,0.0,6.0,-1.0,0.0,-1.0,-6.0,1650823594011605.0
-2.0,-3.0,-3.0,1.0,3.0,-4.0,-1.0,-2.0,1650823594011605.0
0.0,1.0,0.0,-1.0,8.0,3.0,-1.0,-1.0,1650823594013571.0
3.0,2.0,2.0,-4.0,-12.0,1.0,2.0,1.0,1650823594013571.0
0.0,-4.0,-8.0,-2.0,7.0,0.0,1.0,-1.0,1650823594034684.0
1.0,3.0,2.0,0.0,-2.0,0.0,-1.0,-1.0,1650823594034684.0
0.0,-2.0,-6.0,0.0,-2.0,-5.0,-2.0,2.0,1650823594035686.0
-7.0,-10.0,-3.0,-4.0,-1.0,-3.0,-2.0,0.0,1650823594035686.0
-4.0,1.0,0.0,-2.0,-3.0,0.0,-2.0,-5.0,1650823594048681.0
0.0,-3.0,-5.0,0.0,1.0,-1.0,-3.0,-2.0,1650823594048681.0
4.0,8.0,8.0,4.0,-4.0,-4.0,0.0,1.0,1650823594055635.0
-1.0,-3.0,2.0,-8.0,-3.0,-6.0,-4.0,-3.0,1650823594055635.0
-1.0,3.0,-6.0,-4.0,-10.0,-2.0,-3.0,-2.0,1650823594071599.0
0.0,-2.0,1.0,8.0,11.0,7.0,4.0,2.0,1650823594071599.0
0.0,0.0,2.0,1.0,-3.0,-3.0,1.0,1.0,1650823594073588.0
1.0,-4.0,-4.0,1.0,-1.0,-1.0,2.0,-1.0,1650823594073588.0
-1.0,2.0,-1.0,-3.0,-1.0,-2.0,-1.0,0.0,1650823594095532.0
-1.0,-3.0,-3.0,-8.0,-5.0,-2.0,-1.0,-2.0,1650823594095532.0
-4.0,0.0,3.0,3.0,-1.0,3.0,1.0,0.0,1650823594097524.0
1.0,5.0,3.0,2.0,-3.0,0.0,1.0,1.0,1650823594097524.0
0.0,-7.0,-12.0,-5.0,11.0,2.0,1.0,-1.0,1650823594108557.0
-2.0,-2.0,-2.0,-3.0,-2.0,-3.0,-1.0,0.0,1650823594108557.0
0.0,1.0,-1.0,2.0,5.0,6.0,-1.0,-1.0,1650823594115504.0
1.0,2.0,3.0,4.0,8.0,4.0,3.0,0.0,1650823594115504.0
-1.0,-4.0,-5.0,-1.0,-6.0,-5.0,-2.0,1.0,1650823594132429.0
-1.0,9.0,7.0,-2.0,-3.0,-5.0,-1.0,-2.0,1650823594132429.0
-1.0,-11.0,-6.0,-9.0,-12.0,-4.0,-4.0,-1.0,1650823594133427.0
1.0,3.0,0.0,0.0,-7.0,-6.0,-2.0,0.0,1650823594133427.0
-1.0,2.0,1.0,4.0,1.0,1.0,2.0,-1.0,1650823594153806.0
0.0,-2.0,-1.0,3.0,8.0,1.0,-2.0,-2.0,1650823594153806.0
2.0,2.0,-2.0,-5.0,2.0,0.0,2.0,1.0,1650823594155780.0
-1.0,-1.0,-4.0,-4.0,-1.0,0.0,-1.0,-2.0,1650823594155780.0
-4.0,-3.0,0.0,-2.0,-2.0,0.0,-1.0,-2.0,1650823594168765.0
0.0,-2.0,-6.0,3.0,-3.0,-1.0,-1.0,1.0,1650823594168765.0
1.0,5.0,2.0,1.0,2.0,6.0,0.0,-1.0,1650823594175747.0
-6.0,-2.0,-3.0,-7.0,-1.0,-6.0,-2.0,-3.0,1650823594175747.0
0.0,5.0,4.0,1.0,-6.0,-2.0,3.0,2.0,1650823594191684.0
3.0,10.0,4.0,16.0,5.0,5.0,2.0,0.0,1650823594191684.0
-2.0,-11.0,5.0,-7.0,-4.0,-3.0,-2.0,-2.0,1650823594193679.0
-1.0,-5.0,-14.0,-11.0,-3.0,1.0,-1.0,-2.0,1650823594193679.0
0.0,-2.0,-2.0,-1.0,0.0,0.0,-4.0,-3.0,1650823594214739.0
0.0,6.0,-3.0,-2.0,7.0,0.0,1.0,0.0,1650823594214739.0
0.0,-1.0,2.0,8.0,-12.0,-4.0,3.0,0.0,1650823594215744.0
-1.0,0.0,2.0,1.0,3.0,3.0,1.0,1.0,1650823594215744.0
0.0,1.0,-4.0,-5.0,-3.0,-3.0,-3.0,-1.0,1650823594229100.0
-3.0,-10.0,-2.0,-5.0,-4.0,-5.0,-3.0,-2.0,1650823594229100.0
-1.0,1.0,-1.0,-1.0,0.0,-4.0,-3.0,0.0,1650823594235139.0
-1.0,-8.0,-4.0,-2.0,1.0,2.0,-1.0,-1.0,1650823594235139.0
3.0,11.0,8.0,4.0,-3.0,-2.0,1.0,1.0,1650823594252772.0
-10.0,-17.0,-3.0,-12.0,-4.0,-1.0,0.0,-5.0,1650823594252772.0
0.0,-2.0,-7.0,-2.0,5.0,-1.0,1.0,-1.0,1650823594253777.0
1.0,1.0,0.0,2.0,-3.0,1.0,-3.0,-1.0,1650823594253777.0
3.0,7.0,9.0,4.0,5.0,3.0,2.0,1.0,1650823594274798.0
-1.0,-12.0,-6.0,0.0,-4.0,-5.0,-2.0,1.0,1650823594274798.0
2.0,13.0,6.0,2.0,1.0,0.0,1.0,1.0,1650823594275781.0
-1.0,-4.0,2.0,1.0,2.0,2.0,1.0,-1.0,1650823594275781.0
1.0,-3.0,-1.0,4.0,0.0,1.0,-1.0,0.0,1650823594288747.0
1.0,3.0,-2.0,-4.0,5.0,-3.0,-4.0,0.0,1650823594288747.0
0.0,-4.0,-6.0,-5.0,-8.0,0.0,1.0,-2.0,1650823594303386.0
-1.0,3.0,4.0,5.0,11.0,0.0,1.0,1.0,1650823594303386.0
-4.0,-7.0,-1.0,-1.0,-17.0,-4.0,0.0,-1.0,1650823594311842.0
2.0,2.0,0.0,-4.0,-3.0,-2.0,-1.0,0.0,1650823594311842.0
-1.0,-6.0,-10.0,2.0,7.0,2.0,0.0,0.0,1650823594313796.0
3.0,8.0,11.0,12.0,7.0,6.0,5.0,1.0,1650823594313796.0
-3.0,-8.0,-24.0,-16.0,3.0,1.0,0.0,-2.0,1650823594334688.0
0.0,3.0,1.0,-4.0,-6.0,1.0,1.0,0.0,1650823594334688.0
-1.0,1.0,2.0,-1.0,-5.0,-5.0,-2.0,-1.0,1650823594335949.0
-1.0,1.0,-1.0,4.0,-1.0,-5.0,-2.0,1.0,1650823594335949.0
-3.0,-6.0,6.0,12.0,4.0,1.0,0.0,-2.0,1650823594347982.0
-2.0,2.0,-5.0,-12.0,2.0,3.0,2.0,1.0,1650823594347982.0
-2.0,-1.0,-1.0,0.0,2.0,-1.0,0.0,1.0,1650823594356950.0
0.0,-1.0,-1.0,-4.0,-3.0,-1.0,-1.0,-1.0,1650823594356950.0
1.0,2.0,-3.0,-5.0,-1.0,-2.0,-2.0,1.0,1650823594371846.0
1.0,-1.0,1.0,5.0,2.0,-1.0,-2.0,-3.0,1650823594371846.0
-2.0,0.0,4.0,2.0,3.0,1.0,1.0,-1.0,1650823594373842.0
-1.0,-4.0,-9.0,3.0,-2.0,0.0,3.0,1.0,1650823594373842.0
-1.0,3.0,10.0,-2.0,-5.0,-6.0,-4.0,-1.0,1650823594393968.0
0.0,0.0,5.0,1.0,-1.0,6.0,0.0,-1.0,1650823594393968.0
1.0,3.0,1.0,-2.0,4.0,-3.0,-1.0,0.0,1650823594395966.0
-1.0,-3.0,-2.0,-3.0,-13.0,-4.0,-2.0,-1.0,1650823594395966.0
0.0,2.0,3.0,3.0,4.0,0.0,0.0,0.0,1650823594408947.0
2.0,5.0,4.0,6.0,4.0,4.0,1.0,4.0,1650823594408947.0
0.0,-3.0,-19.0,-6.0,-2.0,-1.0,-1.0,1.0,1650823594416969.0
-4.0,-10.0,10.0,-1.0,-1.0,-3.0,0.0,-3.0,1650823594416969.0
-2.0,1.0,-7.0,-5.0,-1.0,-1.0,-4.0,-3.0,1650823594431948.0
-1.0,-2.0,2.0,-4.0,-10.0,-8.0,-3.0,-1.0,1650823594431948.0
-1.0,-2.0,6.0,5.0,-2.0,3.0,0.0,-2.0,1650823594432946.0
3.0,4.0,-3.0,-2.0,-2.0,-4.0,-1.0,2.0,1650823594432946.0
1.0,-1.0,3.0,2.0,9.0,8.0,6.0,2.0,1650823594454869.0
-2.0,-7.0,8.0,3.0,6.0,-2.0,-1.0,0.0,1650823594454869.0
1.0,4.0,0.0,-2.0,-5.0,-1.0,-4.0,-4.0,1650823594455865.0
-1.0,4.0,4.0,-6.0,-2.0,-4.0,-2.0,-1.0,1650823594455865.0
1.0,0.0,0.0,-1.0,-1.0,0.0,-1.0,0.0,1650823594467832.0
0.0,3.0,-5.0,2.0,-2.0,-2.0,0.0,-1.0,1650823594467832.0
-3.0,-8.0,-11.0,-7.0,2.0,2.0,1.0,0.0,1650823594476809.0
0.0,0.0,-5.0,-2.0,0.0,-3.0,0.0,-1.0,1650823594476809.0
-1.0,-5.0,2.0,-2.0,6.0,-1.0,-2.0,1.0,1650823594492302.0
-2.0,0.0,-4.0,-3.0,-15.0,1.0,0.0,-2.0,1650823594492302.0
1.0,-2.0,0.0,1.0,3.0,-6.0,-2.0,1.0,1650823594493303.0
-1.0,1.0,0.0,1.0,1.0,4.0,1.0,-2.0,1650823594493303.0
0.0,-1.0,-2.0,4.0,3.0,-1.0,0.0,1.0,1650823594514676.0
-3.0,-7.0,-11.0,-6.0,9.0,3.0,-3.0,-1.0,1650823594514676.0
-2.0,0.0,2.0,0.0,-7.0,1.0,2.0,-1.0,1650823594515687.0
0.0,-1.0,-1.0,-3.0,-5.0,-2.0,-1.0,-1.0,1650823594515687.0
0.0,-4.0,3.0,-4.0,-5.0,-3.0,-2.0,-1.0,1650823594527734.0
0.0,0.0,-3.0,5.0,0.0,1.0,1.0,0.0,1650823594527734.0
1.0,4.0,10.0,5.0,6.0,3.0,-1.0,1.0,1650823594536654.0
1.0,-6.0,1.0,-2.0,1.0,2.0,-2.0,-1.0,1650823594536654.0
-6.0,-9.0,-4.0,-3.0,-8.0,-5.0,-2.0,-3.0,1650823594551723.0
4.0,5.0,2.0,2.0,-1.0,4.0,1.0,0.0,1650823594551723.0
0.0,-3.0,-4.0,2.0,6.0,5.0,1.0,1.0,1650823594553680.0
-3.0,2.0,9.0,1.0,-3.0,-2.0,-3.0,0.0,1650823594553680.0
2.0,11.0,3.0,1.0,-3.0,-2.0,-3.0,-1.0,1650823594574661.0
-1.0,-3.0,-17.0,-12.0,7.0,1.0,1.0,-2.0,1650823594574661.0
0.0,2.0,6.0,2.0,-14.0,-7.0,0.0,-1.0,1650823594575594.0
2.0,0.0,-6.0,0.0,2.0,0.0,0.0,0.0,1650823594575594.0
-2.0,-5.0,-4.0,-2.0,-4.0,0.0,0.0,-3.0,1650823594587590.0
-1.0,3.0,2.0,5.0,1.0,-3.0,-3.0,1.0,1650823594587590.0
1.0,-1.0,-1.0,-4.0,2.0,6.0,-1.0,-1.0,1650823594596569.0
0.0,-2.0,-7.0,-4.0,-2.0,-1.0,0.0,0.0,1650823594596569.0
-2.0,-1.0,2.0,3.0,1.0,0.0,2.0,-1.0,1650823594611561.0
1.0,-2.0,10.0,12.0,-5.0,-5.0,0.0,0.0,1650823594611561.0
-1.0,-5.0,-3.0,-10.0,10.0,0.0,0.0,-2.0,1650823594613494.0
-1.0,1.0,0.0,1.0,5.0,1.0,-2.0,-1.0,1650823594613494.0
0.0,-2.0,0.0,-4.0,0.0,1.0,1.0,0.0,1650823594634658.0
-3.0,-1.0,4.0,-2.0,-10.0,-5.0,-4.0,-2.0,1650823594634658.0
0.0,0.0,-3.0,2.0,-3.0,-4.0,-1.0,0.0,1650823594635600.0
-2.0,4.0,-2.0,-6.0,11.0,8.0,-2.0,-2.0,1650823594635600.0
2.0,3.0,2.0,9.0,-7.0,-5.0,1.0,0.0,1650823594647619.0
0.0,-2.0,-7.0,-5.0,-2.0,0.0,1.0,-2.0,1650823594647619.0
-2.0,1.0,10.0,0.0,-1.0,-1.0,-1.0,-1.0,1650823594656642.0
1.0,-1.0,-5.0,-3.0,-12.0,-7.0,0.0,2.0,1650823594656642.0
-2.0,-3.0,-6.0,-5.0,-4.0,-2.0,-2.0,-1.0,1650823594671738.0
0.0,1.0,3.0,2.0,3.0,1.0,2.0,0.0,1650823594671738.0
-2.0,-1.0,-3.0,0.0,-1.0,2.0,0.0,-1.0,1650823594673707.0
-1.0,-3.0,-5.0,-1.0,-2.0,-3.0,-2.0,-1.0,1650823594673707.0
-1.0,-2.0,2.0,-1.0,5.0,7.0,0.0,0.0,1650823594694699.0
1.0,0.0,2.0,0.0,-3.0,-3.0,0.0,0.0,1650823594694699.0
-2.0,3.0,0.0,1.0,5.0,0.0,0.0,0.0,1650823594695691.0
0.0,0.0,7.0,3.0,-3.0,0.0,2.0,0.0,1650823594695691.0
-3.0,-2.0,3.0,-2.0,1.0,0.0,2.0,-1.0,1650823594707727.0
0.0,-1.0,1.0,-1.0,1.0,2.0,-1.0,0.0,1650823594707727.0
-2.0,-2.0,-1.0,2.0,-3.0,1.0,-2.0,-2.0,1650823594716636.0
1.0,2.0,3.0,2.0,0.0,-2.0,-1.0,0.0,1650823594716636.0
0.0,-1.0,-6.0,-4.0,-6.0,-2.0,-3.0,-1.0,1650823594731664.0
0.0,1.0,-3.0,-3.0,-4.0,-6.0,0.0,-1.0,1650823594731664.0
3.0,0.0,2.0,1.0,-2.0,-4.0,-1.0,2.0,1650823594733591.0
0.0,0.0,1.0,1.0,8.0,6.0,2.0,-1.0,1650823594733591.0
-1.0,4.0,1.0,5.0,1.0,3.0,-1.0,-1.0,1650823594754561.0
-2.0,-4.0,-4.0,-3.0,-3.0,1.0,-2.0,-3.0,1650823594754561.0
-2.0,0.0,5.0,-2.0,1.0,0.0,0.0,-1.0,1650823594755531.0
-2.0,-1.0,-7.0,-3.0,-2.0,0.0,0.0,-2.0,1650823594755531.0
0.0,1.0,3.0,0.0,0.0,0.0,0.0,0.0,1650823594767527.0
-2.0,-3.0,0.0,-1.0,-3.0,-4.0,-2.0,1.0,1650823594767527.0
0.0,2.0,-1.0,2.0,-1.0,0.0,-2.0,-3.0,1650823594777485.0
-2.0,3.0,1.0,0.0,2.0,2.0,1.0,-1.0,1650823594777485.0
0.0,0.0,-2.0,-4.0,-6.0,-7.0,-5.0,-1.0,1650823594791503.0
2.0,-2.0,-1.0,4.0,3.0,5.0,2.0,1.0,1650823594791503.0
-1.0,7.0,11.0,1.0,6.0,-2.0,0.0,0.0,1650823594793431.0
1.0,4.0,1.0,2.0,-2.0,-2.0,-2.0,-1.0,1650823594793431.0
1.0,-4.0,-10.0,-2.0,0.0,-2.0,0.0,0.0,1650823594814676.0
-1.0,2.0,10.0,-5.0,-7.0,-2.0,-3.0,-1.0,1650823594814676.0
1.0,-2.0,-3.0,0.0,-2.0,-1.0,1.0,0.0,1650823594815456.0
-2.0,-6.0,-7.0,-2.0,-2.0,-1.0,-2.0,-3.0,1650823594815456.0
1.0,-1.0,7.0,1.0,4.0,5.0,2.0,1.0,1650823594836752.0
0.0,4.0,0.0,4.0,-4.0,0.0,2.0,0.0,1650823594836752.0
0.0,-1.0,-4.0,1.0,-2.0,-5.0,0.0,1.0,1650823594842698.0
-1.0,-2.0,-3.0,-4.0,-2.0,-6.0,-2.0,-1.0,1650823594842698.0
0.0,-4.0,-3.0,-3.0,3.0,4.0,-2.0,-1.0,1650823594851673.0
-2.0,-1.0,-5.0,0.0,1.0,-1.0,1.0,1.0,1650823594851673.0
-1.0,-2.0,-4.0,-1.0,3.0,-1.0,-2.0,-1.0,1650823594853662.0
-1.0,-1.0,1.0,2.0,-6.0,-2.0,-1.0,-1.0,1650823594853662.0
-2.0,1.0,-1.0,4.0,4.0,1.0,0.0,-1.0,1650823594874721.0
1.0,2.0,-1.0,-10.0,-1.0,-1.0,-1.0,-1.0,1650823594874721.0
0.0,-5.0,-5.0,-7.0,-5.0,-5.0,-1.0,-3.0,1650823594875714.0
-3.0,0.0,0.0,-5.0,-12.0,-7.0,-3.0,-1.0,1650823594875714.0
2.0,7.0,6.0,4.0,4.0,1.0,2.0,1.0,1650823594896684.0
-6.0,-13.0,-7.0,7.0,22.0,16.0,6.0,1.0,1650823594896684.0
2.0,-3.0,-5.0,3.0,-3.0,-1.0,-1.0,2.0,1650823594898652.0
1.0,0.0,3.0,-4.0,10.0,4.0,-5.0,-2.0,1650823594898652.0
0.0,3.0,-4.0,-8.0,-24.0,-13.0,-4.0,-2.0,1650823594911684.0
2.0,1.0,0.0,0.0,-4.0,-4.0,1.0,0.0,1650823594911684.0
-3.0,0.0,-3.0,0.0,3.0,2.0,1.0,-1.0,1650823594913633.0
-1.0,-4.0,-7.0,-3.0,0.0,0.0,0.0,0.0,1650823594913633.0
0.0,5.0,12.0,0.0,0.0,-2.0,-2.0,2.0,1650823594934608.0
-4.0,-6.0,4.0,1.0,-1.0,-2.0,-2.0,-4.0,1650823594934608.0
-3.0,-5.0,-12.0,-3.0,6.0,10.0,1.0,1.0,1650823594935539.0
3.0,3.0,3.0,7.0,4.0,2.0,2.0,2.0,1650823594935539.0
-1.0,-2.0,0.0,-1.0,3.0,3.0,-2.0,0.0,1650823594964488.0
-1.0,4.0,0.0,-3.0,-2.0,-5.0,-2.0,0.0,1650823594964488.0
0.0,-3.0,-8.0,-6.0,-15.0,-5.0,-3.0,-4.0,1650823594965459.0
-1.0,-3.0,0.0,-1.0,-4.0,-5.0,-2.0,-2.0,1650823594965459.0
-2.0,-5.0,-9.0,-3.0,2.0,-1.0,-1.0,-3.0,1650823594971443.0
0.0,4.0,8.0,8.0,7.0,8.0,3.0,0.0,1650823594971443.0
1.0,0.0,0.0,8.0,5.0,-1.0,-1.0,0.0,1650823594978424.0
0.0,0.0,0.0,-9.0,7.0,3.0,0.0,0.0,1650823594978424.0
-3.0,-8.0,-7.0,-9.0,-11.0,-5.0,-2.0,-2.0,1650823594994448.0
-1.0,3.0,-1.0,-3.0,-9.0,-7.0,-4.0,-2.0,1650823594994448.0
2.0,3.0,4.0,0.0,-2.0,-2.0,-1.0,2.0,1650823594996376.0
-1.0,-3.0,-3.0,4.0,0.0,2.0,1.0,0.0,1650823594996376.0
-1.0,1.0,1.0,5.0,7.0,-1.0,3.0,0.0,1650823595016812.0
0.0,1.0,-2.0,0.0,-2.0,1.0,-2.0,0.0,1650823595016812.0
0.0,1.0,1.0,-2.0,4.0,2.0,0.0,0.0,1650823595018740.0
0.0,-3.0,3.0,-1.0,-7.0,-3.0,1.0,0.0,1650823595018740.0
-1.0,-1.0,-3.0,-4.0,-2.0,3.0,0.0,0.0,1650823595031706.0
2.0,1.0,-4.0,-2.0,1.0,-4.0,-2.0,-1.0,1650823595031706.0
-2.0,1.0,1.0,0.0,-12.0,-6.0,-4.0,-2.0,1650823595037756.0
-1.0,-3.0,6.0,-4.0,-12.0,-6.0,-3.0,-1.0,1650823595037756.0
0.0,-2.0,-10.0,1.0,11.0,5.0,2.0,0.0,1650823595054672.0
0.0,2.0,0.0,5.0,9.0,7.0,2.0,2.0,1650823595054672.0
0.0,0.0,3.0,0.0,0.0,-2.0,-1.0,-2.0,1650823595055657.0
-1.0,1.0,0.0,-1.0,-3.0,2.0,0.0,-3.0,1650823595055657.0
-1.0,-3.0,3.0,1.0,5.0,6.0,0.0,-2.0,1650823595076706.0
0.0,-2.0,-1.0,-7.0,-9.0,-11.0,-4.0,-2.0,1650823595076706.0
-2.0,-2.0,-5.0,8.0,-3.0,-4.0,1.0,-1.0,1650823595078650.0
0.0,1.0,0.0,-5.0,7.0,6.0,0.0,1.0,1650823595078650.0
-2.0,-1.0,-6.0,-4.0,-4.0,0.0,0.0,-2.0,1650823595091600.0
-1.0,0.0,-1.0,1.0,-2.0,0.0,-2.0,-3.0,1650823595091600.0
1.0,0.0,3.0,-2.0,-6.0,-1.0,-1.0,1.0,1650823595097650.0
-2.0,3.0,0.0,8.0,2.0,-2.0,0.0,-2.0,1650823595097650.0
-2.0,-1.0,2.0,2.0,6.0,4.0,0.0,3.0,1650823595114708.0
-1.0,-1.0,-1.0,-4.0,-16.0,-3.0,-3.0,-1.0,1650823595114708.0
0.0,-5.0,-3.0,-7.0,-13.0,-4.0,-2.0,-1.0,1650823595115652.0
0.0,-2.0,-4.0,-2.0,-5.0,-1.0,2.0,0.0,1650823595115652.0
2.0,2.0,5.0,7.0,9.0,-4.0,0.0,0.0,1650823595136637.0
0.0,0.0,0.0,5.0,7.0,4.0,2.0,0.0,1650823595136637.0
0.0,1.0,-4.0,-2.0,12.0,7.0,2.0,1.0,1650823595138625.0
-1.0,-1.0,7.0,6.0,-9.0,-6.0,-3.0,1.0,1650823595138625.0
-3.0,-6.0,-23.0,-15.0,-12.0,-4.0,-4.0,-4.0,1650823595150602.0
-3.0,-7.0,-9.0,1.0,0.0,-7.0,-3.0,-1.0,1650823595150602.0
-2.0,2.0,10.0,-7.0,5.0,3.0,-1.0,-1.0,1650823595159564.0
-1.0,-4.0,-5.0,1.0,2.0,3.0,1.0,0.0,1650823595159564.0
-1.0,1.0,5.0,4.0,0.0,0.0,2.0,1.0,1650823595173853.0
1.0,3.0,5.0,-4.0,-3.0,-4.0,-4.0,-2.0,1650823595173853.0
0.0,2.0,-3.0,2.0,-4.0,-2.0,-2.0,-1.0,1650823595175851.0
-1.0,0.0,1.0,3.0,10.0,6.0,7.0,-1.0,1650823595175851.0
-1.0,-4.0,1.0,6.0,2.0,0.0,-1.0,-1.0,1650823595195787.0
0.0,4.0,-1.0,-3.0,-2.0,1.0,-1.0,2.0,1650823595195787.0
-4.0,-11.0,0.0,-3.0,6.0,-1.0,-3.0,-1.0,1650823595204697.0
-2.0,-1.0,-1.0,-6.0,-6.0,1.0,-4.0,-2.0,1650823595204697.0
-2.0,2.0,1.0,0.0,-13.0,-5.0,-2.0,-2.0,1650823595211694.0
0.0,1.0,3.0,3.0,-1.0,-2.0,1.0,0.0,1650823595211694.0
1.0,6.0,3.0,10.0,10.0,5.0,4.0,1.0,1650823595217689.0
-1.0,-2.0,-1.0,6.0,8.0,-2.0,-3.0,-2.0,1650823595217689.0
-1.0,-5.0,-3.0,-18.0,-7.0,-1.0,-2.0,0.0,1650823595241710.0
1.0,1.0,1.0,13.0,2.0,2.0,2.0,3.0,1650823595241710.0
-1.0,2.0,4.0,-16.0,-8.0,0.0,-2.0,-1.0,1650823595243730.0
-3.0,-1.0,6.0,19.0,5.0,-2.0,1.0,-1.0,1650823595243730.0
-1.0,4.0,4.0,0.0,-2.0,-4.0,-1.0,0.0,1650823595256669.0
-2.0,-7.0,-17.0,-11.0,-7.0,-4.0,-2.0,5.0,1650823595256669.0
0.0,1.0,7.0,10.0,-1.0,0.0,1.0,-7.0,1650823595258664.0
2.0,3.0,7.0,-10.0,-6.0,-1.0,-1.0,1.0,1650823595258664.0
2.0,2.0,-8.0,2.0,6.0,1.0,0.0,0.0,1650823595270714.0
2.0,2.0,24.0,5.0,-2.0,-4.0,3.0,4.0,1650823595270714.0
-2.0,-4.0,-13.0,-3.0,-1.0,-1.0,1.0,7.0,1650823595277702.0
-2.0,-2.0,3.0,3.0,-4.0,-5.0,-5.0,-15.0,1650823595277702.0
-1.0,7.0,-9.0,-1.0,2.0,-1.0,-1.0,-6.0,1650823595294703.0
-2.0,3.0,-6.0,-11.0,15.0,15.0,1.0,-9.0,1650823595294703.0
-3.0,-1.0,12.0,-1.0,-16.0,-7.0,-3.0,-2.0,1650823595295650.0
6.0,-1.0,13.0,10.0,-4.0,-3.0,2.0,9.0,1650823595295650.0
-1.0,23.0,16.0,10.0,11.0,10.0,2.0,5.0,1650823595316663.0
-1.0,-8.0,-22.0,-6.0,5.0,2.0,-1.0,-8.0,1650823595316663.0
1.0,5.0,-4.0,-4.0,1.0,0.0,-1.0,4.0,1650823595318589.0
-1.0,-6.0,-11.0,-17.0,-6.0,-7.0,-4.0,8.0,1650823595318589.0
0.0,-6.0,5.0,-2.0,-8.0,-1.0,5.0,19.0,1650823595330557.0
1.0,20.0,25.0,28.0,7.0,13.0,0.0,-31.0,1650823595330557.0
7.0,-42.0,-25.0,-4.0,6.0,0.0,13.0,68.0,1650823595339532.0
-8.0,-3.0,-63.0,-28.0,-6.0,-9.0,-15.0,-25.0,1650823595339532.0
3.0,4.0,15.0,3.0,-19.0,-7.0,-8.0,-1.0,1650823595354560.0
9.0,5.0,17.0,1.0,3.0,5.0,-11.0,-15.0,1650823595354560.0
-1.0,28.0,19.0,22.0,9.0,-2.0,4.0,20.0,1650823595360543.0
1.0,-26.0,-84.0,-22.0,7.0,11.0,28.0,86.0,1650823595360543.0
2.0,-2.0,20.0,-12.0,-7.0,-8.0,-28.0,-25.0,1650823595376501.0
-8.0,2.0,-1.0,2.0,-2.0,1.0,19.0,31.0,1650823595376501.0
5.0,23.0,20.0,13.0,6.0,10.0,1.0,-28.0,1650823595378429.0
-5.0,-6.0,22.0,5.0,0.0,-4.0,-8.0,-6.0,1650823595378429.0
15.0,35.0,-12.0,10.0,3.0,-2.0,13.0,8.0,1650823595390397.0
-34.0,-62.0,-82.0,-50.0,-23.0,-17.0,-5.0,17.0,1650823595390397.0
-17.0,-27.0,-16.0,1.0,6.0,2.0,-20.0,-6.0,1650823595399373.0
20.0,49.0,78.0,24.0,0.0,-3.0,-5.0,-17.0,1650823595399373.0
1.0,-54.0,-52.0,-44.0,-10.0,0.0,6.0,6.0,1650823595414642.0
6.0,57.0,95.0,37.0,6.0,-3.0,-15.0,-22.0,1650823595414642.0
-39.0,-105.0,-85.0,-18.0,2.0,-3.0,5.0,-10.0,1650823595415577.0
-3.0,21.0,4.0,-27.0,-24.0,-12.0,-23.0,-40.0,1650823595415577.0
7.0,33.0,47.0,35.0,15.0,15.0,13.0,-2.0,1650823595436516.0
11.0,-29.0,-27.0,-4.0,14.0,0.0,12.0,36.0,1650823595436516.0
8.0,22.0,76.0,14.0,-13.0,-2.0,-6.0,-54.0,1650823595438512.0
33.0,94.0,51.0,31.0,21.0,22.0,22.0,28.0,1650823595438512.0
-33.0,-118.0,-110.0,-54.0,-17.0,-17.0,-19.0,56.0,1650823595450480.0
6.0,48.0,24.0,11.0,-2.0,-5.0,-3.0,11.0,1650823595450480.0
3.0,-13.0,-7.0,-26.0,-14.0,-6.0,-3.0,19.0,1650823595459455.0
-11.0,51.0,48.0,18.0,11.0,7.0,1.0,-11.0,1650823595459455.0
22.0,31.0,35.0,22.0,8.0,3.0,16.0,15.0,1650823595474727.0
14.0,-9.0,3.0,23.0,9.0,7.0,4.0,15.0,1650823595474727.0
6.0,14.0,16.0,-10.0,-11.0,-10.0,-16.0,-35.0,1650823595475725.0
0.0,-47.0,1.0,20.0,6.0,6.0,26.0,30.0,1650823595475725.0
-4.0,9.0,-50.0,10.0,15.0,8.0,-8.0,-22.0,1650823595496729.0
-22.0,-28.0,26.0,-62.0,-35.0,-20.0,-4.0,-21.0,1650823595496729.0
31.0,36.0,24.0,33.0,20.0,12.0,18.0,32.0,1650823595498662.0
-24.0,-53.0,-51.0,-15.0,-3.0,-6.0,-21.0,-35.0,1650823595498662.0
-10.0,57.0,71.0,9.0,4.0,0.0,-4.0,-62.0,1650823595519674.0
3.0,-12.0,-33.0,7.0,-3.0,3.0,-7.0,-23.0,1650823595519674.0
2.0,25.0,-7.0,-12.0,7.0,7.0,34.0,100.0,1650823595520610.0
-16.0,2.0,61.0,26.0,5.0,2.0,-15.0,-85.0,1650823595520610.0
19.0,16.0,61.0,36.0,6.0,4.0,9.0,4.0,1650823595534629.0
-4.0,-18.0,-101.0,-39.0,-6.0,-3.0,-13.0,-6.0,1650823595534629.0
-7.0,-25.0,-19.0,4.0,4.0,-7.0,-2.0,-15.0,1650823595535564.0
4.0,-4.0,-35.0,-5.0,4.0,7.0,13.0,59.0,1650823595535564.0
-8.0,4.0,48.0,-8.0,-18.0,-10.0,-13.0,-36.0,1650823595556507.0
-27.0,35.0,20.0,-15.0,-1.0,-1.0,20.0,54.0,1650823595556507.0
-8.0,-34.0,2.0,18.0,0.0,-5.0,-33.0,-79.0,1650823595558503.0
-12.0,-15.0,-51.0,-7.0,-3.0,-6.0,-11.0,-27.0,1650823595558503.0
12.0,-15.0,19.0,20.0,13.0,13.0,13.0,29.0,1650823595570533.0
-21.0,-9.0,-71.0,-7.0,2.0,-4.0,-15.0,-42.0,1650823595570533.0
7.0,17.0,-26.0,-28.0,-19.0,-8.0,-9.0,-16.0,1650823595579448.0
2.0,19.0,58.0,0.0,13.0,9.0,6.0,35.0,1650823595579448.0
-16.0,-65.0,-88.0,-9.0,-3.0,0.0,13.0,19.0,1650823595594677.0
3.0,-39.0,-6.0,-5.0,2.0,-2.0,-34.0,-94.0,1650823595594677.0
-4.0,30.0,41.0,0.0,-11.0,-9.0,-2.0,-27.0,1650823595595677.0
-4.0,-44.0,-21.0,-9.0,-8.0,-1.0,-4.0,35.0,1650823595595677.0
2.0,10.0,2.0,20.0,13.0,9.0,-15.0,-29.0,1650823595616650.0
36.0,31.0,62.0,31.0,9.0,1.0,24.0,30.0,1650823595616650.0
-8.0,4.0,-8.0,-32.0,-8.0,-7.0,-7.0,-47.0,1650823595618643.0
8.0,-25.0,-25.0,8.0,4.0,-4.0,11.0,92.0,1650823595618643.0
-11.0,4.0,-25.0,-34.0,-11.0,-8.0,-30.0,-14.0,1650823595630611.0
4.0,-46.0,5.0,-5.0,-10.0,-4.0,2.0,15.0,1650823595630611.0
15.0,74.0,19.0,32.0,14.0,8.0,18.0,17.0,1650823595639560.0
-20.0,-14.0,-10.0,-37.0,-20.0,-14.0,3.0,6.0,1650823595639560.0
2.0,-21.0,11.0,19.0,9.0,4.0,5.0,6.0,1650823595655518.0
-9.0,74.0,22.0,-15.0,-5.0,-1.0,-1.0,7.0,1650823595655518.0
3.0,-1.0,30.0,-1.0,3.0,3.0,-4.0,-2.0,1650823595657512.0
-1.0,-33.0,-28.0,25.0,-5.0,-4.0,-9.0,-58.0,1650823595657512.0
9.0,65.0,-28.0,-11.0,-1.0,3.0,17.0,3.0,1650823595677485.0
8.0,-6.0,-1.0,-23.0,-10.0,-6.0,-21.0,-3.0,1650823595677485.0
-6.0,-3.0,-5.0,-1.0,5.0,4.0,-8.0,-56.0,1650823595678477.0
6.0,18.0,19.0,-34.0,-7.0,-1.0,-4.0,-7.0,1650823595678477.0
5.0,12.0,61.0,41.0,11.0,3.0,-2.0,-42.0,1650823595690424.0
4.0,-1.0,-16.0,16.0,7.0,8.0,18.0,39.0,1650823595690424.0
5.0,-9.0,-5.0,2.0,0.0,4.0,4.0,74.0,1650823595699399.0
22.0,18.0,13.0,10.0,-4.0,-3.0,-17.0,-99.0,1650823595699399.0
13.0,4.0,6.0,-1.0,4.0,5.0,31.0,88.0,1650823595714359.0
4.0,-30.0,-20.0,1.0,0.0,-2.0,-1.0,18.0,1650823595714359.0
-8.0,-22.0,-1.0,-4.0,-4.0,2.0,1.0,15.0,1650823595716354.0
-4.0,40.0,23.0,18.0,4.0,-6.0,-6.0,-55.0,1650823595716354.0
0.0,-19.0,-58.0,-51.0,-15.0,-8.0,11.0,71.0,1650823595736331.0
-38.0,-99.0,-1.0,6.0,-4.0,-2.0,5.0,-24.0,1650823595736331.0
9.0,69.0,57.0,25.0,-4.0,-1.0,-5.0,18.0,1650823595738295.0
-13.0,-52.0,-99.0,-31.0,9.0,1.0,5.0,23.0,1650823595738295.0
-10.0,-21.0,-28.0,-34.0,-16.0,-2.0,-4.0,-11.0,1650823595760239.0
17.0,32.0,40.0,31.0,6.0,-4.0,8.0,17.0,1650823595760239.0
13.0,13.0,-7.0,0.0,2.0,9.0,15.0,29.0,1650823595761234.0
-6.0,-4.0,-14.0,13.0,11.0,-2.0,-5.0,8.0,1650823595761234.0
-7.0,8.0,21.0,1.0,-20.0,-10.0,-21.0,-30.0,1650823595773201.0
-2.0,3.0,-10.0,-8.0,11.0,12.0,-5.0,-12.0,1650823595773201.0
5.0,3.0,-12.0,2.0,0.0,2.0,49.0,105.0,1650823595780183.0
-23.0,-13.0,23.0,-9.0,-6.0,9.0,-33.0,-87.0,1650823595780183.0
5.0,25.0,29.0,20.0,11.0,-14.0,-57.0,16.0,1650823595797159.0
15.0,-8.0,-11.0,1.0,-9.0,-7.0,5.0,41.0,1650823595797159.0
-42.0,3.0,4.0,1.0,5.0,-4.0,-13.0,-22.0,1650823595799152.0
31.0,31.0,37.0,36.0,16.0,14.0,31.0,50.0,1650823595799152.0
-25.0,-48.0,-84.0,-45.0,-19.0,-12.0,4.0,-34.0,1650823595819100.0
6.0,52.0,116.0,29.0,-6.0,-8.0,-21.0,-58.0,1650823595819100.0
-24.0,-62.0,-114.0,-56.0,-21.0,-19.0,-24.0,-51.0,1650823595821095.0
30.0,77.0,41.0,25.0,14.0,11.0,19.0,50.0,1650823595821095.0
-17.0,-57.0,-4.0,-22.0,-5.0,-2.0,0.0,-28.0,1650823595834059.0
16.0,35.0,35.0,27.0,8.0,5.0,16.0,36.0,1650823595834059.0
10.0,-6.0,3.0,-17.0,-4.0,4.0,4.0,-17.0,1650823595836056.0
-14.0,-18.0,-21.0,-11.0,-17.0,-11.0,5.0,9.0,1650823595836056.0
12.0,24.0,27.0,21.0,6.0,-1.0,5.0,10.0,1650823595856997.0
-13.0,7.0,-35.0,-19.0,-3.0,-1.0,-3.0,-19.0,1650823595856997.0
9.0,-7.0,25.0,15.0,6.0,1.0,-14.0,-32.0,1650823595857976.0
-24.0,-30.0,4.0,13.0,-3.0,-1.0,5.0,17.0,1650823595857976.0
-5.0,-2.0,4.0,-5.0,0.0,0.0,-5.0,14.0,1650823595878987.0
13.0,-5.0,6.0,1.0,-2.0,-5.0,-28.0,-78.0,1650823595878987.0
16.0,9.0,-15.0,10.0,0.0,-3.0,0.0,16.0,1650823595880915.0
-1.0,-24.0,-20.0,-32.0,-7.0,-6.0,2.0,3.0,1650823595880915.0
2.0,9.0,49.0,33.0,12.0,10.0,4.0,-10.0,1650823595894044.0
11.0,37.0,10.0,7.0,11.0,17.0,19.0,56.0,1650823595894044.0
-4.0,7.0,19.0,-20.0,-9.0,-3.0,-12.0,0.0,1650823595895970.0
-17.0,-27.0,10.0,-8.0,-11.0,-7.0,-7.0,-10.0,1650823595895970.0
14.0,61.0,34.0,25.0,4.0,4.0,13.0,-9.0,1650823595916982.0
-6.0,-18.0,-30.0,-38.0,-9.0,-6.0,6.0,16.0,1650823595916982.0
-3.0,-56.0,-43.0,14.0,12.0,5.0,-1.0,-17.0,1650823595918909.0
7.0,13.0,14.0,-16.0,-10.0,-5.0,-2.0,10.0,1650823595918909.0
-16.0,-47.0,-46.0,-19.0,-4.0,-2.0,-2.0,-30.0,1650823595939123.0
7.0,11.0,-3.0,19.0,5.0,4.0,9.0,13.0,1650823595939123.0
-8.0,5.0,15.0,3.0,0.0,1.0,0.0,14.0,1650823595941049.0
-6.0,0.0,8.0,13.0,5.0,-4.0,-7.0,15.0,1650823595941049.0
5.0,0.0,-3.0,-2.0,1.0,0.0,-1.0,-18.0,1650823595954042.0
-14.0,-14.0,-13.0,-11.0,8.0,6.0,3.0,24.0,1650823595954042.0
17.0,0.0,3.0,-9.0,-22.0,-14.0,-16.0,17.0,1650823595960916.0
13.0,11.0,14.0,32.0,15.0,9.0,12.0,57.0,1650823595960916.0
-8.0,-24.0,-23.0,-29.0,-3.0,-5.0,23.0,43.0,1650823595976876.0
-9.0,-2.0,18.0,8.0,-4.0,-2.0,-4.0,-16.0,1650823595976876.0
-12.0,-9.0,-38.0,3.0,12.0,6.0,-19.0,-37.0,1650823595978903.0
6.0,8.0,10.0,4.0,-3.0,-1.0,-7.0,-6.0,1650823595978903.0
5.0,76.0,53.0,5.0,-3.0,-2.0,-3.0,9.0,1650823595998935.0
-7.0,-6.0,-44.0,-5.0,-5.0,-6.0,0.0,-4.0,1650823595998935.0
4.0,38.0,38.0,19.0,6.0,5.0,17.0,20.0,1650823596000863.0
3.0,-28.0,-15.0,-26.0,0.0,6.0,1.0,-21.0,1650823596000863.0
-4.0,-9.0,11.0,14.0,-1.0,-4.0,-3.0,-15.0,1650823596014111.0
22.0,53.0,49.0,27.0,10.0,3.0,9.0,24.0,1650823596014111.0
8.0,-3.0,-33.0,-2.0,8.0,2.0,-8.0,-38.0,1650823596020926.0
-6.0,6.0,21.0,9.0,-11.0,-7.0,-4.0,-18.0,1650823596020926.0
-13.0,4.0,-16.0,-33.0,-5.0,1.0,-2.0,-15.0,1650823596044682.0
2.0,-22.0,9.0,11.0,12.0,3.0,2.0,16.0,1650823596044682.0
15.0,-8.0,7.0,2.0,-12.0,-7.0,8.0,1.0,1650823596045681.0
8.0,-5.0,-24.0,-19.0,-3.0,0.0,2.0,39.0,1650823596045681.0
-11.0,0.0,15.0,17.0,7.0,2.0,1.0,9.0,1650823596059647.0
25.0,1.0,3.0,29.0,10.0,12.0,5.0,-65.0,1650823596059647.0
1.0,10.0,-18.0,-44.0,-5.0,-6.0,-18.0,-5.0,1650823596060644.0
3.0,24.0,-6.0,-2.0,-2.0,0.0,-7.0,-82.0,1650823596060644.0
-3.0,-2.0,9.0,27.0,11.0,10.0,19.0,37.0,1650823596073630.0
-18.0,-7.0,2.0,-3.0,-4.0,-5.0,-4.0,-7.0,1650823596073630.0
22.0,11.0,24.0,16.0,-1.0,1.0,8.0,38.0,1650823596080610.0
-6.0,32.0,-13.0,-25.0,-8.0,-7.0,1.0,0.0,1650823596080610.0
7.0,-63.0,3.0,11.0,15.0,9.0,-2.0,-4.0,1650823596096546.0
-14.0,14.0,-39.0,-7.0,-20.0,-9.0,-10.0,-41.0,1650823596096546.0
2.0,5.0,44.0,2.0,5.0,3.0,7.0,-2.0,1650823596098542.0
-16.0,-21.0,2.0,-13.0,-7.0,-9.0,-2.0,9.0,1650823596098542.0
5.0,12.0,-1.0,3.0,-10.0,-7.0,-6.0,-17.0,1650823596119507.0
1.0,-8.0,-13.0,-19.0,-5.0,0.0,2.0,33.0,1650823596119507.0
-19.0,7.0,20.0,26.0,15.0,14.0,12.0,-7.0,1650823596120504.0
2.0,-50.0,-16.0,2.0,2.0,-2.0,3.0,28.0,1650823596120504.0
17.0,19.0,-3.0,8.0,-8.0,-9.0,-5.0,11.0,1650823596133469.0
-6.0,-25.0,-15.0,-24.0,-12.0,-8.0,2.0,41.0,1650823596133469.0
5.0,-9.0,-11.0,-4.0,0.0,1.0,0.0,25.0,1650823596140450.0
4.0,-1.0,-28.0,-5.0,7.0,4.0,4.0,-1.0,1650823596140450.0
19.0,1.0,-19.0,8.0,6.0,3.0,-6.0,-30.0,1650823596156907.0
-21.0,-21.0,-2.0,-30.0,-11.0,-6.0,14.0,33.0,1650823596156907.0
-10.0,-23.0,-13.0,-13.0,-5.0,-3.0,-1.0,-21.0,1650823596158863.0
8.0,10.0,6.0,14.0,3.0,3.0,5.0,13.0,1650823596158863.0
-5.0,5.0,2.0,-5.0,-8.0,-3.0,-2.0,5.0,1650823596179600.0
-7.0,-23.0,-26.0,-16.0,1.0,-5.0,-12.0,-25.0,1650823596179600.0
-7.0,2.0,12.0,15.0,2.0,5.0,6.0,-7.0,1650823596180558.0
-1.0,11.0,13.0,4.0,-6.0,-5.0,-6.0,-12.0,1650823596180558.0
-6.0,-5.0,-2.0,3.0,-1.0,0.0,1.0,0.0,1650823596193525.0
6.0,8.0,21.0,12.0,18.0,12.0,19.0,71.0,1650823596193525.0
-4.0,-8.0,55.0,28.0,-5.0,-8.0,-8.0,-46.0,1650823596200573.0
24.0,25.0,-36.0,-27.0,-6.0,3.0,0.0,12.0,1650823596200573.0
-5.0,18.0,27.0,5.0,-9.0,-6.0,1.0,2.0,1650823596216734.0
6.0,13.0,22.0,19.0,16.0,4.0,-7.0,-37.0,1650823596216734.0
0.0,-5.0,-43.0,-16.0,-4.0,-11.0,-11.0,-30.0,1650823596218661.0
-11.0,-25.0,-6.0,-2.0,-4.0,1.0,-1.0,-13.0,1650823596218661.0
17.0,-14.0,-34.0,-14.0,1.0,1.0,-19.0,8.0,1650823596238798.0
-30.0,-13.0,-15.0,-9.0,-12.0,-7.0,-4.0,-33.0,1650823596238798.0
-1.0,-3.0,16.0,13.0,6.0,3.0,-2.0,-18.0,1650823596245779.0
-4.0,-4.0,44.0,4.0,3.0,-1.0,-1.0,18.0,1650823596245779.0
-13.0,-2.0,-41.0,-25.0,-11.0,-12.0,-4.0,-11.0,1650823596252772.0
18.0,18.0,56.0,28.0,5.0,2.0,-10.0,-1.0,1650823596252772.0
1.0,29.0,19.0,21.0,4.0,2.0,0.0,1.0,1650823596267751.0
-18.0,-61.0,-69.0,-57.0,-11.0,-8.0,-6.0,9.0,1650823596267751.0
-10.0,-28.0,13.0,21.0,7.0,9.0,12.0,28.0,1650823596276712.0
-1.0,-17.0,22.0,0.0,-12.0,-14.0,-20.0,-56.0,1650823596276712.0
-2.0,-37.0,-51.0,-27.0,-5.0,1.0,11.0,21.0,1650823596278729.0
-15.0,-10.0,-14.0,-2.0,10.0,5.0,-2.0,-12.0,1650823596278729.0
11.0,22.0,35.0,16.0,6.0,8.0,10.0,11.0,1650823596299711.0
-6.0,-8.0,-34.0,-13.0,-3.0,-3.0,-1.0,-6.0,1650823596299711.0
-28.0,-69.0,-58.0,-8.0,-6.0,-2.0,11.0,20.0,1650823596300648.0
7.0,25.0,34.0,18.0,0.0,0.0,2.0,5.0,1650823596300648.0
-4.0,-2.0,-24.0,-19.0,-8.0,-6.0,-3.0,-13.0,1650823596313361.0
17.0,1.0,-8.0,-2.0,-3.0,0.0,4.0,7.0,1650823596313361.0
1.0,29.0,23.0,3.0,11.0,4.0,5.0,8.0,1650823596322060.0
5.0,26.0,-2.0,18.0,0.0,6.0,11.0,35.0,1650823596322060.0
-3.0,-8.0,48.0,11.0,-1.0,-6.0,-11.0,-26.0,1650823596337135.0
-20.0,3.0,-38.0,-36.0,-17.0,-10.0,-7.0,-39.0,1650823596337135.0
12.0,-12.0,-33.0,10.0,4.0,7.0,16.0,23.0,1650823596338119.0
-8.0,1.0,-21.0,-11.0,3.0,0.0,10.0,11.0,1650823596338119.0
-7.0,4.0,-30.0,-13.0,1.0,2.0,-6.0,-7.0,1650823596359050.0
6.0,11.0,53.0,23.0,2.0,3.0,-1.0,16.0,1650823596359050.0
-6.0,-8.0,-39.0,-30.0,-10.0,-12.0,-16.0,-14.0,1650823596361045.0
29.0,17.0,46.0,30.0,4.0,1.0,-6.0,-17.0,1650823596361045.0
-24.0,-69.0,-55.0,-13.0,-1.0,6.0,6.0,5.0,1650823596373042.0
9.0,16.0,3.0,9.0,13.0,8.0,9.0,18.0,1650823596373042.0
2.0,6.0,-32.0,-5.0,6.0,0.0,-5.0,2.0,1650823596381998.0
4.0,-7.0,7.0,-3.0,-9.0,-5.0,-5.0,-19.0,1650823596381998.0
9.0,22.0,8.0,-10.0,0.0,-3.0,-3.0,33.0,1650823596397016.0
0.0,-24.0,-6.0,6.0,-4.0,-1.0,7.0,20.0,1650823596397016.0
8.0,38.0,37.0,14.0,4.0,3.0,13.0,57.0,1650823596397973.0
8.0,0.0,-1.0,26.0,10.0,7.0,-8.0,-52.0,1650823596397973.0
-18.0,3.0,24.0,-29.0,-18.0,-11.0,-21.0,-92.0,1650823596419045.0
-12.0,-13.0,-35.0,-8.0,-1.0,-3.0,3.0,16.0,1650823596419045.0
8.0,44.0,34.0,7.0,-2.0,3.0,5.0,10.0,1650823596421017.0
7.0,-25.0,-7.0,6.0,7.0,3.0,0.0,17.0,1650823596421017.0
7.0,1.0,-20.0,-9.0,-8.0,-6.0,10.0,18.0,1650823596433084.0
15.0,1.0,-10.0,6.0,7.0,7.0,6.0,17.0,1650823596433084.0
-10.0,13.0,51.0,5.0,-1.0,0.0,-7.0,-19.0,1650823596442062.0
-11.0,-21.0,-56.0,-40.0,-20.0,-12.0,-3.0,8.0,1650823596442062.0
10.0,12.0,28.0,23.0,10.0,7.0,7.0,4.0,1650823596457052.0
3.0,-2.0,-28.0,-10.0,12.0,6.0,-2.0,-7.0,1650823596457052.0
-9.0,-45.0,-3.0,-1.0,-8.0,-2.0,-5.0,-4.0,1650823596458047.0
-19.0,14.0,53.0,18.0,8.0,2.0,0.0,10.0,1650823596458047.0
8.0,1.0,-23.0,-3.0,-2.0,-7.0,-2.0,22.0,1650823596479031.0
2.0,4.0,4.0,2.0,-8.0,-8.0,-6.0,4.0,1650823596479031.0
-5.0,-12.0,-14.0,-2.0,-5.0,-4.0,8.0,53.0,1650823596480964.0
-13.0,-26.0,-9.0,-8.0,6.0,3.0,2.0,28.0,1650823596480964.0
-6.0,9.0,37.0,16.0,4.0,3.0,1.0,10.0,1650823596492926.0
-8.0,-8.0,-31.0,-14.0,-13.0,-8.0,-5.0,-1.0,1650823596492926.0
6.0,-8.0,-12.0,-17.0,-7.0,-4.0,-8.0,-16.0,1650823596501826.0
17.0,36.0,10.0,-2.0,-8.0,-7.0,1.0,10.0,1650823596501826.0
-5.0,7.0,2.0,16.0,19.0,15.0,11.0,11.0,1650823596516743.0
5.0,1.0,21.0,4.0,1.0,2.0,-12.0,-7.0,1650823596516743.0
3.0,20.0,23.0,13.0,9.0,8.0,6.0,-6.0,1650823596518667.0
9.0,43.0,43.0,9.0,-3.0,-11.0,-16.0,-24.0,1650823596518667.0
2.0,-8.0,-13.0,-27.0,-14.0,-10.0,-23.0,-22.0,1650823596539735.0
1.0,2.0,13.0,4.0,7.0,7.0,7.0,-7.0,1650823596539735.0
9.0,36.0,-4.0,-16.0,-10.0,-5.0,3.0,23.0,1650823596540741.0
-2.0,9.0,29.0,33.0,10.0,7.0,-12.0,-91.0,1650823596540741.0
7.0,-14.0,-16.0,5.0,5.0,3.0,4.0,6.0,1650823596552771.0
-21.0,-25.0,-39.0,-16.0,-11.0,-7.0,4.0,13.0,1650823596552771.0
4.0,20.0,39.0,17.0,12.0,4.0,0.0,1.0,1650823596561693.0
1.0,10.0,12.0,-3.0,2.0,5.0,4.0,-10.0,1650823596561693.0
-3.0,-41.0,-34.0,-19.0,-10.0,-7.0,0.0,19.0,1650823596576765.0
-6.0,23.0,5.0,5.0,1.0,4.0,-1.0,-17.0,1650823596576765.0
-16.0,-9.0,-10.0,-6.0,-6.0,-8.0,-6.0,-30.0,1650823596578766.0
-9.0,-17.0,-32.0,-9.0,-3.0,3.0,6.0,19.0,1650823596578766.0
4.0,22.0,17.0,14.0,9.0,7.0,0.0,-12.0,1650823596599711.0
12.0,2.0,32.0,17.0,5.0,2.0,5.0,11.0,1650823596599711.0
2.0,-29.0,-5.0,-3.0,-9.0,-8.0,-8.0,-3.0,1650823596600684.0
1.0,6.0,-35.0,-29.0,-13.0,-4.0,2.0,13.0,1650823596600684.0
-3.0,25.0,49.0,41.0,8.0,5.0,4.0,23.0,1650823596612716.0
15.0,-15.0,-6.0,2.0,15.0,8.0,-14.0,-58.0,1650823596612716.0
-25.0,-62.0,-57.0,-46.0,-25.0,-14.0,-4.0,-38.0,1650823596629604.0
4.0,13.0,10.0,5.0,0.0,-3.0,-8.0,-7.0,1650823596629604.0
6.0,4.0,-3.0,4.0,5.0,6.0,16.0,-9.0,1650823596636585.0
-34.0,14.0,29.0,15.0,-4.0,-1.0,9.0,75.0,1650823596636585.0
21.0,28.0,8.0,3.0,8.0,4.0,-10.0,-34.0,1650823596638605.0
1.0,-21.0,5.0,-3.0,-1.0,0.0,-4.0,3.0,1650823596638605.0
-2.0,1.0,-19.0,-2.0,-6.0,-9.0,-2.0,-13.0,1650823596659536.0
14.0,50.0,28.0,34.0,20.0,15.0,22.0,62.0,1650823596659536.0
3.0,32.0,-24.0,-35.0,3.0,-2.0,-24.0,-67.0,1650823596660529.0
-18.0,-28.0,-37.0,-22.0,-29.0,-16.0,-5.0,11.0,1650823596660529.0
8.0,21.0,21.0,2.0,-1.0,1.0,2.0,15.0,1650823596673423.0
16.0,2.0,4.0,4.0,-3.0,-3.0,1.0,0.0,1650823596673423.0
3.0,10.0,-2.0,8.0,10.0,7.0,11.0,26.0,1650823596682403.0
5.0,4.0,14.0,7.0,1.0,1.0,0.0,-9.0,1650823596682403.0
-9.0,-16.0,-3.0,7.0,-1.0,0.0,-6.0,-23.0,1650823596696430.0
-4.0,-2.0,-24.0,-41.0,1.0,1.0,-5.0,-28.0,1650823596696430.0
16.0,-4.0,14.0,17.0,5.0,4.0,2.0,29.0,1650823596698359.0
-29.0,9.0,23.0,14.0,6.0,-1.0,9.0,19.0,1650823596698359.0
20.0,-30.0,-30.0,-11.0,-8.0,-8.0,-5.0,-68.0,1650823596719639.0
-5.0,9.0,0.0,-9.0,-18.0,-14.0,-20.0,-21.0,1650823596719639.0
3.0,-12.0,5.0,-1.0,-10.0,-6.0,-14.0,-40.0,1650823596720610.0
10.0,-5.0,-6.0,1.0,4.0,5.0,9.0,9.0,1650823596720610.0
1.0,13.0,4.0,5.0,12.0,11.0,13.0,27.0,1650823596749740.0
-1.0,-17.0,0.0,1.0,1.0,-4.0,3.0,19.0,1650823596749740.0
-7.0,3.0,9.0,2.0,-9.0,4.0,2.0,-11.0,1650823596750662.0
-1.0,1.0,-6.0,4.0,-6.0,-5.0,-4.0,0.0,1650823596750662.0
-12.0,6.0,-2.0,-22.0,2.0,-2.0,-2.0,2.0,1650823596756629.0
3.0,-13.0,-15.0,-3.0,-2.0,-4.0,-3.0,-4.0,1650823596756629.0
-8.0,0.0,-16.0,-4.0,5.0,1.0,5.0,34.0,1650823596758624.0
7.0,28.0,21.0,20.0,3.0,5.0,0.0,7.0,1650823596758624.0
-5.0,0.0,8.0,-23.0,-10.0,-3.0,3.0,21.0,1650823596786709.0
3.0,-5.0,-13.0,4.0,-11.0,-9.0,-6.0,-19.0,1650823596786709.0
-3.0,-4.0,13.0,6.0,9.0,0.0,0.0,7.0,1650823596788665.0
6.0,9.0,1.0,19.0,12.0,2.0,4.0,-10.0,1650823596788665.0
-3.0,2.0,1.0,11.0,-1.0,-3.0,-9.0,-5.0,1650823596801669.0
-2.0,-9.0,-6.0,-28.0,-10.0,-3.0,-2.0,-9.0,1650823596801669.0
-3.0,-1.0,9.0,11.0,0.0,0.0,5.0,4.0,1650823596803596.0
0.0,-10.0,-4.0,-6.0,4.0,3.0,1.0,8.0,1650823596803596.0
7.0,16.0,7.0,7.0,-7.0,-5.0,-3.0,10.0,1650823596816686.0
-6.0,-19.0,-12.0,-9.0,-8.0,-3.0,4.0,-3.0,1650823596816686.0
1.0,2.0,12.0,24.0,-7.0,-9.0,-7.0,2.0,1650823596822671.0
0.0,-16.0,-21.0,-34.0,15.0,8.0,5.0,-2.0,1650823596822671.0
-2.0,0.0,0.0,16.0,6.0,3.0,5.0,6.0,1650823596839661.0
9.0,6.0,-3.0,-9.0,3.0,1.0,-5.0,-10.0,1650823596839661.0
2.0,-2.0,1.0,5.0,2.0,0.0,0.0,1.0,1650823596840595.0
1.0,-7.0,0.0,-6.0,-11.0,-7.0,-6.0,0.0,1650823596840595.0
2.0,2.0,-5.0,-4.0,-2.0,-2.0,-3.0,-1.0,1650823596861603.0
15.0,3.0,-1.0,5.0,1.0,1.0,-5.0,-5.0,1650823596861603.0
-41.0,-14.0,4.0,-1.0,-2.0,1.0,-1.0,3.0,1650823596863534.0
1.0,-7.0,-5.0,-8.0,1.0,2.0,0.0,-2.0,1650823596863534.0
-1.0,-6.0,-6.0,1.0,-1.0,0.0,4.0,8.0,1650823596876498.0
17.0,9.0,11.0,5.0,2.0,0.0,1.0,0.0,1650823596876498.0
0.0,5.0,-8.0,-2.0,5.0,1.0,2.0,2.0,1650823596882546.0
-4.0,-12.0,-9.0,-11.0,-5.0,-2.0,0.0,-2.0,1650823596882546.0
-1.0,5.0,2.0,-5.0,-6.0,-3.0,-3.0,-4.0,1650823596906418.0
-3.0,4.0,11.0,3.0,-6.0,-1.0,-3.0,-3.0,1650823596906418.0
9.0,-4.0,-5.0,5.0,-1.0,1.0,2.0,5.0,1650823596908414.0
-16.0,-14.0,-31.0,-19.0,-2.0,-7.0,-4.0,-6.0,1650823596908414.0
0.0,-1.0,21.0,-2.0,0.0,-4.0,-3.0,4.0,1650823596922377.0
-10.0,-6.0,2.0,7.0,19.0,8.0,0.0,-6.0,1650823596922377.0
4.0,13.0,2.0,-10.0,-20.0,-6.0,0.0,5.0,1650823596923374.0
10.0,4.0,10.0,20.0,8.0,6.0,6.0,5.0,1650823596923374.0
-2.0,-4.0,-8.0,1.0,8.0,4.0,-3.0,-1.0,1650823596936366.0
-10.0,0.0,-7.0,-8.0,-6.0,-1.0,-1.0,-6.0,1650823596936366.0
2.0,-8.0,-1.0,-9.0,7.0,0.0,1.0,-2.0,1650823596943331.0
-2.0,0.0,5.0,8.0,-2.0,-5.0,-4.0,-1.0,1650823596943331.0
-4.0,-3.0,-8.0,-9.0,-18.0,-4.0,-2.0,-2.0,1650823596959305.0
-6.0,-1.0,4.0,4.0,7.0,1.0,2.0,0.0,1650823596959305.0
8.0,-2.0,-2.0,-1.0,6.0,-2.0,2.0,5.0,1650823596961281.0
-2.0,1.0,4.0,6.0,0.0,7.0,3.0,-1.0,1650823596961281.0
-1.0,7.0,1.0,4.0,9.0,1.0,-2.0,2.0,1650823596981997.0
-2.0,-7.0,-5.0,-6.0,-14.0,-7.0,-3.0,-3.0,1650823596981997.0
1.0,-3.0,-6.0,-12.0,-2.0,2.0,0.0,1.0,1650823596982954.0
1.0,3.0,-1.0,-3.0,-3.0,-6.0,-3.0,-1.0,1650823596982954.0
-2.0,-1.0,1.0,2.0,0.0,1.0,-1.0,1.0,1650823596995927.0
-2.0,-1.0,-2.0,4.0,8.0,5.0,3.0,1.0,1650823596995927.0
-2.0,0.0,-1.0,-10.0,-8.0,-5.0,2.0,1.0,1650823597004868.0
1.0,1.0,0.0,-1.0,-5.0,-5.0,2.0,1.0,1650823597004868.0
0.0,-2.0,-4.0,-5.0,-1.0,0.0,-2.0,0.0,1650823597027877.0
-3.0,-3.0,-4.0,-5.0,-8.0,-6.0,-3.0,-2.0,1650823597027877.0
0.0,0.0,0.0,0.0,3.0,1.0,0.0,2.0,1650823597029872.0
1.0,1.0,4.0,7.0,4.0,3.0,3.0,2.0,1650823597029872.0
-1.0,-3.0,-3.0,1.0,4.0,1.0,2.0,-1.0,1650823597041906.0
-2.0,-1.0,-5.0,-4.0,-5.0,-1.0,-1.0,-1.0,1650823597041906.0
0.0,2.0,11.0,4.0,6.0,4.0,2.0,-1.0,1650823597043835.0
1.0,-4.0,-9.0,-1.0,-7.0,-5.0,-5.0,-2.0,1650823597043835.0
-1.0,0.0,-3.0,-4.0,-3.0,-6.0,-1.0,1.0,1650823597064683.0
-3.0,0.0,0.0,2.0,-8.0,-3.0,0.0,-2.0,1650823597064683.0
-2.0,0.0,-3.0,-4.0,1.0,3.0,-1.0,-2.0,1650823597065935.0
3.0,3.0,8.0,10.0,7.0,4.0,1.0,0.0,1650823597065935.0
2.0,2.0,-2.0,-3.0,14.0,7.0,1.0,1.0,1650823597079800.0
-2.0,-3.0,-3.0,-1.0,-7.0,-2.0,0.0,-1.0,1650823597079800.0
1.0,0.0,3.0,2.0,0.0,-6.0,1.0,0.0,1650823597080799.0
-1.0,0.0,-1.0,0.0,-12.0,-2.0,-2.0,0.0,1650823597080799.0
-1.0,0.0,-4.0,3.0,-3.0,-1.0,0.0,1.0,1650823597101810.0
0.0,-1.0,18.0,-5.0,0.0,-1.0,-2.0,-1.0,1650823597101810.0
-2.0,9.0,2.0,-3.0,-2.0,-3.0,-2.0,-2.0,1650823597103738.0
-3.0,-6.0,-2.0,-2.0,14.0,4.0,-3.0,-3.0,1650823597103738.0
1.0,15.0,18.0,2.0,-15.0,-4.0,1.0,-1.0,1650823597115772.0
-2.0,-30.0,-29.0,-1.0,-2.0,-1.0,1.0,0.0,1650823597115772.0
1.0,9.0,4.0,7.0,1.0,-1.0,-2.0,1.0,1650823597122687.0
0.0,3.0,5.0,-4.0,-2.0,-4.0,0.0,2.0,1650823597122687.0
-2.0,-4.0,-5.0,4.0,4.0,4.0,2.0,-1.0,1650823597146689.0
2.0,3.0,-8.0,-6.0,2.0,-1.0,0.0,1.0,1650823597146689.0
0.0,-7.0,3.0,-1.0,-1.0,0.0,-3.0,0.0,1650823597148618.0
-3.0,-1.0,-1.0,1.0,2.0,7.0,7.0,-2.0,1650823597148618.0
2.0,-2.0,-2.0,-2.0,-3.0,-5.0,0.0,2.0,1650823597161619.0
0.0,7.0,4.0,5.0,-2.0,-1.0,-3.0,-1.0,1650823597161619.0
-1.0,-13.0,-11.0,-5.0,-5.0,-1.0,-2.0,0.0,1650823597163578.0
2.0,9.0,9.0,2.0,-2.0,-3.0,-1.0,0.0,1650823597163578.0
-1.0,-8.0,-10.0,-6.0,0.0,-1.0,-1.0,-1.0,1650823597175697.0
-1.0,7.0,5.0,4.0,10.0,3.0,3.0,2.0,1650823597175697.0
-3.0,-7.0,-5.0,-1.0,-7.0,1.0,0.0,-2.0,1650823597184675.0
4.0,0.0,-1.0,-6.0,-3.0,-9.0,-6.0,-1.0,1650823597184675.0
-1.0,-6.0,-3.0,10.0,2.0,-3.0,-1.0,-1.0,1650823597199790.0
-3.0,0.0,-11.0,-16.0,-5.0,8.0,5.0,-3.0,1650823597199790.0
1.0,4.0,6.0,6.0,5.0,1.0,1.0,0.0,1650823597200716.0
0.0,-2.0,-1.0,-5.0,-5.0,0.0,-3.0,1.0,1650823597200716.0
4.0,8.0,1.0,0.0,-1.0,-5.0,-7.0,-1.0,1650823597221727.0
-4.0,-9.0,1.0,-2.0,-3.0,-3.0,-4.0,-2.0,1650823597221727.0
-3.0,-1.0,0.0,1.0,1.0,4.0,3.0,-1.0,1650823597223655.0
-1.0,-2.0,0.0,5.0,-2.0,-1.0,1.0,-1.0,1650823597223655.0
-2.0,-3.0,-5.0,-18.0,-7.0,-4.0,-4.0,-2.0,1650823597235777.0
1.0,3.0,6.0,8.0,4.0,0.0,2.0,1.0,1650823597235777.0
0.0,0.0,2.0,4.0,4.0,-1.0,2.0,0.0,1650823597244686.0
2.0,14.0,-1.0,-1.0,0.0,-1.0,-1.0,1.0,1650823597244686.0
-9.0,-4.0,-3.0,-1.0,0.0,2.0,1.0,-1.0,1650823597258882.0
1.0,4.0,-1.0,-3.0,-10.0,-5.0,-3.0,-1.0,1650823597258882.0
-1.0,-4.0,-5.0,-2.0,-3.0,-3.0,-4.0,-1.0,1650823597260858.0
2.0,2.0,1.0,-3.0,-4.0,3.0,-2.0,1.0,1650823597260858.0
-3.0,2.0,0.0,3.0,4.0,5.0,3.0,0.0,1650823597281828.0
0.0,2.0,9.0,4.0,8.0,3.0,0.0,0.0,1650823597281828.0
-3.0,2.0,0.0,4.0,2.0,1.0,0.0,-1.0,1650823597283817.0
1.0,-8.0,-2.0,-2.0,-4.0,0.0,1.0,1.0,1650823597283817.0
0.0,-3.0,-4.0,-11.0,-8.0,-6.0,-3.0,-4.0,1650823597295764.0
-2.0,-1.0,3.0,5.0,-9.0,-9.0,-4.0,-1.0,1650823597295764.0
-2.0,-4.0,-5.0,1.0,17.0,8.0,1.0,0.0,1650823597304740.0
-4.0,-5.0,-6.0,-3.0,1.0,4.0,-1.0,-3.0,1650823597304740.0
0.0,-4.0,-1.0,-6.0,-11.0,-5.0,-1.0,0.0,1650823597319720.0
0.0,3.0,-3.0,3.0,6.0,1.0,1.0,1.0,1650823597319720.0
0.0,-4.0,0.0,5.0,-5.0,-2.0,0.0,-2.0,1650823597320699.0
0.0,-7.0,-24.0,-14.0,1.0,-2.0,-3.0,-1.0,1650823597320699.0
0.0,2.0,9.0,-1.0,1.0,-1.0,-1.0,-1.0,1650823597342799.0
2.0,-1.0,-6.0,-3.0,-6.0,-1.0,1.0,-1.0,1650823597342799.0
-3.0,-4.0,-5.0,4.0,4.0,0.0,-1.0,0.0,1650823597343799.0
-3.0,1.0,2.0,7.0,9.0,6.0,4.0,0.0,1650823597343799.0
-2.0,1.0,8.0,1.0,3.0,1.0,-2.0,0.0,1650823597355460.0
1.0,-2.0,-9.0,-6.0,-4.0,-3.0,-3.0,1.0,1650823597355460.0
0.0,-7.0,-6.0,-8.0,-8.0,1.0,-1.0,-2.0,1650823597364421.0
2.0,-5.0,5.0,5.0,-9.0,-5.0,-2.0,0.0,1650823597364421.0
2.0,14.0,0.0,1.0,0.0,0.0,2.0,2.0,1650823597379497.0
0.0,-4.0,7.0,4.0,9.0,3.0,1.0,0.0,1650823597379497.0
2.0,0.0,-7.0,-1.0,-10.0,-8.0,-2.0,-1.0,1650823597380490.0
-3.0,-5.0,-17.0,-19.0,1.0,1.0,-1.0,-1.0,1650823597380490.0
0.0,-4.0,-4.0,-3.0,0.0,0.0,-1.0,0.0,1650823597401504.0
1.0,-2.0,7.0,4.0,2.0,-1.0,1.0,0.0,1650823597401504.0
0.0,4.0,4.0,1.0,11.0,6.0,3.0,0.0,1650823597403431.0
2.0,1.0,7.0,7.0,-9.0,-4.0,-2.0,-1.0,1650823597403431.0
-2.0,-4.0,1.0,4.0,-2.0,1.0,1.0,0.0,1650823597415599.0
2.0,13.0,-2.0,-5.0,-3.0,-4.0,-3.0,0.0,1650823597415599.0
-3.0,-10.0,-4.0,-9.0,-6.0,-3.0,-3.0,-2.0,1650823597424511.0
-2.0,2.0,9.0,4.0,3.0,2.0,1.0,-2.0,1650823597424511.0
1.0,-4.0,2.0,-1.0,6.0,7.0,0.0,1.0,1650823597439173.0
-2.0,-2.0,-9.0,0.0,-4.0,-2.0,-1.0,1.0,1650823597439173.0
0.0,4.0,-2.0,-3.0,5.0,-2.0,0.0,1.0,1650823597441131.0
-2.0,-5.0,3.0,-1.0,-12.0,-4.0,-2.0,-4.0,1650823597441131.0
0.0,-2.0,-2.0,2.0,-3.0,-2.0,2.0,1.0,1650823597462050.0
0.0,7.0,6.0,4.0,2.0,1.0,1.0,0.0,1650823597462050.0
-5.0,-11.0,-13.0,-12.0,-2.0,1.0,-2.0,-3.0,1650823597464070.0
-1.0,3.0,-2.0,-5.0,-3.0,-6.0,-2.0,2.0,1650823597464070.0
1.0,-2.0,-2.0,6.0,5.0,6.0,1.0,-1.0,1650823597476077.0
-1.0,0.0,-1.0,1.0,4.0,7.0,2.0,1.0,1650823597476077.0
2.0,6.0,3.0,0.0,-2.0,-3.0,0.0,0.0,1650823597484053.0
-1.0,-3.0,4.0,1.0,0.0,-1.0,-1.0,-2.0,1650823597484053.0
-2.0,-7.0,-9.0,-2.0,-1.0,-5.0,-3.0,-1.0,1650823597499020.0
-1.0,-4.0,8.0,-3.0,-12.0,-8.0,-3.0,-1.0,1650823597499020.0
3.0,8.0,12.0,7.0,5.0,3.0,2.0,0.0,1650823597500947.0
2.0,10.0,1.0,11.0,17.0,11.0,3.0,4.0,1650823597500947.0
-4.0,-8.0,0.0,6.0,-3.0,2.0,2.0,-1.0,1650823597522018.0
-3.0,-4.0,9.0,-11.0,17.0,0.0,-2.0,-1.0,1650823597522018.0
-1.0,-2.0,0.0,-3.0,-21.0,-5.0,2.0,0.0,1650823597522949.0
-1.0,2.0,-9.0,-4.0,-3.0,-4.0,-2.0,-1.0,1650823597522949.0
1.0,2.0,-2.0,-1.0,2.0,-1.0,-2.0,-2.0,1650823597535722.0
0.0,-4.0,0.0,3.0,-8.0,-2.0,-4.0,-2.0,1650823597535722.0
1.0,2.0,4.0,5.0,3.0,3.0,0.0,-2.0,1650823597544642.0
-3.0,1.0,-9.0,-4.0,1.0,-3.0,1.0,-1.0,1650823597544642.0
-3.0,-2.0,0.0,3.0,5.0,1.0,0.0,-1.0,1650823597559602.0
-2.0,-3.0,-15.0,-6.0,-2.0,-1.0,-2.0,-2.0,1650823597559602.0
1.0,1.0,-3.0,0.0,-5.0,-2.0,-1.0,2.0,1650823597560599.0
-1.0,0.0,7.0,-3.0,-4.0,2.0,2.0,0.0,1650823597560599.0
3.0,2.0,-3.0,2.0,3.0,-2.0,-1.0,3.0,1650823597581601.0
-1.0,0.0,-3.0,3.0,2.0,1.0,1.0,0.0,1650823597581601.0
1.0,3.0,-1.0,-3.0,-3.0,-4.0,-2.0,0.0,1650823597583539.0
-1.0,-5.0,-1.0,-3.0,12.0,-3.0,-5.0,-1.0,1650823597583539.0
-2.0,4.0,-1.0,-4.0,-19.0,1.0,1.0,-3.0,1650823597595513.0
-2.0,-14.0,-12.0,7.0,7.0,2.0,4.0,2.0,1650823597595513.0
0.0,-2.0,6.0,0.0,4.0,1.0,0.0,1.0,1650823597604568.0
0.0,-4.0,2.0,-1.0,-5.0,-6.0,-3.0,-1.0,1650823597604568.0
-1.0,-2.0,-7.0,-10.0,-3.0,-4.0,-4.0,-2.0,1650823597619600.0
1.0,4.0,4.0,4.0,2.0,5.0,2.0,0.0,1650823597619600.0
-2.0,-3.0,8.0,2.0,-1.0,1.0,0.0,-1.0,1650823597621526.0
1.0,4.0,-2.0,-2.0,-3.0,-2.0,0.0,0.0,1650823597621526.0
1.0,1.0,4.0,0.0,5.0,3.0,0.0,2.0,1650823597641500.0
0.0,0.0,-3.0,0.0,-6.0,-2.0,-2.0,1.0,1650823597641500.0
-1.0,-1.0,4.0,0.0,-2.0,-4.0,-3.0,-2.0,1650823597643468.0
-1.0,0.0,5.0,2.0,-7.0,-3.0,0.0,0.0,1650823597643468.0
-1.0,-1.0,-2.0,1.0,16.0,5.0,2.0,2.0,1650823597664626.0
0.0,4.0,2.0,-1.0,-6.0,5.0,1.0,0.0,1650823597664626.0
0.0,-1.0,-7.0,-4.0,1.0,-2.0,-1.0,1.0,1650823597665633.0
-1.0,-5.0,-5.0,-6.0,-7.0,-3.0,-1.0,-3.0,1650823597665633.0
0.0,1.0,-2.0,1.0,-1.0,-9.0,-1.0,-2.0,1650823597679589.0
0.0,0.0,2.0,-5.0,-1.0,1.0,2.0,-3.0,1650823597679589.0
0.0,0.0,-8.0,-8.0,-1.0,1.0,1.0,0.0,1650823597680599.0
1.0,-4.0,3.0,-1.0,-1.0,6.0,1.0,-1.0,1650823597680599.0
-1.0,-3.0,3.0,1.0,0.0,-3.0,-3.0,0.0,1650823597701557.0
-2.0,-1.0,-11.0,-8.0,-12.0,-5.0,-6.0,-2.0,1650823597701557.0
1.0,3.0,4.0,3.0,-2.0,-1.0,0.0,0.0,1650823597703525.0
-2.0,-7.0,0.0,7.0,11.0,4.0,-2.0,1.0,1650823597703525.0
1.0,-14.0,-2.0,4.0,1.0,3.0,2.0,0.0,1650823597724684.0
-3.0,0.0,-21.0,-8.0,5.0,4.0,4.0,0.0,1650823597724684.0
-1.0,5.0,10.0,0.0,-3.0,-4.0,-2.0,-1.0,1650823597725607.0
-1.0,1.0,-1.0,1.0,5.0,1.0,1.0,0.0,1650823597725607.0
1.0,2.0,7.0,5.0,-8.0,-5.0,-1.0,0.0,1650823597739569.0
2.0,-4.0,3.0,1.0,-5.0,-8.0,-2.0,0.0,1650823597739569.0
-1.0,-2.0,-5.0,0.0,-2.0,1.0,-1.0,-1.0,1650823597740570.0
0.0,1.0,2.0,-1.0,-5.0,0.0,0.0,0.0,1650823597740570.0
-1.0,2.0,-2.0,-6.0,1.0,7.0,-1.0,-2.0,1650823597761512.0
-2.0,0.0,5.0,2.0,2.0,-9.0,-2.0,-2.0,1650823597761512.0
-1.0,1.0,-8.0,-1.0,-7.0,1.0,4.0,0.0,1650823597763533.0
2.0,3.0,15.0,16.0,7.0,3.0,4.0,2.0,1650823597763533.0
-2.0,-4.0,-26.0,-24.0,-2.0,-3.0,-2.0,-2.0,1650823597784627.0
0.0,1.0,7.0,2.0,-1.0,2.0,-3.0,-1.0,1650823597784627.0
-1.0,-6.0,-3.0,-2.0,1.0,-3.0,-4.0,0.0,1650823597785595.0
-1.0,-1.0,-6.0,-1.0,-5.0,-1.0,-2.0,-1.0,1650823597785595.0
2.0,2.0,3.0,1.0,-3.0,-4.0,-1.0,0.0,1650823597798627.0
-1.0,0.0,2.0,-2.0,-2.0,-4.0,-2.0,-1.0,1650823597798627.0
-1.0,0.0,0.0,0.0,-1.0,1.0,1.0,0.0,1650823597805568.0
-1.0,1.0,0.0,4.0,14.0,6.0,2.0,0.0,1650823597805568.0
1.0,3.0,5.0,5.0,-4.0,0.0,1.0,1.0,1650823597822319.0
-1.0,0.0,7.0,2.0,1.0,1.0,1.0,-2.0,1650823597822319.0
2.0,-4.0,3.0,0.0,-5.0,-2.0,-2.0,-2.0,1650823597823333.0
0.0,-1.0,-4.0,-2.0,9.0,-2.0,-1.0,2.0,1650823597823333.0
-2.0,-3.0,3.0,-2.0,0.0,2.0,0.0,-2.0,1650823597844262.0
0.0,0.0,4.0,4.0,-3.0,-1.0,-2.0,1.0,1650823597844262.0
-1.0,4.0,1.0,0.0,5.0,5.0,1.0,0.0,1650823597846266.0
-1.0,0.0,-5.0,-5.0,-9.0,-4.0,-3.0,-4.0,1650823597846266.0
1.0,0.0,3.0,2.0,2.0,-4.0,-3.0,-1.0,1650823597858758.0
1.0,3.0,0.0,1.0,-11.0,-2.0,0.0,0.0,1650823597858758.0
2.0,7.0,8.0,3.0,0.0,-2.0,-1.0,1.0,1650823597865782.0
-5.0,-13.0,-11.0,-1.0,2.0,2.0,2.0,-1.0,1650823597865782.0
-1.0,-5.0,-5.0,-1.0,6.0,0.0,2.0,1.0,1650823597881739.0
1.0,-3.0,-4.0,-4.0,-4.0,-4.0,-2.0,-1.0,1650823597881739.0
-2.0,1.0,1.0,-3.0,1.0,3.0,-1.0,-2.0,1650823597883687.0
2.0,1.0,-1.0,2.0,-5.0,-1.0,-1.0,1.0,1650823597883687.0
0.0,1.0,7.0,5.0,-1.0,-2.0,1.0,-1.0,1650823597904634.0
-1.0,-4.0,-3.0,-2.0,3.0,-2.0,-1.0,1.0,1650823597904634.0
2.0,6.0,-4.0,2.0,0.0,1.0,-1.0,-1.0,1650823597905605.0
-5.0,-28.0,-20.0,-21.0,-5.0,-6.0,0.0,-1.0,1650823597905605.0
-4.0,13.0,15.0,6.0,-5.0,-3.0,-3.0,-4.0,1650823597918637.0
2.0,3.0,2.0,-4.0,2.0,1.0,-2.0,0.0,1650823597918637.0
-2.0,-5.0,-6.0,1.0,-1.0,-2.0,-2.0,-1.0,1650823597926576.0
3.0,9.0,6.0,3.0,-4.0,0.0,0.0,1.0,1650823597926576.0
2.0,-1.0,-6.0,-2.0,2.0,-1.0,0.0,2.0,1650823597941593.0
-3.0,-3.0,-5.0,-2.0,-3.0,1.0,-2.0,-1.0,1650823597941593.0
-2.0,-5.0,0.0,-4.0,1.0,2.0,-1.0,0.0,1650823597941593.0
-1.0,7.0,6.0,4.0,2.0,1.0,-1.0,-2.0,1650823597941593.0
0.0,-5.0,-6.0,-5.0,-7.0,-7.0,-2.0,0.0,1650823597964149.0
-2.0,2.0,4.0,4.0,1.0,4.0,1.0,-1.0,1650823597964149.0
-1.0,-6.0,-4.0,0.0,3.0,-2.0,0.0,4.0,1650823597964149.0
-1.0,2.0,2.0,-2.0,-2.0,-1.0,-1.0,-2.0,1650823597964149.0
0.0,-1.0,-3.0,-2.0,-6.0,-4.0,-1.0,-1.0,1650823597979112.0
-2.0,-1.0,5.0,0.0,3.0,3.0,0.0,-1.0,1650823597979112.0
-2.0,-2.0,-3.0,0.0,-3.0,-3.0,2.0,-2.0,1650823597986122.0
4.0,4.0,6.0,3.0,-4.0,-8.0,0.0,4.0,1650823597986122.0
-1.0,-1.0,-17.0,-6.0,2.0,9.0,-1.0,-1.0,1650823598001116.0
2.0,-4.0,-2.0,-5.0,6.0,-1.0,-3.0,-2.0,1650823598001116.0
-2.0,2.0,-4.0,1.0,-7.0,-6.0,-4.0,-3.0,1650823598002051.0
0.0,3.0,-1.0,-9.0,-8.0,-4.0,-4.0,-1.0,1650823598002051.0
0.0,-5.0,4.0,8.0,7.0,7.0,0.0,2.0,1650823598024033.0
-2.0,-1.0,8.0,4.0,-2.0,-2.0,1.0,-1.0,1650823598024033.0
-1.0,-1.0,-7.0,-7.0,3.0,1.0,1.0,1.0,1650823598024033.0
-1.0,-1.0,-6.0,-2.0,-3.0,-5.0,-2.0,-1.0,1650823598024033.0
-2.0,3.0,-2.0,-4.0,2.0,3.0,1.0,-2.0,1650823598038132.0
-1.0,-1.0,4.0,4.0,2.0,4.0,4.0,0.0,1650823598038132.0
0.0,-3.0,0.0,-1.0,-5.0,-2.0,-1.0,-1.0,1650823598046111.0
-1.0,4.0,1.0,0.0,-2.0,-5.0,0.0,1.0,1650823598046111.0
0.0,-1.0,0.0,-4.0,-3.0,-3.0,-4.0,1.0,1650823598061101.0
-1.0,4.0,-3.0,4.0,4.0,1.0,-1.0,-1.0,1650823598061101.0
-1.0,-5.0,-1.0,-2.0,-1.0,-1.0,0.0,-1.0,1650823598062070.0
-1.0,0.0,-11.0,-1.0,-2.0,4.0,0.0,-3.0,1650823598062070.0
-1.0,0.0,4.0,-4.0,2.0,3.0,1.0,-1.0,1650823598084014.0
1.0,-3.0,-2.0,3.0,-1.0,0.0,1.0,2.0,1650823598084014.0
-1.0,-2.0,-3.0,-3.0,2.0,1.0,0.0,5.0,1650823598084014.0
-1.0,-5.0,0.0,1.0,-4.0,1.0,-9.0,-27.0,1650823598084014.0
1.0,1.0,0.0,2.0,-5.0,-6.0,-2.0,1.0,1650823598097976.0
-1.0,-1.0,-1.0,-2.0,3.0,-1.0,-1.0,0.0,1650823598097976.0
0.0,1.0,-1.0,-1.0,4.0,-1.0,-1.0,1.0,1650823598105951.0
-2.0,-2.0,1.0,-2.0,-3.0,-2.0,0.0,4.0,1650823598105951.0
-1.0,3.0,2.0,0.0,-5.0,-6.0,0.0,-2.0,1650823598121621.0
-2.0,0.0,-4.0,0.0,-1.0,0.0,0.0,-4.0,1650823598121621.0
-1.0,0.0,0.0,5.0,5.0,2.0,2.0,-1.0,1650823598121621.0
2.0,4.0,7.0,6.0,1.0,3.0,2.0,5.0,1650823598121621.0
0.0,-1.0,-5.0,-1.0,0.0,-1.0,-3.0,-1.0,1650823598143679.0
-1.0,-3.0,-7.0,-3.0,-7.0,-5.0,-1.0,2.0,1650823598143679.0
-3.0,-2.0,19.0,-8.0,3.0,-2.0,-4.0,-4.0,1650823598144658.0
-3.0,0.0,-3.0,5.0,-5.0,3.0,2.0,1.0,1650823598144658.0
-2.0,1.0,8.0,16.0,5.0,4.0,6.0,2.0,1650823598158238.0
2.0,-1.0,-21.0,-19.0,-3.0,-3.0,-1.0,1.0,1650823598158238.0
2.0,2.0,4.0,1.0,-7.0,-6.0,-3.0,-1.0,1650823598166220.0
-2.0,-2.0,2.0,-3.0,5.0,1.0,2.0,1.0,1650823598166220.0
-1.0,-1.0,0.0,-1.0,-3.0,1.0,-1.0,-1.0,1650823598180666.0
-1.0,-3.0,5.0,6.0,2.0,0.0,-1.0,-1.0,1650823598180666.0
-1.0,-3.0,-11.0,-2.0,-1.0,-2.0,-3.0,-3.0,1650823598181669.0
0.0,1.0,2.0,-3.0,-12.0,-4.0,-1.0,4.0,1650823598181669.0
-1.0,-3.0,0.0,-2.0,3.0,-1.0,2.0,1.0,1650823598203625.0
1.0,4.0,7.0,4.0,2.0,3.0,1.0,3.0,1650823598203625.0
0.0,-2.0,-6.0,1.0,6.0,6.0,-1.0,-2.0,1650823598204603.0
1.0,3.0,7.0,10.0,20.0,2.0,-2.0,0.0,1650823598204603.0
1.0,1.0,-4.0,-5.0,-12.0,-5.0,-2.0,-1.0,1650823598217673.0
0.0,5.0,19.0,-2.0,-4.0,-2.0,1.0,3.0,1650823598217673.0
-2.0,-6.0,-9.0,8.0,7.0,3.0,1.0,-6.0,1650823598225651.0
-1.0,2.0,-3.0,-5.0,-1.0,-2.0,-5.0,-8.0,1650823598225651.0
-3.0,-14.0,-7.0,-9.0,-1.0,-1.0,-4.0,-4.0,1650823598241575.0
0.0,9.0,18.0,9.0,5.0,7.0,1.0,4.0,1650823598241575.0
-1.0,-16.0,-7.0,2.0,-3.0,-4.0,4.0,6.0,1650823598241575.0
-3.0,12.0,-2.0,-11.0,-3.0,-3.0,-4.0,-5.0,1650823598241575.0
2.0,-3.0,-3.0,-1.0,-4.0,-2.0,4.0,42.0,1650823598263524.0
2.0,16.0,3.0,-1.0,-3.0,-6.0,-1.0,-17.0,1650823598263524.0
-6.0,-10.0,7.0,-1.0,-2.0,-1.0,-2.0,1.0,1650823598264514.0
1.0,-5.0,-9.0,-2.0,-7.0,-7.0,-3.0,2.0,1650823598264514.0
-5.0,-12.0,-11.0,-3.0,5.0,0.0,0.0,-3.0,1650823598277479.0
3.0,10.0,3.0,4.0,9.0,10.0,3.0,16.0,1650823598277479.0
0.0,6.0,17.0,5.0,-4.0,-5.0,3.0,3.0,1650823598293514.0
1.0,2.0,-7.0,2.0,-2.0,4.0,6.0,5.0,1650823598293514.0
14.0,23.0,25.0,2.0,0.0,0.0,-4.0,-6.0,1650823598301526.0
-18.0,-58.0,-55.0,-23.0,-9.0,-6.0,-7.0,-12.0,1650823598301526.0
2.0,25.0,15.0,-3.0,-2.0,-1.0,4.0,-3.0,1650823598301526.0
7.0,8.0,14.0,6.0,6.0,6.0,10.0,33.0,1650823598301526.0
2.0,52.0,89.0,41.0,11.0,5.0,-6.0,-60.0,1650823598324030.0
3.0,-10.0,-3.0,4.0,-2.0,-7.0,-17.0,45.0,1650823598324030.0
13.0,8.0,-38.0,-45.0,-11.0,-2.0,-1.0,9.0,1650823598324030.0
-25.0,8.0,32.0,8.0,-8.0,-13.0,1.0,-26.0,1650823598324030.0
-4.0,3.0,-31.0,-8.0,4.0,0.0,-14.0,28.0,1650823598337996.0
4.0,28.0,49.0,24.0,10.0,7.0,4.0,5.0,1650823598337996.0
-2.0,-5.0,-5.0,1.0,-6.0,-2.0,-18.0,-67.0,1650823598345980.0
10.0,7.0,1.0,7.0,5.0,7.0,9.0,32.0,1650823598345980.0
9.0,2.0,-7.0,17.0,1.0,-2.0,6.0,19.0,1650823598361002.0
1.0,5.0,-17.0,-20.0,7.0,4.0,18.0,-10.0,1650823598361002.0
-15.0,15.0,0.0,25.0,3.0,-3.0,-18.0,13.0,1650823598361933.0
2.0,-30.0,4.0,-34.0,-2.0,2.0,2.0,-21.0,1650823598361933.0
-18.0,-42.0,-25.0,-14.0,-18.0,-14.0,-13.0,-43.0,1650823598383886.0
25.0,89.0,63.0,34.0,6.0,7.0,12.0,34.0,1650823598383886.0
-18.0,-66.0,-40.0,-58.0,-15.0,-6.0,6.0,18.0,1650823598383886.0
18.0,14.0,57.0,32.0,8.0,8.0,-1.0,33.0,1650823598383886.0
-17.0,-16.0,-18.0,-1.0,1.0,-2.0,2.0,1.0,1650823598398131.0
-6.0,-75.0,-76.0,-31.0,-15.0,-7.0,6.0,13.0,1650823598398131.0
9.0,38.0,56.0,35.0,9.0,5.0,11.0,63.0,1650823598406158.0
-7.0,15.0,-40.0,-4.0,6.0,7.0,10.0,46.0,1650823598406158.0
2.0,-16.0,21.0,-6.0,-9.0,-15.0,-31.0,-61.0,1650823598421085.0
7.0,6.0,-37.0,-17.0,-11.0,-14.0,-42.0,19.0,1650823598421085.0
11.0,56.0,61.0,31.0,7.0,9.0,17.0,24.0,1650823598422063.0
-10.0,-13.0,-45.0,-45.0,1.0,-7.0,1.0,-24.0,1650823598422063.0
-8.0,11.0,-16.0,2.0,14.0,11.0,22.0,15.0,1650823598452039.0
