EMG_s0,EMG_s1,EMG_s2,EMG_s3,EMG_s4,EMG_s5,EMG_s6,EMG_s7,timestamp
-2.0,-1.0,0.0,3.0,-7.0,-15.0,-2.0,-4.0,1650848981176934.0
0.0,5.0,0.0,8.0,5.0,5.0,0.0,2.0,1650848981176934.0
-3.0,-5.0,1.0,-28.0,-9.0,-15.0,-3.0,-4.0,1650848981177930.0
0.0,0.0,1.0,1.0,8.0,15.0,3.0,0.0,1650848981177930.0
1.0,4.0,-1.0,9.0,-6.0,-3.0,-1.0,1.0,1650848981178928.0
-2.0,-2.0,-1.0,-18.0,0.0,-6.0,-1.0,0.0,1650848981178928.0
0.0,-1.0,-1.0,0.0,3.0,2.0,0.0,-1.0,1650848981179952.0
0.0,2.0,0.0,5.0,-2.0,-3.0,-1.0,0.0,1650848981179952.0
-1.0,-2.0,-1.0,-8.0,3.0,3.0,0.0,0.0,1650848981189899.0
-2.0,-4.0,0.0,-10.0,-8.0,-6.0,-1.0,-3.0,1650848981189899.0
0.0,1.0,-1.0,8.0,-10.0,1.0,-1.0,0.0,1650848981199872.0
-1.0,1.0,0.0,-1.0,13.0,3.0,1.0,1.0,1650848981199872.0
1.0,-4.0,-1.0,-13.0,2.0,-1.0,-1.0,-2.0,1650848981204879.0
0.0,0.0,-1.0,5.0,-7.0,6.0,7.0,0.0,1650848981204879.0
-1.0,2.0,-1.0,8.0,4.0,-3.0,-2.0,1.0,1650848981220844.0
2.0,-2.0,1.0,-6.0,-3.0,-1.0,-2.0,-2.0,1650848981220844.0
-2.0,-4.0,1.0,-2.0,-1.0,-11.0,-2.0,0.0,1650848981228809.0
0.0,1.0,1.0,5.0,7.0,21.0,-1.0,1.0,1650848981228809.0
1.0,-2.0,0.0,-3.0,-8.0,-10.0,-1.0,0.0,1650848981243767.0
-2.0,-1.0,-6.0,-5.0,-4.0,-1.0,1.0,-1.0,1650848981243767.0
-2.0,0.0,1.0,3.0,0.0,0.0,-1.0,-1.0,1650848981251733.0
0.0,-2.0,-2.0,-5.0,-11.0,-26.0,-6.0,-2.0,1650848981251733.0
0.0,0.0,2.0,1.0,5.0,26.0,4.0,1.0,1650848981264903.0
-1.0,-1.0,1.0,-2.0,-3.0,-8.0,-2.0,-1.0,1650848981264903.0
-2.0,-5.0,-1.0,-9.0,-3.0,-2.0,-1.0,-4.0,1650848981307812.0
1.0,3.0,2.0,10.0,-2.0,0.0,-2.0,0.0,1650848981307812.0
0.0,2.0,-2.0,0.0,2.0,0.0,-1.0,0.0,1650848981311801.0
0.0,-3.0,0.0,-12.0,-11.0,-4.0,2.0,-3.0,1650848981311801.0
1.0,0.0,-1.0,7.0,7.0,-3.0,-2.0,-1.0,1650848981311801.0
1.0,1.0,2.0,4.0,5.0,22.0,4.0,3.0,1650848981311801.0
-1.0,-5.0,-3.0,-13.0,-4.0,-24.0,-4.0,-2.0,1650848981312808.0
-1.0,0.0,-1.0,-1.0,1.0,27.0,0.0,-2.0,1650848981312808.0
-1.0,1.0,-2.0,6.0,0.0,-5.0,0.0,2.0,1650848981317785.0
-1.0,-3.0,-1.0,-12.0,-5.0,-13.0,-6.0,-2.0,1650848981317785.0
1.0,-1.0,0.0,1.0,-3.0,1.0,-2.0,-3.0,1650848981324768.0
-3.0,0.0,-4.0,5.0,-8.0,-20.0,-3.0,0.0,1650848981324768.0
-1.0,1.0,-1.0,0.0,3.0,-3.0,-3.0,0.0,1650848981332745.0
0.0,-2.0,0.0,-5.0,4.0,15.0,3.0,-1.0,1650848981332745.0
2.0,0.0,1.0,2.0,0.0,2.0,-1.0,1.0,1650848981347705.0
2.0,0.0,-1.0,5.0,9.0,7.0,3.0,1.0,1650848981347705.0
0.0,-1.0,2.0,-7.0,-4.0,0.0,-1.0,-2.0,1650848981354706.0
-1.0,-2.0,-2.0,0.0,-2.0,-7.0,-1.0,-2.0,1650848981354706.0
-3.0,0.0,1.0,2.0,-10.0,-17.0,-4.0,-2.0,1650848981378649.0
-2.0,-2.0,-1.0,-2.0,7.0,20.0,2.0,2.0,1650848981378649.0
2.0,-1.0,2.0,-2.0,2.0,3.0,2.0,2.0,1650848981379620.0
-1.0,1.0,1.0,5.0,-2.0,-12.0,-1.0,0.0,1650848981379620.0
1.0,1.0,-2.0,-2.0,4.0,2.0,-1.0,-1.0,1650848981393660.0
1.0,-2.0,0.0,1.0,7.0,18.0,8.0,2.0,1650848981393660.0
-1.0,0.0,1.0,-2.0,-14.0,-10.0,-3.0,-3.0,1650848981393660.0
0.0,-1.0,-2.0,-2.0,4.0,4.0,0.0,0.0,1650848981393660.0
-2.0,0.0,-1.0,-3.0,-2.0,-3.0,-1.0,0.0,1650848981415637.0
-2.0,1.0,1.0,2.0,0.0,-12.0,-6.0,0.0,1650848981415637.0
-1.0,0.0,-3.0,-1.0,-6.0,6.0,1.0,-1.0,1650848981416601.0
1.0,-1.0,0.0,-2.0,0.0,-6.0,0.0,-2.0,1650848981416601.0
-1.0,0.0,0.0,1.0,3.0,12.0,2.0,1.0,1650848981439539.0
-1.0,0.0,1.0,-1.0,-1.0,-11.0,-3.0,-1.0,1650848981439539.0
-1.0,-2.0,-1.0,-2.0,-4.0,2.0,1.0,-1.0,1650848981440538.0
0.0,1.0,0.0,0.0,0.0,4.0,0.0,0.0,1650848981440538.0
0.0,1.0,1.0,3.0,3.0,9.0,3.0,0.0,1650848981453535.0
0.0,-1.0,-3.0,-4.0,-11.0,-24.0,-6.0,-3.0,1650848981453535.0
-3.0,1.0,-2.0,2.0,10.0,23.0,2.0,1.0,1650848981454500.0
-2.0,-3.0,-2.0,-3.0,0.0,-8.0,-2.0,-2.0,1650848981454500.0
2.0,0.0,-1.0,2.0,-6.0,-2.0,-2.0,0.0,1650848981476187.0
3.0,-1.0,5.0,-1.0,-14.0,-22.0,-1.0,-2.0,1650848981476187.0
3.0,2.0,1.0,7.0,21.0,26.0,4.0,3.0,1650848981476826.0
-1.0,-1.0,-2.0,-2.0,-1.0,4.0,0.0,0.0,1650848981476826.0
-2.0,-2.0,1.0,-1.0,5.0,-1.0,1.0,-1.0,1650848981498878.0
-1.0,-1.0,-1.0,-2.0,-7.0,-9.0,-5.0,-3.0,1650848981498878.0
-2.0,-1.0,-2.0,-1.0,-8.0,-7.0,0.0,-1.0,1650848981499847.0
-3.0,0.0,-1.0,-1.0,2.0,0.0,-3.0,1.0,1650848981499847.0
-1.0,-2.0,-1.0,-2.0,-6.0,11.0,8.0,0.0,1650848981512845.0
0.0,0.0,-1.0,2.0,2.0,-5.0,-2.0,-3.0,1650848981512845.0
-2.0,-1.0,0.0,-1.0,2.0,5.0,0.0,1.0,1650848981520813.0
-1.0,0.0,0.0,-3.0,-4.0,-9.0,0.0,-1.0,1650848981520813.0
1.0,-1.0,-1.0,2.0,4.0,-7.0,-3.0,1.0,1650848981535745.0
-1.0,0.0,-1.0,-3.0,2.0,13.0,3.0,1.0,1650848981535745.0
0.0,-2.0,-1.0,-3.0,-5.0,-11.0,-1.0,-1.0,1650848981536743.0
0.0,0.0,-1.0,2.0,-3.0,-4.0,0.0,-2.0,1650848981536743.0
-2.0,-3.0,-1.0,-1.0,-15.0,-24.0,-5.0,-2.0,1650848981558736.0
1.0,-1.0,3.0,3.0,19.0,45.0,6.0,4.0,1650848981558736.0
0.0,-3.0,-4.0,-8.0,-4.0,-15.0,-3.0,0.0,1650848981559718.0
-1.0,-1.0,0.0,-1.0,-4.0,-6.0,-3.0,-2.0,1650848981559718.0
0.0,-1.0,0.0,-1.0,3.0,2.0,0.0,-3.0,1650848981572684.0
0.0,-1.0,0.0,-1.0,-1.0,0.0,0.0,0.0,1650848981572684.0
0.0,1.0,1.0,0.0,0.0,-3.0,2.0,0.0,1650848981580663.0
0.0,-1.0,0.0,0.0,2.0,9.0,0.0,0.0,1650848981580663.0
0.0,1.0,-3.0,-4.0,-2.0,-6.0,-2.0,-1.0,1650848981603592.0
0.0,-1.0,-1.0,0.0,-2.0,-6.0,-3.0,-1.0,1650848981603592.0
1.0,0.0,-2.0,0.0,-7.0,-13.0,-3.0,-2.0,1650848981604569.0
-1.0,-2.0,-2.0,-2.0,-3.0,5.0,-1.0,-1.0,1650848981604569.0
0.0,0.0,3.0,0.0,-1.0,14.0,4.0,3.0,1650848981618552.0
-2.0,0.0,0.0,2.0,8.0,-1.0,0.0,0.0,1650848981618552.0
1.0,0.0,1.0,0.0,3.0,3.0,-2.0,0.0,1650848981619523.0
1.0,-2.0,0.0,-2.0,-4.0,-10.0,-2.0,-2.0,1650848981619523.0
-2.0,0.0,-4.0,-4.0,-1.0,1.0,-2.0,-1.0,1650848981632553.0
-1.0,-1.0,-7.0,-3.0,-5.0,-4.0,-4.0,-2.0,1650848981632553.0
-2.0,-2.0,3.0,-3.0,-22.0,-54.0,-9.0,-5.0,1650848981640469.0
4.0,2.0,1.0,7.0,15.0,68.0,9.0,3.0,1650848981640469.0
2.0,-1.0,2.0,-3.0,14.0,10.0,2.0,1.0,1650848981655766.0
-2.0,-1.0,0.0,-7.0,-10.0,-15.0,-2.0,-2.0,1650848981655766.0
-2.0,-1.0,-2.0,0.0,3.0,-1.0,0.0,0.0,1650848981656737.0
-1.0,0.0,-2.0,-3.0,-4.0,-17.0,-5.0,0.0,1650848981656737.0
0.0,-3.0,1.0,0.0,-9.0,-2.0,-2.0,-1.0,1650848981678745.0
0.0,-1.0,-1.0,-2.0,1.0,-1.0,-1.0,0.0,1650848981678745.0
2.0,-1.0,-1.0,0.0,-2.0,3.0,-3.0,-1.0,1650848981679675.0
-1.0,-1.0,0.0,0.0,1.0,8.0,3.0,0.0,1650848981679675.0
-1.0,-1.0,-1.0,-1.0,7.0,3.0,0.0,-2.0,1650848981693097.0
-1.0,0.0,-1.0,0.0,-1.0,-8.0,-2.0,-1.0,1650848981693097.0
0.0,0.0,-2.0,4.0,-4.0,6.0,3.0,-1.0,1650848981701078.0
0.0,0.0,5.0,-1.0,4.0,-7.0,1.0,0.0,1650848981701078.0
-3.0,-2.0,-5.0,-1.0,0.0,1.0,-2.0,-1.0,1650848981724029.0
0.0,-1.0,2.0,3.0,-8.0,-24.0,-5.0,-1.0,1650848981724029.0
1.0,1.0,-2.0,3.0,10.0,40.0,9.0,1.0,1650848981725016.0
1.0,-1.0,1.0,-4.0,-6.0,-6.0,2.0,0.0,1650848981725016.0
0.0,-1.0,2.0,4.0,11.0,-2.0,-1.0,0.0,1650848981738976.0
-2.0,-1.0,-1.0,-3.0,-2.0,-4.0,-4.0,-1.0,1650848981738976.0
-4.0,-1.0,1.0,-4.0,-5.0,6.0,1.0,-1.0,1650848981739974.0
-2.0,-2.0,-1.0,0.0,-1.0,-15.0,-1.0,-1.0,1650848981739974.0
0.0,-1.0,-1.0,-1.0,-5.0,-2.0,-1.0,0.0,1650848981761969.0
-1.0,-1.0,-2.0,-1.0,2.0,13.0,2.0,0.0,1650848981761969.0
1.0,0.0,0.0,0.0,3.0,-3.0,-3.0,-1.0,1650848981761969.0
-2.0,-1.0,-3.0,-4.0,-7.0,-6.0,-3.0,-2.0,1650848981761969.0
0.0,-2.0,0.0,1.0,-2.0,-6.0,-1.0,0.0,1650848981775879.0
1.0,-1.0,0.0,-2.0,6.0,4.0,2.0,0.0,1650848981775879.0
1.0,-1.0,-3.0,0.0,-2.0,-1.0,-2.0,1.0,1650848981776875.0
0.0,-1.0,-1.0,-2.0,-7.0,-7.0,-2.0,-1.0,1650848981776875.0
1.0,1.0,-1.0,-1.0,-2.0,-13.0,-1.0,0.0,1650848981798917.0
0.0,1.0,1.0,3.0,11.0,22.0,3.0,1.0,1650848981798917.0
-3.0,-2.0,0.0,-3.0,-4.0,2.0,1.0,1.0,1650848981799898.0
-1.0,0.0,0.0,-4.0,-1.0,-11.0,-2.0,-1.0,1650848981799898.0
-1.0,-1.0,-2.0,-4.0,-5.0,-13.0,-4.0,0.0,1650848981812920.0
-1.0,1.0,-2.0,4.0,-7.0,11.0,4.0,-1.0,1650848981812920.0
1.0,0.0,0.0,0.0,5.0,18.0,2.0,-1.0,1650848981820831.0
0.0,-1.0,1.0,1.0,6.0,-3.0,-2.0,-2.0,1650848981820831.0
0.0,-1.0,-4.0,0.0,-1.0,6.0,0.0,0.0,1650848981835818.0
-3.0,0.0,0.0,-5.0,-1.0,-14.0,-6.0,-2.0,1650848981835818.0
-1.0,2.0,0.0,-2.0,-2.0,-1.0,0.0,-1.0,1650848981836818.0
-2.0,-1.0,-1.0,-1.0,-7.0,-6.0,-2.0,-1.0,1650848981836818.0
0.0,2.0,3.0,3.0,5.0,12.0,1.0,-1.0,1650848981858818.0
0.0,-2.0,-2.0,-4.0,-10.0,-11.0,-3.0,-1.0,1650848981858818.0
1.0,0.0,1.0,2.0,6.0,-8.0,-3.0,0.0,1650848981859825.0
2.0,2.0,-1.0,4.0,5.0,15.0,1.0,0.0,1650848981859825.0
0.0,-1.0,-1.0,-2.0,3.0,3.0,3.0,0.0,1650848981872778.0
-1.0,0.0,-1.0,3.0,-3.0,1.0,0.0,-2.0,1650848981872778.0
-2.0,-2.0,-2.0,1.0,-3.0,-7.0,-1.0,0.0,1650848981888735.0
0.0,0.0,-1.0,-2.0,3.0,-7.0,-2.0,1.0,1650848981888735.0
-1.0,-1.0,3.0,-1.0,0.0,11.0,0.0,-2.0,1650848981896193.0
-1.0,-1.0,-2.0,0.0,-6.0,-3.0,1.0,-3.0,1650848981896193.0
-2.0,-1.0,0.0,3.0,2.0,-16.0,-6.0,-2.0,1650848981896569.0
-3.0,-1.0,-4.0,-1.0,8.0,4.0,-1.0,0.0,1650848981896569.0
1.0,1.0,-1.0,-1.0,-9.0,-3.0,5.0,2.0,1650848981918541.0
-2.0,-1.0,2.0,0.0,11.0,28.0,1.0,2.0,1650848981918541.0
0.0,-1.0,-2.0,-5.0,-12.0,-13.0,-2.0,-1.0,1650848981919510.0
0.0,-1.0,-3.0,1.0,0.0,-9.0,-3.0,-2.0,1650848981919510.0
-2.0,0.0,0.0,-1.0,1.0,-1.0,-2.0,-3.0,1650848981941451.0
-1.0,-1.0,-3.0,-1.0,-7.0,-14.0,-3.0,0.0,1650848981941451.0
0.0,2.0,1.0,-1.0,9.0,7.0,0.0,-1.0,1650848981942449.0
0.0,-1.0,0.0,-1.0,-3.0,2.0,-2.0,0.0,1650848981942449.0
1.0,-1.0,-1.0,0.0,-8.0,2.0,1.0,1.0,1650848981955723.0
0.0,2.0,1.0,2.0,4.0,3.0,2.0,2.0,1650848981955723.0
0.0,-3.0,1.0,-3.0,0.0,5.0,1.0,0.0,1650848981956721.0
-1.0,-2.0,-3.0,-4.0,-5.0,-9.0,-2.0,-4.0,1650848981956721.0
-1.0,0.0,1.0,0.0,1.0,1.0,-2.0,-3.0,1650848981986660.0
-2.0,-1.0,0.0,-3.0,-14.0,-18.0,-6.0,-2.0,1650848981986660.0
-2.0,1.0,0.0,3.0,11.0,15.0,3.0,0.0,1650848981987659.0
-1.0,-2.0,0.0,-3.0,-2.0,-13.0,2.0,0.0,1650848981987659.0
-1.0,0.0,-1.0,-3.0,0.0,15.0,0.0,-1.0,1650848982001635.0
2.0,1.0,0.0,0.0,2.0,-8.0,2.0,2.0,1650848982001635.0
-2.0,-1.0,-1.0,-2.0,-10.0,-26.0,-5.0,-1.0,1650848982002625.0
1.0,0.0,1.0,0.0,4.0,32.0,3.0,2.0,1650848982002625.0
-2.0,-2.0,-2.0,-1.0,-5.0,-5.0,-3.0,-1.0,1650848982016187.0
-1.0,-1.0,-4.0,2.0,6.0,-4.0,-2.0,-1.0,1650848982016187.0
-1.0,-2.0,-2.0,-2.0,-2.0,-4.0,-2.0,-2.0,1650848982016581.0
-3.0,1.0,-1.0,-2.0,-11.0,-25.0,-4.0,-1.0,1650848982016581.0
1.0,1.0,-5.0,1.0,4.0,16.0,1.0,1.0,1650848982038560.0
1.0,0.0,2.0,-1.0,6.0,13.0,1.0,0.0,1650848982038560.0
-3.0,1.0,2.0,0.0,3.0,0.0,-1.0,-2.0,1650848982039523.0
-1.0,0.0,-5.0,1.0,1.0,-3.0,0.0,0.0,1650848982039523.0
-2.0,1.0,1.0,-1.0,2.0,3.0,1.0,-1.0,1650848982061776.0
1.0,-1.0,-2.0,-5.0,-5.0,-9.0,0.0,0.0,1650848982061776.0
-1.0,-1.0,0.0,1.0,-2.0,-3.0,-3.0,-1.0,1650848982062736.0
2.0,0.0,-1.0,2.0,-9.0,7.0,3.0,0.0,1650848982062736.0
-1.0,0.0,1.0,0.0,5.0,-14.0,-4.0,0.0,1650848982075699.0
0.0,-2.0,1.0,2.0,5.0,15.0,1.0,1.0,1650848982075699.0
1.0,0.0,-2.0,-1.0,-3.0,-2.0,4.0,0.0,1650848982076696.0
-1.0,0.0,2.0,-1.0,6.0,8.0,-1.0,0.0,1650848982076696.0
-1.0,-5.0,-1.0,-4.0,-10.0,-6.0,-1.0,0.0,1650848982098721.0
-2.0,0.0,-2.0,2.0,-1.0,-19.0,-3.0,-2.0,1650848982098721.0
0.0,-2.0,0.0,1.0,1.0,22.0,2.0,1.0,1650848982099707.0
1.0,-1.0,1.0,-2.0,9.0,-3.0,2.0,1.0,1650848982099707.0
0.0,-1.0,-1.0,-1.0,-3.0,-5.0,-3.0,1.0,1650848982121639.0
-1.0,-2.0,-1.0,-1.0,1.0,15.0,8.0,0.0,1650848982121639.0
0.0,0.0,-2.0,-2.0,-8.0,-6.0,-2.0,0.0,1650848982121639.0
1.0,0.0,1.0,0.0,3.0,0.0,1.0,-3.0,1650848982121639.0
-3.0,-1.0,-5.0,-1.0,-1.0,-9.0,-2.0,-2.0,1650848982135601.0
0.0,-1.0,1.0,-3.0,-2.0,-3.0,-2.0,-1.0,1650848982135601.0
-1.0,-3.0,-1.0,-2.0,-8.0,-20.0,-4.0,0.0,1650848982136599.0
2.0,0.0,1.0,4.0,-2.0,27.0,5.0,4.0,1650848982136599.0
1.0,2.0,2.0,1.0,14.0,4.0,2.0,-1.0,1650848982158736.0
-2.0,-2.0,0.0,-2.0,0.0,-4.0,-2.0,-3.0,1650848982158736.0
-2.0,-1.0,-3.0,0.0,-1.0,1.0,1.0,0.0,1650848982159733.0
-2.0,-2.0,-4.0,-4.0,-8.0,-19.0,-8.0,-3.0,1650848982159733.0
1.0,1.0,3.0,4.0,-11.0,-22.0,-3.0,-1.0,1650848982181702.0
0.0,1.0,-1.0,3.0,12.0,35.0,1.0,0.0,1650848982181702.0
1.0,-1.0,1.0,1.0,7.0,2.0,0.0,0.0,1650848982182673.0
-2.0,-1.0,-1.0,-3.0,-10.0,-7.0,0.0,-3.0,1650848982182673.0
0.0,-2.0,-1.0,-6.0,-9.0,-9.0,-2.0,-2.0,1650848982195723.0
-3.0,0.0,0.0,3.0,-1.0,-3.0,-3.0,-1.0,1650848982195723.0
1.0,0.0,-1.0,-2.0,3.0,1.0,0.0,0.0,1650848982196724.0
-3.0,-1.0,-1.0,-3.0,-1.0,-1.0,-1.0,-2.0,1650848982196724.0
-1.0,-3.0,1.0,5.0,3.0,0.0,-2.0,-3.0,1650848982218692.0
0.0,1.0,0.0,0.0,-6.0,-16.0,-6.0,-1.0,1650848982218692.0
0.0,1.0,-6.0,0.0,10.0,21.0,9.0,0.0,1650848982219691.0
0.0,0.0,1.0,-3.0,0.0,-8.0,-1.0,1.0,1650848982219691.0
-1.0,0.0,0.0,1.0,-3.0,5.0,-1.0,1.0,1650848982241612.0
1.0,-2.0,0.0,-4.0,-15.0,-18.0,-3.0,0.0,1650848982241612.0
-1.0,0.0,1.0,1.0,8.0,17.0,1.0,2.0,1650848982242608.0
-1.0,0.0,1.0,4.0,4.0,-2.0,-1.0,0.0,1650848982242608.0
-2.0,0.0,-1.0,-3.0,-1.0,-1.0,-2.0,-2.0,1650848982255748.0
-1.0,-4.0,-1.0,-3.0,-7.0,-14.0,-2.0,-3.0,1650848982255748.0
0.0,1.0,1.0,-1.0,-9.0,14.0,2.0,0.0,1650848982256719.0
-1.0,1.0,-1.0,1.0,7.0,1.0,0.0,0.0,1650848982256719.0
-1.0,-1.0,0.0,0.0,-3.0,6.0,1.0,-2.0,1650848982277702.0
2.0,-1.0,-2.0,2.0,8.0,-1.0,1.0,1.0,1650848982277702.0
-2.0,0.0,0.0,0.0,-9.0,-18.0,-5.0,-2.0,1650848982286639.0
0.0,-1.0,0.0,-1.0,1.0,12.0,1.0,0.0,1650848982286639.0
0.0,-2.0,1.0,3.0,3.0,4.0,3.0,0.0,1650848982301619.0
0.0,2.0,-1.0,1.0,6.0,4.0,1.0,1.0,1650848982301619.0
0.0,-2.0,-3.0,-1.0,-5.0,-13.0,-6.0,-1.0,1650848982302616.0
-1.0,-2.0,-1.0,-1.0,-6.0,-2.0,0.0,0.0,1650848982302616.0
0.0,0.0,0.0,-2.0,-9.0,1.0,-1.0,0.0,1650848982323573.0
0.0,-1.0,-6.0,0.0,5.0,1.0,-1.0,0.0,1650848982323573.0
-2.0,-2.0,0.0,-5.0,-2.0,-18.0,-5.0,-1.0,1650848982325535.0
1.0,1.0,1.0,3.0,5.0,18.0,-1.0,0.0,1650848982325535.0
1.0,0.0,1.0,0.0,-2.0,2.0,3.0,1.0,1650848982337536.0
1.0,-1.0,3.0,-1.0,13.0,15.0,10.0,0.0,1650848982337536.0
-2.0,-3.0,-1.0,-2.0,1.0,-4.0,-3.0,-2.0,1650848982346827.0
-2.0,-2.0,-4.0,0.0,-11.0,-15.0,-3.0,-4.0,1650848982346827.0
-2.0,1.0,-1.0,1.0,2.0,-8.0,-4.0,-3.0,1650848982361699.0
-2.0,1.0,0.0,-4.0,-8.0,0.0,-2.0,-1.0,1650848982361699.0
0.0,-1.0,0.0,2.0,-2.0,-1.0,0.0,1.0,1650848982362696.0
1.0,-1.0,1.0,0.0,-1.0,-6.0,-1.0,-1.0,1650848982362696.0
0.0,-2.0,-5.0,-2.0,0.0,9.0,-2.0,0.0,1650848982384392.0
1.0,1.0,0.0,2.0,5.0,0.0,-2.0,-1.0,1650848982384392.0
-1.0,0.0,0.0,-2.0,-2.0,5.0,2.0,0.0,1650848982385755.0
-1.0,-1.0,-2.0,0.0,-13.0,-21.0,-4.0,1.0,1650848982385755.0
1.0,2.0,0.0,0.0,17.0,32.0,5.0,4.0,1650848982405872.0
0.0,-1.0,0.0,-3.0,-9.0,-8.0,-3.0,-2.0,1650848982405872.0
-1.0,0.0,-2.0,-1.0,-4.0,-3.0,-2.0,0.0,1650848982407866.0
1.0,1.0,2.0,-2.0,0.0,-6.0,1.0,0.0,1650848982407866.0
-2.0,-1.0,0.0,2.0,3.0,4.0,-1.0,1.0,1650848982421829.0
0.0,-3.0,-4.0,-4.0,-1.0,-18.0,-2.0,0.0,1650848982421829.0
1.0,-2.0,2.0,-3.0,5.0,20.0,0.0,-2.0,1650848982422827.0
-1.0,-1.0,-4.0,-1.0,-3.0,-9.0,-2.0,-1.0,1650848982422827.0
-2.0,-1.0,-2.0,-1.0,-6.0,-1.0,0.0,0.0,1650848982443771.0
-2.0,-1.0,0.0,-1.0,0.0,2.0,-3.0,-1.0,1650848982443771.0
0.0,-2.0,-3.0,-4.0,-4.0,-9.0,-2.0,0.0,1650848982445793.0
-1.0,-1.0,0.0,1.0,0.0,-5.0,-4.0,-2.0,1650848982445793.0
2.0,0.0,2.0,-2.0,11.0,15.0,11.0,0.0,1650848982466807.0
0.0,-2.0,1.0,0.0,-7.0,3.0,0.0,-1.0,1650848982466807.0
1.0,0.0,-4.0,3.0,-4.0,-9.0,-1.0,0.0,1650848982467804.0
0.0,0.0,0.0,0.0,4.0,0.0,-3.0,-1.0,1650848982467804.0
-1.0,-1.0,-1.0,-2.0,-8.0,-11.0,-3.0,-3.0,1650848982481767.0
-2.0,2.0,0.0,1.0,-2.0,5.0,3.0,0.0,1650848982481767.0
2.0,1.0,2.0,1.0,3.0,0.0,0.0,-2.0,1650848982482765.0
0.0,-1.0,0.0,1.0,2.0,2.0,1.0,-1.0,1650848982482765.0
1.0,-1.0,-2.0,-1.0,-1.0,8.0,-1.0,0.0,1650848982503903.0
-1.0,-2.0,0.0,-4.0,-9.0,-17.0,-3.0,-2.0,1650848982503903.0
-2.0,-1.0,-1.0,1.0,3.0,13.0,-1.0,0.0,1650848982505891.0
-2.0,0.0,-6.0,-5.0,-1.0,-4.0,-3.0,-2.0,1650848982505891.0
-1.0,-1.0,-1.0,0.0,-4.0,2.0,-2.0,-3.0,1650848982526815.0
-1.0,0.0,2.0,3.0,5.0,0.0,1.0,1.0,1650848982526815.0
-2.0,1.0,0.0,1.0,8.0,4.0,0.0,-2.0,1650848982527825.0
0.0,0.0,2.0,1.0,1.0,1.0,1.0,2.0,1650848982527825.0
0.0,0.0,-3.0,-3.0,-11.0,-17.0,-5.0,-1.0,1650848982541802.0
1.0,-2.0,-1.0,-2.0,2.0,5.0,-1.0,0.0,1650848982541802.0
-2.0,-2.0,-1.0,-2.0,-2.0,-18.0,-4.0,-2.0,1650848982542773.0
0.0,-2.0,-1.0,0.0,2.0,32.0,3.0,0.0,1650848982542773.0
-1.0,-1.0,0.0,-3.0,-11.0,-12.0,-1.0,0.0,1650848982563784.0
-1.0,1.0,-1.0,0.0,12.0,10.0,1.0,2.0,1650848982563784.0
2.0,-1.0,0.0,4.0,8.0,4.0,2.0,2.0,1650848982565711.0
-2.0,1.0,1.0,-1.0,-3.0,-9.0,-3.0,-4.0,1650848982565711.0
-1.0,-3.0,-3.0,-3.0,-3.0,-6.0,-3.0,-1.0,1650848982586682.0
-3.0,-2.0,-1.0,0.0,-12.0,-16.0,-4.0,-2.0,1650848982586682.0
0.0,-1.0,-1.0,-2.0,-1.0,3.0,-2.0,1.0,1650848982588649.0
-1.0,0.0,-1.0,1.0,5.0,12.0,2.0,-1.0,1650848982588649.0
1.0,1.0,3.0,1.0,2.0,10.0,1.0,1.0,1650848982600644.0
-1.0,0.0,0.0,1.0,2.0,-10.0,0.0,0.0,1650848982600644.0
-2.0,0.0,1.0,-3.0,-6.0,-4.0,1.0,-1.0,1650848982607626.0
0.0,-2.0,0.0,-3.0,-3.0,-4.0,1.0,0.0,1650848982607626.0
-2.0,0.0,-2.0,-1.0,0.0,-11.0,-2.0,-1.0,1650848982623556.0
-2.0,-2.0,-2.0,-2.0,-2.0,-2.0,-4.0,-2.0,1650848982623556.0
0.0,-1.0,1.0,1.0,-5.0,10.0,2.0,-1.0,1650848982625550.0
0.0,-1.0,1.0,3.0,-2.0,2.0,4.0,1.0,1650848982625550.0
2.0,1.0,2.0,6.0,21.0,6.0,2.0,3.0,1650848982646580.0
0.0,-1.0,-1.0,-5.0,-10.0,-1.0,-3.0,-1.0,1650848982646580.0
-2.0,-1.0,-2.0,-2.0,-4.0,-10.0,-2.0,-3.0,1650848982647580.0
-2.0,-1.0,-3.0,-1.0,-6.0,-22.0,-7.0,-1.0,1650848982647580.0
0.0,-1.0,1.0,4.0,6.0,35.0,11.0,3.0,1650848982660712.0
2.0,-1.0,0.0,-4.0,-5.0,-12.0,-1.0,-3.0,1650848982660712.0
1.0,2.0,-1.0,2.0,14.0,25.0,3.0,2.0,1650848982667719.0
-2.0,-1.0,-1.0,-4.0,-8.0,-20.0,-4.0,0.0,1650848982667719.0
-1.0,-3.0,-2.0,2.0,4.0,-12.0,-5.0,-3.0,1650848982683649.0
-1.0,-1.0,-3.0,-3.0,-1.0,4.0,-1.0,-2.0,1650848982683649.0
-1.0,0.0,0.0,1.0,-8.0,-7.0,-3.0,0.0,1650848982685643.0
-1.0,0.0,-1.0,-2.0,1.0,8.0,4.0,1.0,1650848982685643.0
0.0,1.0,-1.0,1.0,5.0,-5.0,-1.0,-1.0,1650848982706615.0
-1.0,1.0,-2.0,-1.0,-8.0,9.0,2.0,-1.0,1650848982706615.0
0.0,0.0,2.0,-2.0,1.0,-8.0,-2.0,-1.0,1650848982707613.0
1.0,-2.0,0.0,-2.0,-3.0,4.0,-3.0,-1.0,1650848982707613.0
-1.0,-1.0,-3.0,-2.0,-1.0,-5.0,-3.0,-2.0,1650848982720550.0
1.0,-1.0,-3.0,1.0,3.0,3.0,0.0,0.0,1650848982720550.0
-1.0,0.0,-2.0,-2.0,-10.0,-13.0,-3.0,-3.0,1650848982727533.0
1.0,1.0,0.0,3.0,9.0,13.0,0.0,2.0,1650848982727533.0
-1.0,-1.0,-2.0,-2.0,-11.0,-26.0,-4.0,0.0,1650848982744446.0
-1.0,1.0,2.0,4.0,13.0,40.0,12.0,4.0,1650848982744446.0
0.0,-2.0,-1.0,-2.0,4.0,1.0,2.0,-1.0,1650848982745447.0
-1.0,-2.0,-1.0,1.0,-2.0,-3.0,-2.0,-3.0,1650848982745447.0
0.0,-3.0,-7.0,-4.0,-9.0,-20.0,-8.0,-2.0,1650848982766168.0
-1.0,-2.0,-2.0,-2.0,-5.0,-13.0,-6.0,-1.0,1650848982766168.0
-2.0,-1.0,1.0,2.0,-6.0,2.0,1.0,-1.0,1650848982768097.0
0.0,0.0,-1.0,0.0,5.0,-1.0,1.0,1.0,1650848982768097.0
-2.0,3.0,0.0,-6.0,0.0,9.0,-1.0,1.0,1650848982781125.0
1.0,0.0,0.0,0.0,-7.0,-2.0,1.0,-1.0,1650848982781125.0
-1.0,0.0,-2.0,3.0,12.0,3.0,1.0,0.0,1650848982788043.0
-1.0,-2.0,-1.0,-4.0,-6.0,-7.0,-1.0,-3.0,1650848982788043.0
0.0,0.0,-1.0,0.0,0.0,2.0,-1.0,-2.0,1650848982804030.0
-1.0,-1.0,-2.0,-4.0,-1.0,-2.0,-1.0,-2.0,1650848982804030.0
-1.0,-1.0,1.0,-1.0,-14.0,-9.0,-3.0,-2.0,1650848982805995.0
-1.0,1.0,-1.0,3.0,14.0,10.0,0.0,0.0,1650848982805995.0
-2.0,-1.0,-1.0,-2.0,-11.0,-13.0,1.0,-2.0,1650848982826943.0
-1.0,-1.0,1.0,1.0,3.0,12.0,-2.0,1.0,1650848982826943.0
2.0,0.0,-2.0,-5.0,-10.0,-6.0,0.0,-1.0,1650848982827936.0
-1.0,0.0,1.0,3.0,9.0,-6.0,1.0,-1.0,1650848982827936.0
-1.0,1.0,0.0,1.0,1.0,8.0,-1.0,-1.0,1650848982840901.0
0.0,-2.0,-5.0,-1.0,8.0,3.0,0.0,1.0,1650848982840901.0
-1.0,-2.0,-3.0,-4.0,-5.0,-1.0,2.0,0.0,1650848982847950.0
0.0,0.0,1.0,0.0,-9.0,5.0,0.0,0.0,1650848982847950.0
0.0,1.0,0.0,-3.0,8.0,-2.0,3.0,-1.0,1650848982864926.0
0.0,1.0,2.0,1.0,3.0,-11.0,-3.0,-1.0,1650848982864926.0
1.0,-2.0,-3.0,1.0,4.0,5.0,-1.0,-1.0,1650848982865926.0
-1.0,-3.0,0.0,-6.0,-11.0,-14.0,-4.0,-2.0,1650848982865926.0
0.0,-4.0,1.0,1.0,-3.0,5.0,0.0,0.0,1650848982886879.0
-1.0,1.0,-1.0,2.0,-2.0,3.0,3.0,-1.0,1650848982886879.0
0.0,-1.0,-1.0,-2.0,1.0,1.0,3.0,0.0,1650848982887868.0
0.0,-4.0,-2.0,-2.0,4.0,-2.0,-2.0,-2.0,1650848982887868.0
-3.0,-1.0,0.0,1.0,-7.0,-7.0,0.0,0.0,1650848982899862.0
-2.0,1.0,1.0,5.0,-1.0,9.0,-1.0,-1.0,1650848982899862.0
-2.0,1.0,-2.0,-4.0,2.0,-9.0,-2.0,1.0,1650848982908810.0
1.0,-1.0,0.0,-2.0,-5.0,3.0,1.0,1.0,1650848982908810.0
-1.0,0.0,1.0,0.0,-4.0,-3.0,2.0,2.0,1650848982923771.0
-2.0,-1.0,1.0,1.0,6.0,4.0,1.0,-2.0,1650848982923771.0
0.0,-2.0,0.0,-3.0,-2.0,-12.0,-2.0,-1.0,1650848982925765.0
0.0,0.0,-6.0,3.0,3.0,20.0,1.0,-1.0,1650848982925765.0
0.0,-1.0,-2.0,-3.0,-1.0,-11.0,-1.0,-1.0,1650848982946869.0
1.0,-1.0,2.0,-2.0,-5.0,-24.0,-5.0,-1.0,1650848982946869.0
0.0,0.0,1.0,2.0,5.0,23.0,0.0,-1.0,1650848982947869.0
-1.0,1.0,2.0,-1.0,3.0,-2.0,-1.0,0.0,1650848982947869.0
0.0,-2.0,-2.0,-2.0,-5.0,-4.0,-3.0,-1.0,1650848982959837.0
-3.0,-2.0,0.0,-1.0,-3.0,-2.0,-1.0,0.0,1650848982959837.0
0.0,-1.0,-2.0,2.0,0.0,-2.0,-4.0,-2.0,1650848982968828.0
-1.0,0.0,-2.0,-3.0,-8.0,-12.0,0.0,0.0,1650848982968828.0
0.0,0.0,1.0,3.0,10.0,17.0,0.0,0.0,1650848982983772.0
0.0,0.0,0.0,-2.0,-5.0,-7.0,1.0,-1.0,1650848982983772.0
-2.0,-1.0,0.0,1.0,8.0,14.0,-1.0,0.0,1650848982985767.0
1.0,1.0,-2.0,-1.0,0.0,-1.0,2.0,-1.0,1650848982985767.0
-1.0,-1.0,-1.0,0.0,-5.0,-6.0,-3.0,-2.0,1650848983006711.0
-2.0,0.0,-3.0,-3.0,-2.0,-11.0,-2.0,-1.0,1650848983006711.0
-1.0,0.0,0.0,0.0,-3.0,5.0,0.0,-1.0,1650848983007716.0
1.0,0.0,1.0,1.0,-16.0,-4.0,3.0,2.0,1650848983007716.0
2.0,2.0,-1.0,5.0,24.0,13.0,3.0,2.0,1650848983019677.0
-1.0,-1.0,-1.0,-3.0,-5.0,-2.0,-1.0,0.0,1650848983019677.0
-1.0,-1.0,-2.0,-3.0,-1.0,-7.0,-1.0,0.0,1650848983028653.0
-1.0,-1.0,1.0,2.0,-2.0,-3.0,-3.0,-1.0,1650848983028653.0
-1.0,-1.0,0.0,-3.0,-8.0,-1.0,-3.0,-3.0,1650848983043619.0
-1.0,-2.0,-1.0,-1.0,-7.0,-17.0,-5.0,-3.0,1650848983043619.0
1.0,0.0,2.0,3.0,8.0,13.0,-1.0,1.0,1650848983045608.0
0.0,1.0,0.0,0.0,10.0,11.0,8.0,2.0,1650848983045608.0
-1.0,-1.0,2.0,-3.0,-3.0,-1.0,1.0,-2.0,1650848983066185.0
0.0,0.0,-3.0,-2.0,4.0,4.0,0.0,-2.0,1650848983066185.0
-1.0,-1.0,-2.0,-5.0,-17.0,-42.0,-8.0,-5.0,1650848983068180.0
2.0,1.0,-1.0,-1.0,6.0,29.0,3.0,3.0,1650848983068180.0
0.0,-1.0,2.0,-2.0,-1.0,-2.0,2.0,1.0,1650848983080180.0
0.0,0.0,1.0,3.0,5.0,10.0,2.0,2.0,1650848983080180.0
0.0,-1.0,-1.0,-1.0,-5.0,-8.0,-1.0,0.0,1650848983089123.0
-1.0,-2.0,-3.0,-3.0,0.0,-11.0,-5.0,-5.0,1650848983089123.0
0.0,0.0,-2.0,-2.0,-4.0,14.0,2.0,-2.0,1650848983104167.0
0.0,-1.0,0.0,-1.0,3.0,1.0,0.0,0.0,1650848983104167.0
0.0,-2.0,-1.0,0.0,-1.0,2.0,1.0,-2.0,1650848983105172.0
-2.0,0.0,2.0,1.0,-1.0,-8.0,-2.0,-1.0,1650848983105172.0
-3.0,0.0,-3.0,-3.0,-1.0,-5.0,-4.0,-1.0,1650848983126191.0
1.0,-1.0,-1.0,-1.0,2.0,5.0,1.0,-1.0,1650848983126191.0
-1.0,-2.0,0.0,-1.0,-2.0,5.0,1.0,-1.0,1650848983128159.0
-1.0,-2.0,0.0,2.0,1.0,-8.0,-4.0,-2.0,1650848983128159.0
1.0,1.0,0.0,4.0,-1.0,3.0,2.0,2.0,1650848983140153.0
-1.0,0.0,-2.0,-1.0,2.0,-14.0,-4.0,0.0,1650848983140153.0
0.0,-1.0,-1.0,6.0,10.0,48.0,11.0,2.0,1650848983149103.0
2.0,-2.0,-1.0,-3.0,-4.0,-3.0,-2.0,-1.0,1650848983149103.0
-2.0,-2.0,2.0,-1.0,-1.0,-9.0,-3.0,0.0,1650848983164331.0
1.0,1.0,0.0,-1.0,-6.0,-1.0,0.0,-2.0,1650848983164331.0
-1.0,0.0,-1.0,-1.0,-5.0,-28.0,-6.0,-1.0,1650848983165332.0
-2.0,0.0,-2.0,0.0,6.0,9.0,0.0,-1.0,1650848983165332.0
1.0,-1.0,-1.0,-1.0,-5.0,9.0,4.0,0.0,1650848983186425.0
-2.0,-1.0,-2.0,2.0,0.0,-1.0,0.0,2.0,1650848983186425.0
0.0,1.0,-1.0,-3.0,4.0,1.0,1.0,0.0,1650848983188419.0
-3.0,0.0,-1.0,0.0,0.0,-4.0,-1.0,0.0,1650848983188419.0
-1.0,-3.0,-2.0,-1.0,-4.0,-10.0,-4.0,-2.0,1650848983200452.0
1.0,-1.0,0.0,-3.0,-6.0,8.0,0.0,-1.0,1650848983200452.0
-3.0,0.0,0.0,-4.0,-3.0,-6.0,-2.0,-1.0,1650848983209364.0
-1.0,-2.0,-1.0,0.0,-1.0,-7.0,-2.0,-2.0,1650848983209364.0
-1.0,-1.0,0.0,5.0,-3.0,-4.0,-1.0,0.0,1650848983224323.0
2.0,0.0,1.0,-1.0,13.0,17.0,2.0,0.0,1650848983224323.0
0.0,0.0,1.0,-1.0,6.0,20.0,4.0,0.0,1650848983225331.0
-1.0,0.0,0.0,-4.0,-8.0,-10.0,-2.0,0.0,1650848983225331.0
-1.0,0.0,1.0,-2.0,-1.0,-5.0,0.0,-2.0,1650848983246328.0
-2.0,-3.0,-6.0,-2.0,-8.0,-6.0,-3.0,-1.0,1650848983246328.0
-1.0,-2.0,-2.0,-2.0,-10.0,-20.0,-5.0,-1.0,1650848983248286.0
0.0,0.0,0.0,4.0,6.0,13.0,-1.0,0.0,1650848983248286.0
-1.0,-1.0,-3.0,-5.0,-8.0,-13.0,-2.0,-2.0,1650848983260240.0
0.0,1.0,2.0,3.0,5.0,26.0,4.0,1.0,1650848983260240.0
1.0,0.0,1.0,2.0,5.0,-8.0,1.0,2.0,1650848983269208.0
1.0,0.0,-1.0,-1.0,-1.0,-2.0,0.0,-1.0,1650848983269208.0
0.0,0.0,1.0,-4.0,1.0,-2.0,-3.0,-1.0,1650848983284163.0
-2.0,-1.0,0.0,1.0,-2.0,-6.0,-3.0,-1.0,1650848983284163.0
0.0,-3.0,-4.0,-2.0,-4.0,-4.0,-1.0,-2.0,1650848983285160.0
-1.0,-2.0,0.0,-3.0,-6.0,-7.0,-1.0,-2.0,1650848983285160.0
0.0,1.0,-1.0,2.0,2.0,3.0,-1.0,0.0,1650848983306863.0
0.0,0.0,3.0,3.0,5.0,8.0,2.0,0.0,1650848983306863.0
1.0,-1.0,1.0,-1.0,0.0,-9.0,2.0,1.0,1650848983307874.0
0.0,-3.0,-1.0,0.0,0.0,14.0,-2.0,0.0,1650848983307874.0
0.0,-3.0,-1.0,-3.0,-13.0,-4.0,-2.0,-2.0,1650848983319828.0
-2.0,-1.0,-2.0,-4.0,-6.0,-8.0,-3.0,0.0,1650848983319828.0
-1.0,0.0,0.0,0.0,-5.0,-10.0,-3.0,-1.0,1650848983328821.0
-1.0,0.0,-1.0,2.0,5.0,-2.0,-2.0,0.0,1650848983328821.0
-1.0,-1.0,1.0,3.0,10.0,-1.0,-1.0,2.0,1650848983343765.0
3.0,-1.0,-2.0,-3.0,-3.0,16.0,5.0,-2.0,1650848983343765.0
0.0,0.0,-1.0,1.0,3.0,8.0,2.0,1.0,1650848983345761.0
-2.0,0.0,-1.0,-1.0,-4.0,-11.0,1.0,-1.0,1650848983345761.0
-2.0,-3.0,0.0,0.0,-2.0,-4.0,-3.0,-2.0,1650848983366770.0
-1.0,0.0,0.0,-1.0,0.0,-14.0,-4.0,0.0,1650848983366770.0
-1.0,-1.0,1.0,0.0,-2.0,5.0,-1.0,-1.0,1650848983367703.0
0.0,-1.0,-1.0,-6.0,-12.0,-18.0,-3.0,-4.0,1650848983367703.0
-1.0,0.0,-1.0,3.0,7.0,22.0,1.0,-1.0,1650848983389642.0
-1.0,-1.0,3.0,2.0,4.0,-3.0,3.0,2.0,1650848983389642.0
0.0,1.0,0.0,-1.0,3.0,11.0,2.0,0.0,1650848983390643.0
-1.0,-1.0,1.0,-1.0,-3.0,0.0,0.0,1.0,1650848983390643.0
0.0,1.0,-3.0,-2.0,1.0,-5.0,-3.0,-1.0,1650848983403605.0
0.0,-1.0,-1.0,-3.0,-7.0,-7.0,-4.0,-1.0,1650848983403605.0
-1.0,-1.0,0.0,-2.0,-1.0,0.0,-2.0,-1.0,1650848983410586.0
-1.0,0.0,-2.0,0.0,2.0,0.0,1.0,-2.0,1650848983410586.0
1.0,-1.0,-3.0,0.0,0.0,4.0,2.0,1.0,1650848983426571.0
-1.0,-3.0,-3.0,-1.0,-3.0,-3.0,-1.0,-1.0,1650848983426571.0
-2.0,0.0,-1.0,-3.0,-2.0,-9.0,-4.0,-3.0,1650848983428560.0
1.0,0.0,1.0,1.0,-7.0,19.0,6.0,2.0,1650848983428560.0
2.0,1.0,3.0,3.0,20.0,6.0,4.0,1.0,1650848983449482.0
2.0,-1.0,-2.0,-5.0,2.0,5.0,2.0,0.0,1650848983449482.0
-2.0,-1.0,-4.0,-1.0,-7.0,-15.0,-5.0,-4.0,1650848983450480.0
-2.0,0.0,-3.0,1.0,-2.0,-2.0,-4.0,-2.0,1650848983450480.0
-3.0,-1.0,2.0,-4.0,-11.0,-11.0,-2.0,-2.0,1650848983464447.0
-2.0,-2.0,-1.0,1.0,0.0,-1.0,-4.0,-2.0,1650848983464447.0
0.0,2.0,1.0,1.0,5.0,15.0,12.0,3.0,1650848983465448.0
-1.0,-1.0,0.0,1.0,3.0,-16.0,-3.0,1.0,1650848983465448.0
-1.0,0.0,-3.0,-3.0,0.0,17.0,2.0,0.0,1650848983486383.0
-2.0,1.0,-1.0,-1.0,-7.0,-14.0,-4.0,-1.0,1650848983486383.0
-1.0,-1.0,-1.0,3.0,8.0,4.0,-3.0,-2.0,1650848983488379.0
0.0,0.0,-1.0,-4.0,-1.0,1.0,0.0,-1.0,1650848983488379.0
0.0,0.0,-1.0,0.0,-4.0,-6.0,-3.0,-1.0,1650848983509321.0
-1.0,1.0,-3.0,-2.0,-6.0,-4.0,-1.0,0.0,1650848983509321.0
-1.0,0.0,-2.0,-1.0,-7.0,2.0,0.0,0.0,1650848983510320.0
1.0,-1.0,3.0,2.0,9.0,1.0,3.0,3.0,1650848983510320.0
0.0,0.0,-2.0,-3.0,2.0,3.0,-2.0,-2.0,1650848983523312.0
0.0,-1.0,1.0,-1.0,-5.0,2.0,1.0,-1.0,1650848983523312.0
1.0,-1.0,-1.0,-1.0,5.0,-2.0,-2.0,0.0,1650848983530334.0
0.0,-2.0,-6.0,-1.0,-3.0,-18.0,-4.0,-3.0,1650848983530334.0
1.0,0.0,3.0,-1.0,-2.0,19.0,3.0,0.0,1650848983547289.0
1.0,-1.0,1.0,-2.0,-4.0,-9.0,2.0,0.0,1650848983547289.0
-1.0,1.0,1.0,4.0,-3.0,9.0,2.0,2.0,1650848983548219.0
1.0,-1.0,0.0,1.0,10.0,5.0,0.0,-1.0,1650848983548219.0
0.0,-3.0,-3.0,-2.0,-13.0,-28.0,-5.0,-3.0,1650848983568963.0
-2.0,0.0,-1.0,2.0,14.0,18.0,0.0,1.0,1650848983568963.0
0.0,-1.0,-1.0,-4.0,-10.0,-12.0,-3.0,-2.0,1650848983570886.0
-1.0,-1.0,1.0,0.0,2.0,4.0,-3.0,-2.0,1650848983570886.0
0.0,-1.0,-1.0,-1.0,-3.0,3.0,5.0,0.0,1650848983582920.0
-2.0,-2.0,-1.0,2.0,-5.0,-8.0,-3.0,-2.0,1650848983582920.0
0.0,0.0,-2.0,1.0,12.0,18.0,1.0,1.0,1650848983591829.0
-2.0,-2.0,0.0,-3.0,-6.0,-5.0,1.0,0.0,1650848983591829.0
0.0,-1.0,-1.0,2.0,-2.0,-6.0,-2.0,-2.0,1650848983606816.0
0.0,1.0,-1.0,0.0,0.0,-5.0,-2.0,-1.0,1650848983606816.0
-1.0,-1.0,0.0,-3.0,-6.0,-3.0,-4.0,0.0,1650848983607787.0
1.0,2.0,-1.0,2.0,12.0,9.0,3.0,2.0,1650848983607787.0
-1.0,-1.0,-2.0,-2.0,-13.0,-15.0,-4.0,-2.0,1650848983628731.0
-1.0,1.0,0.0,-2.0,3.0,15.0,-1.0,1.0,1650848983628731.0
-1.0,-3.0,-1.0,-2.0,0.0,-10.0,-1.0,-2.0,1650848983630752.0
1.0,2.0,1.0,0.0,0.0,11.0,2.0,0.0,1650848983630752.0
-2.0,-3.0,0.0,-1.0,-4.0,-6.0,-2.0,-1.0,1650848983643726.0
0.0,-1.0,0.0,-1.0,10.0,13.0,1.0,-1.0,1650848983643726.0
-1.0,-1.0,1.0,0.0,-10.0,-14.0,-3.0,-1.0,1650848983649741.0
1.0,-1.0,-2.0,2.0,-4.0,5.0,1.0,1.0,1650848983649741.0
-1.0,0.0,-2.0,0.0,7.0,-3.0,0.0,0.0,1650848983666716.0
0.0,-2.0,-1.0,0.0,-4.0,-5.0,-1.0,0.0,1650848983666716.0
0.0,-1.0,0.0,-1.0,2.0,5.0,-1.0,0.0,1650848983668733.0
-1.0,-3.0,-1.0,-4.0,-6.0,-9.0,-3.0,-2.0,1650848983668733.0
0.0,2.0,1.0,2.0,2.0,5.0,-1.0,0.0,1650848983688659.0
0.0,-1.0,0.0,0.0,0.0,-2.0,-1.0,0.0,1650848983688659.0
-1.0,-2.0,-1.0,-3.0,-1.0,-11.0,-4.0,-2.0,1650848983690667.0
-1.0,-2.0,-2.0,-2.0,-8.0,1.0,-3.0,-2.0,1650848983690667.0
-1.0,1.0,2.0,-1.0,4.0,13.0,6.0,3.0,1650848983703646.0
0.0,0.0,-2.0,-2.0,6.0,-12.0,0.0,-1.0,1650848983703646.0
-2.0,0.0,0.0,2.0,5.0,18.0,4.0,-1.0,1650848983709631.0
-2.0,0.0,-1.0,-3.0,-3.0,-15.0,-6.0,-3.0,1650848983709631.0
-2.0,-1.0,-2.0,1.0,-14.0,-23.0,-7.0,-1.0,1650848983726585.0
2.0,2.0,2.0,4.0,19.0,43.0,12.0,4.0,1650848983726585.0
0.0,-1.0,-3.0,0.0,2.0,-3.0,0.0,1.0,1650848983728553.0
-2.0,-2.0,-3.0,-1.0,-3.0,2.0,-1.0,0.0,1650848983728553.0
-1.0,-1.0,0.0,-3.0,1.0,-5.0,-2.0,0.0,1650848983749502.0
-2.0,-1.0,0.0,-4.0,-12.0,-16.0,-5.0,-1.0,1650848983749502.0
0.0,0.0,2.0,1.0,-3.0,0.0,0.0,0.0,1650848983750494.0
1.0,1.0,-4.0,-1.0,2.0,2.0,-1.0,0.0,1650848983750494.0
-1.0,-1.0,1.0,-1.0,0.0,2.0,-1.0,-1.0,1650848983763620.0
0.0,-1.0,-1.0,2.0,-6.0,-10.0,-3.0,-1.0,1650848983763620.0
0.0,1.0,1.0,-1.0,3.0,9.0,3.0,2.0,1650848983769634.0
0.0,0.0,1.0,-1.0,-1.0,-3.0,-1.0,-2.0,1650848983769634.0
1.0,-1.0,-3.0,0.0,11.0,9.0,-1.0,-1.0,1650848983786731.0
-2.0,0.0,-3.0,-5.0,-17.0,-43.0,-7.0,-1.0,1650848983786731.0
-2.0,2.0,1.0,3.0,-4.0,40.0,-1.0,-3.0,1650848983787728.0
0.0,0.0,5.0,-2.0,7.0,-3.0,7.0,1.0,1650848983787728.0
0.0,0.0,1.0,4.0,3.0,7.0,-1.0,2.0,1650848983808702.0
-2.0,-2.0,-1.0,-1.0,3.0,-3.0,0.0,-2.0,1650848983808702.0
-2.0,-2.0,-4.0,-5.0,-12.0,-42.0,-11.0,-2.0,1650848983810668.0
-1.0,0.0,-1.0,4.0,3.0,19.0,1.0,1.0,1650848983810668.0
-1.0,-1.0,-1.0,-1.0,3.0,16.0,4.0,1.0,1650848983831613.0
-1.0,-2.0,-1.0,-1.0,-11.0,-15.0,-4.0,-1.0,1650848983831613.0
1.0,0.0,1.0,1.0,-3.0,-6.0,0.0,0.0,1650848983832609.0
-1.0,-2.0,0.0,1.0,5.0,4.0,-1.0,1.0,1650848983832609.0
1.0,1.0,0.0,-3.0,-2.0,-9.0,-2.0,-1.0,1650848983846579.0
0.0,-1.0,-1.0,-2.0,-3.0,13.0,2.0,0.0,1650848983846579.0
0.0,0.0,-4.0,1.0,0.0,-3.0,1.0,2.0,1650848983847569.0
-2.0,0.0,-2.0,-2.0,2.0,-6.0,-1.0,-2.0,1650848983847569.0
-3.0,-2.0,-4.0,-2.0,-10.0,-9.0,-3.0,-3.0,1650848983868512.0
2.0,1.0,1.0,3.0,1.0,24.0,6.0,2.0,1650848983868512.0
2.0,1.0,3.0,6.0,31.0,24.0,5.0,1.0,1650848983870507.0
1.0,1.0,-1.0,-3.0,1.0,-5.0,2.0,1.0,1650848983870507.0
-2.0,-1.0,-3.0,-3.0,-3.0,-10.0,-4.0,-1.0,1650848983882542.0
-1.0,0.0,-1.0,-2.0,-12.0,-13.0,-6.0,-2.0,1650848983882542.0
-1.0,-1.0,-2.0,-2.0,-11.0,-17.0,-5.0,-1.0,1650848983891451.0
0.0,-1.0,0.0,3.0,-3.0,-4.0,3.0,1.0,1650848983891451.0
1.0,2.0,1.0,5.0,20.0,36.0,7.0,3.0,1650848983906411.0
0.0,-1.0,-1.0,-3.0,-1.0,-5.0,0.0,-4.0,1650848983906411.0
-1.0,-2.0,1.0,-6.0,-3.0,-7.0,-3.0,-2.0,1650848983908406.0
-1.0,0.0,-2.0,1.0,-8.0,-13.0,-4.0,-3.0,1650848983908406.0
0.0,1.0,1.0,-1.0,-8.0,-3.0,-3.0,0.0,1650848983929350.0
0.0,-2.0,-1.0,-1.0,3.0,2.0,-1.0,0.0,1650848983929350.0
-1.0,-1.0,0.0,-1.0,3.0,-4.0,1.0,-1.0,1650848983930348.0
-2.0,1.0,0.0,1.0,-1.0,13.0,1.0,-2.0,1650848983930348.0
-1.0,1.0,1.0,-5.0,-4.0,-13.0,1.0,-1.0,1650848983942342.0
-2.0,-1.0,-2.0,2.0,2.0,9.0,0.0,-2.0,1650848983942342.0
0.0,1.0,-1.0,3.0,-3.0,13.0,5.0,0.0,1650848983951302.0
1.0,-1.0,0.0,0.0,10.0,4.0,-1.0,2.0,1650848983951302.0
-1.0,-1.0,0.0,-2.0,2.0,0.0,-3.0,0.0,1650848983966318.0
-3.0,-2.0,-1.0,-1.0,-4.0,-20.0,-3.0,-2.0,1650848983966318.0
-1.0,1.0,0.0,0.0,2.0,3.0,0.0,1.0,1650848983968246.0
-1.0,-1.0,-1.0,-2.0,-12.0,2.0,0.0,-2.0,1650848983968246.0
-1.0,-1.0,-2.0,1.0,8.0,-2.0,0.0,-1.0,1650848983989311.0
-1.0,-1.0,-1.0,-2.0,-5.0,0.0,-1.0,-1.0,1650848983989311.0
-2.0,-2.0,-2.0,-5.0,-5.0,-7.0,-1.0,-1.0,1650848983990278.0
0.0,-1.0,0.0,2.0,-1.0,-5.0,-4.0,-1.0,1650848983990278.0
-1.0,-3.0,-1.0,-2.0,-9.0,-27.0,-8.0,-2.0,1650848984002273.0
-1.0,3.0,0.0,3.0,15.0,49.0,13.0,4.0,1650848984002273.0
0.0,-1.0,0.0,-4.0,-6.0,-3.0,2.0,0.0,1650848984011240.0
1.0,1.0,-1.0,0.0,1.0,-4.0,0.0,0.0,1650848984011240.0
-2.0,0.0,0.0,2.0,-3.0,-6.0,0.0,2.0,1650848984026192.0
0.0,-2.0,2.0,-1.0,1.0,-9.0,-5.0,1.0,1650848984026192.0
0.0,-2.0,-4.0,-4.0,-4.0,-12.0,-1.0,-2.0,1650848984033169.0
-4.0,-3.0,-2.0,-1.0,-10.0,0.0,-4.0,-1.0,1650848984033169.0
1.0,0.0,1.0,1.0,-3.0,10.0,5.0,2.0,1650848984049187.0
0.0,1.0,3.0,1.0,13.0,3.0,2.0,1.0,1650848984049187.0
-1.0,0.0,2.0,3.0,3.0,1.0,0.0,0.0,1650848984050144.0
-1.0,-2.0,-2.0,-5.0,-6.0,-10.0,-4.0,-2.0,1650848984050144.0
0.0,-2.0,-4.0,-6.0,-3.0,1.0,0.0,-3.0,1650848984062086.0
-1.0,-1.0,-3.0,0.0,-9.0,-5.0,-5.0,-1.0,1650848984062086.0
-1.0,0.0,-3.0,-1.0,0.0,-7.0,-2.0,-1.0,1650848984072087.0
-2.0,0.0,1.0,-2.0,6.0,-9.0,-3.0,-2.0,1650848984072087.0
0.0,0.0,1.0,2.0,-4.0,30.0,11.0,2.0,1650848984086136.0
2.0,1.0,-1.0,-1.0,9.0,11.0,4.0,0.0,1650848984086136.0
0.0,-1.0,1.0,-2.0,1.0,0.0,-1.0,0.0,1650848984088103.0
-3.0,-1.0,-4.0,-2.0,-4.0,-4.0,-3.0,-1.0,1650848984088103.0
-1.0,-1.0,0.0,-1.0,-6.0,-15.0,-7.0,-3.0,1650848984109077.0
-4.0,-2.0,-2.0,1.0,-9.0,-13.0,-4.0,-1.0,1650848984109077.0
-1.0,-2.0,-1.0,-2.0,0.0,-8.0,-2.0,-2.0,1650848984110065.0
1.0,1.0,1.0,5.0,5.0,28.0,6.0,0.0,1650848984110065.0
0.0,0.0,0.0,1.0,1.0,-5.0,0.0,0.0,1650848984123010.0
-1.0,-1.0,0.0,-2.0,-4.0,0.0,-1.0,1.0,1650848984123010.0
0.0,0.0,2.0,1.0,3.0,-3.0,-2.0,0.0,1650848984131998.0
-1.0,-2.0,-5.0,-3.0,-4.0,-7.0,-2.0,0.0,1650848984131998.0
-1.0,0.0,0.0,0.0,1.0,3.0,-1.0,-1.0,1650848984145948.0
-2.0,1.0,1.0,0.0,3.0,-6.0,-2.0,0.0,1650848984145948.0
-2.0,0.0,-2.0,1.0,-2.0,0.0,-2.0,-2.0,1650848984147943.0
-1.0,-1.0,-1.0,-2.0,-13.0,-22.0,-4.0,-2.0,1650848984147943.0
-1.0,0.0,-2.0,6.0,11.0,42.0,9.0,1.0,1650848984168914.0
2.0,0.0,1.0,1.0,2.0,-6.0,-1.0,0.0,1650848984168914.0
1.0,1.0,1.0,-2.0,8.0,18.0,6.0,1.0,1650848984170902.0
-1.0,-1.0,-1.0,-3.0,-2.0,-2.0,-2.0,0.0,1650848984170902.0
-2.0,0.0,-2.0,-1.0,-3.0,-20.0,-9.0,-3.0,1650848984182918.0
-3.0,0.0,-2.0,-2.0,-10.0,-12.0,-5.0,-1.0,1650848984182918.0
-1.0,-3.0,-4.0,-1.0,-8.0,-4.0,-3.0,-1.0,1650848984191857.0
-2.0,-1.0,0.0,2.0,1.0,10.0,-1.0,0.0,1650848984191857.0
1.0,2.0,-1.0,0.0,2.0,-5.0,0.0,0.0,1650848984206785.0
1.0,0.0,1.0,1.0,1.0,19.0,6.0,0.0,1650848984206785.0
1.0,-1.0,2.0,0.0,7.0,-2.0,1.0,1.0,1650848984207783.0
1.0,1.0,2.0,0.0,0.0,-1.0,1.0,2.0,1650848984207783.0
-1.0,-1.0,-2.0,-4.0,-5.0,-12.0,-4.0,0.0,1650848984228732.0
-3.0,-1.0,-2.0,-3.0,-5.0,-5.0,-1.0,-2.0,1650848984228732.0
-2.0,-1.0,-6.0,0.0,-1.0,-2.0,-3.0,0.0,1650848984230723.0
0.0,-1.0,-1.0,0.0,4.0,-5.0,-2.0,-2.0,1650848984230723.0
-2.0,-3.0,2.0,-2.0,-14.0,-20.0,-5.0,-2.0,1650848984242689.0
2.0,1.0,1.0,6.0,20.0,39.0,9.0,3.0,1650848984242689.0
-1.0,-2.0,0.0,-2.0,-1.0,4.0,2.0,-1.0,1650848984258674.0
-1.0,-2.0,-2.0,1.0,-2.0,1.0,1.0,-1.0,1650848984258674.0
-1.0,-1.0,-3.0,-3.0,3.0,-9.0,-4.0,-1.0,1650848984266814.0
-4.0,-2.0,-2.0,-3.0,-12.0,-23.0,-6.0,-4.0,1650848984266814.0
-2.0,-2.0,-3.0,0.0,-8.0,0.0,-1.0,0.0,1650848984267755.0
0.0,-1.0,-1.0,-2.0,2.0,6.0,2.0,0.0,1650848984267755.0
0.0,-1.0,0.0,0.0,-3.0,-2.0,-1.0,-3.0,1650848984288868.0
-1.0,-1.0,1.0,-1.0,-5.0,-15.0,-4.0,0.0,1650848984288868.0
1.0,1.0,2.0,0.0,14.0,30.0,4.0,-1.0,1650848984290796.0
2.0,1.0,0.0,-4.0,-2.0,-9.0,0.0,1.0,1650848984290796.0
0.0,0.0,-2.0,0.0,5.0,6.0,2.0,2.0,1650848984310918.0
2.0,-1.0,-4.0,-3.0,-3.0,-3.0,-2.0,-3.0,1650848984310918.0
-1.0,-1.0,1.0,-2.0,-9.0,-16.0,-5.0,-3.0,1650848984312886.0
-1.0,-1.0,3.0,2.0,-2.0,7.0,2.0,-2.0,1650848984312886.0
-3.0,-3.0,-1.0,0.0,1.0,3.0,1.0,1.0,1650848984326861.0
-2.0,-2.0,-8.0,-9.0,-15.0,-40.0,-9.0,-2.0,1650848984326861.0
-2.0,1.0,2.0,7.0,-2.0,26.0,-1.0,1.0,1650848984327851.0
1.0,2.0,3.0,2.0,15.0,16.0,11.0,2.0,1650848984327851.0
1.0,0.0,0.0,2.0,9.0,7.0,-1.0,0.0,1650848984348856.0
0.0,0.0,1.0,-2.0,2.0,-3.0,-1.0,-2.0,1650848984348856.0
-2.0,0.0,-4.0,-5.0,-11.0,-28.0,-6.0,-4.0,1650848984350784.0
-1.0,0.0,-2.0,-2.0,-6.0,-6.0,-4.0,-2.0,1650848984350784.0
0.0,0.0,-2.0,-1.0,-2.0,7.0,1.0,0.0,1650848984371852.0
-1.0,-2.0,1.0,0.0,-3.0,-5.0,-2.0,-1.0,1650848984371852.0
0.0,-1.0,1.0,-1.0,1.0,-12.0,-2.0,-1.0,1650848984372829.0
-1.0,-1.0,1.0,0.0,0.0,19.0,1.0,-1.0,1650848984372829.0
1.0,1.0,2.0,3.0,7.0,6.0,5.0,2.0,1650848984385964.0
-2.0,-2.0,-1.0,2.0,4.0,6.0,-1.0,1.0,1650848984385964.0
0.0,-1.0,-2.0,-3.0,-6.0,-5.0,1.0,-1.0,1650848984387959.0
0.0,-1.0,-2.0,0.0,-5.0,-11.0,-4.0,-1.0,1650848984387959.0
0.0,0.0,1.0,0.0,-1.0,-5.0,-3.0,0.0,1650848984408933.0
1.0,-1.0,0.0,-3.0,-1.0,8.0,2.0,-2.0,1650848984408933.0
-1.0,-3.0,-2.0,-1.0,0.0,0.0,0.0,-1.0,1650848984415603.0
-3.0,-3.0,-4.0,-4.0,-16.0,-49.0,-12.0,-5.0,1650848984415603.0
-1.0,0.0,-1.0,8.0,4.0,42.0,1.0,0.0,1650848984431568.0
2.0,1.0,2.0,-1.0,22.0,20.0,12.0,3.0,1650848984431568.0
2.0,2.0,1.0,0.0,7.0,-1.0,1.0,1.0,1650848984432559.0
1.0,-2.0,-2.0,-1.0,-1.0,1.0,-2.0,0.0,1650848984432559.0
-4.0,-4.0,-4.0,-9.0,-13.0,-25.0,-9.0,-4.0,1650848984445551.0
-3.0,0.0,0.0,3.0,-8.0,-9.0,-4.0,-2.0,1650848984445551.0
0.0,-1.0,-1.0,2.0,-2.0,-1.0,0.0,-1.0,1650848984452569.0
0.0,-1.0,0.0,-2.0,5.0,6.0,1.0,0.0,1650848984452569.0
0.0,1.0,-1.0,0.0,-5.0,4.0,5.0,1.0,1650848984469086.0
1.0,-1.0,1.0,4.0,10.0,12.0,0.0,1.0,1650848984469086.0
-1.0,1.0,1.0,-4.0,2.0,-3.0,-1.0,-1.0,1650848984470020.0
-1.0,-1.0,0.0,1.0,2.0,0.0,-2.0,1.0,1650848984470020.0
0.0,-1.0,-2.0,-2.0,-7.0,-6.0,-2.0,-1.0,1650848984490964.0
0.0,-1.0,-3.0,2.0,-6.0,2.0,0.0,0.0,1650848984490964.0
-4.0,-1.0,-2.0,-2.0,-7.0,-18.0,-2.0,-1.0,1650848984498949.0
-1.0,-1.0,-3.0,2.0,8.0,17.0,0.0,-2.0,1650848984498949.0
0.0,-1.0,-2.0,-2.0,5.0,4.0,0.0,-1.0,1650848984505952.0
0.0,0.0,0.0,-4.0,-5.0,-3.0,1.0,0.0,1650848984505952.0
0.0,1.0,0.0,3.0,-4.0,-3.0,-1.0,-1.0,1650848984512906.0
0.0,2.0,1.0,6.0,8.0,4.0,0.0,3.0,1650848984512906.0
1.0,-1.0,3.0,-1.0,1.0,10.0,9.0,1.0,1650848984536841.0
-3.0,-3.0,-7.0,-3.0,-5.0,-8.0,-5.0,-3.0,1650848984536841.0
1.0,0.0,0.0,-3.0,-3.0,3.0,-3.0,-1.0,1650848984537839.0
-3.0,2.0,-2.0,-2.0,-11.0,-22.0,-2.0,-1.0,1650848984537839.0
-1.0,0.0,0.0,2.0,9.0,4.0,-4.0,0.0,1650848984551845.0
1.0,0.0,2.0,0.0,-6.0,-1.0,1.0,2.0,1650848984551845.0
1.0,0.0,0.0,5.0,23.0,15.0,4.0,2.0,1650848984552799.0
1.0,1.0,-1.0,-6.0,-8.0,-1.0,1.0,0.0,1650848984552799.0
0.0,-1.0,0.0,-3.0,-1.0,-15.0,-3.0,-1.0,1650848984566278.0
-2.0,-2.0,0.0,1.0,-8.0,-10.0,-3.0,-5.0,1650848984566278.0
-1.0,-1.0,-4.0,-1.0,-3.0,14.0,-1.0,-1.0,1650848984572282.0
1.0,-1.0,1.0,0.0,0.0,-1.0,1.0,1.0,1650848984572282.0
1.0,-3.0,0.0,2.0,0.0,-2.0,-2.0,-1.0,1650848984589296.0
0.0,0.0,0.0,-2.0,-2.0,-3.0,-2.0,1.0,1650848984589296.0
-1.0,-2.0,-2.0,-3.0,-6.0,-9.0,0.0,0.0,1650848984590293.0
0.0,1.0,-1.0,1.0,15.0,23.0,4.0,0.0,1650848984590293.0
1.0,1.0,0.0,-3.0,-3.0,-2.0,2.0,1.0,1650848984611258.0
-2.0,-1.0,0.0,-1.0,-3.0,-5.0,-5.0,-2.0,1650848984611258.0
-2.0,-1.0,-1.0,-2.0,2.0,-4.0,-2.0,-1.0,1650848984613233.0
0.0,0.0,-1.0,1.0,-10.0,-18.0,-4.0,-3.0,1650848984613233.0
-1.0,0.0,0.0,0.0,9.0,20.0,1.0,0.0,1650848984626208.0
0.0,-2.0,-2.0,-1.0,0.0,2.0,-1.0,0.0,1650848984626208.0
0.0,0.0,-1.0,1.0,-3.0,-1.0,0.0,2.0,1650848984632248.0
-1.0,-1.0,-1.0,0.0,5.0,4.0,1.0,1.0,1650848984632248.0
-1.0,-2.0,-2.0,-1.0,-4.0,-11.0,-5.0,-1.0,1650848984649219.0
0.0,0.0,-1.0,0.0,0.0,1.0,-1.0,1.0,1650848984649219.0
-2.0,-2.0,-1.0,0.0,-9.0,-11.0,-4.0,-2.0,1650848984655148.0
-1.0,-1.0,0.0,-1.0,0.0,20.0,0.0,-1.0,1650848984655148.0
2.0,2.0,2.0,1.0,1.0,1.0,3.0,1.0,1650848984671106.0
1.0,1.0,0.0,0.0,13.0,13.0,5.0,1.0,1650848984671106.0
-1.0,1.0,0.0,-3.0,-5.0,-11.0,-1.0,-2.0,1650848984673073.0
-1.0,-3.0,-3.0,-3.0,-12.0,-26.0,-6.0,-3.0,1650848984673073.0
-1.0,0.0,-1.0,4.0,3.0,18.0,0.0,-1.0,1650848984686128.0
0.0,-2.0,-1.0,-2.0,0.0,-3.0,0.0,-1.0,1650848984686128.0
2.0,-2.0,-1.0,-3.0,-4.0,2.0,-1.0,0.0,1650848984692143.0
-1.0,0.0,1.0,1.0,5.0,0.0,1.0,-2.0,1650848984692143.0
-1.0,-1.0,-2.0,-1.0,-8.0,-12.0,-3.0,0.0,1650848984709125.0
-2.0,-1.0,1.0,-2.0,0.0,-5.0,-1.0,-1.0,1650848984709125.0
0.0,0.0,0.0,2.0,3.0,4.0,0.0,1.0,1650848984710095.0
-3.0,-1.0,-3.0,-2.0,-13.0,-17.0,-3.0,-1.0,1650848984710095.0
1.0,-1.0,-2.0,1.0,9.0,16.0,6.0,1.0,1650848984731040.0
-2.0,-2.0,2.0,-1.0,-5.0,1.0,-2.0,1.0,1650848984731040.0
3.0,-3.0,1.0,5.0,10.0,17.0,5.0,2.0,1650848984733034.0
0.0,1.0,2.0,-2.0,-2.0,-3.0,-1.0,-2.0,1650848984733034.0
-4.0,-1.0,-4.0,-4.0,-5.0,-14.0,-5.0,-2.0,1650848984746033.0
0.0,1.0,-1.0,-1.0,-4.0,-4.0,-3.0,-1.0,1650848984746033.0
-1.0,-1.0,1.0,-2.0,-6.0,-3.0,-3.0,-1.0,1650848984753013.0
0.0,-1.0,-2.0,0.0,1.0,2.0,2.0,0.0,1650848984753013.0
0.0,-2.0,0.0,-3.0,-7.0,-24.0,-5.0,-1.0,1650848984768558.0
0.0,3.0,1.0,1.0,14.0,36.0,6.0,1.0,1650848984768558.0
0.0,0.0,-1.0,-4.0,2.0,-3.0,2.0,1.0,1650848984770511.0
-1.0,-2.0,2.0,3.0,10.0,14.0,4.0,1.0,1650848984770511.0
0.0,-2.0,-1.0,-2.0,-10.0,-16.0,-4.0,-1.0,1650848984791510.0
-1.0,-2.0,-1.0,0.0,-8.0,-14.0,-3.0,-1.0,1650848984791510.0
-2.0,0.0,-3.0,-3.0,2.0,-1.0,-1.0,-1.0,1650848984793504.0
-1.0,-2.0,-2.0,1.0,0.0,9.0,0.0,-1.0,1650848984793504.0
-2.0,-1.0,2.0,-2.0,-5.0,-14.0,-3.0,-3.0,1650848984813452.0
1.0,0.0,-1.0,1.0,8.0,-3.0,-4.0,-3.0,1650848984813452.0
1.0,-2.0,0.0,2.0,-3.0,22.0,13.0,0.0,1650848984820465.0
-1.0,-3.0,0.0,2.0,4.0,4.0,-1.0,1.0,1650848984820465.0
-1.0,-1.0,1.0,2.0,5.0,6.0,4.0,0.0,1650848984828431.0
-4.0,0.0,-3.0,-4.0,-6.0,-15.0,-4.0,0.0,1650848984828431.0
-2.0,0.0,1.0,0.0,-1.0,-7.0,-5.0,1.0,1650848984830407.0
0.0,0.0,-2.0,-4.0,-6.0,3.0,1.0,1.0,1650848984830407.0
1.0,-1.0,-2.0,-1.0,1.0,1.0,0.0,0.0,1650848984851351.0
0.0,-2.0,-2.0,1.0,1.0,4.0,0.0,0.0,1650848984851351.0
1.0,0.0,-3.0,-1.0,-5.0,-11.0,-4.0,-1.0,1650848984853365.0
-2.0,-2.0,-1.0,-7.0,-2.0,-3.0,-2.0,-2.0,1650848984853365.0
-1.0,1.0,-2.0,1.0,-3.0,1.0,-2.0,0.0,1650848984865369.0
1.0,-1.0,3.0,3.0,-5.0,2.0,4.0,1.0,1650848984865369.0
0.0,4.0,2.0,5.0,13.0,13.0,1.0,1.0,1650848984874333.0
0.0,2.0,1.0,1.0,6.0,13.0,1.0,2.0,1650848984874333.0
-1.0,-2.0,-2.0,-4.0,-2.0,-8.0,-2.0,0.0,1650848984889359.0
1.0,-2.0,-3.0,-3.0,-9.0,-13.0,-6.0,-2.0,1650848984889359.0
-2.0,0.0,-1.0,-2.0,-2.0,-2.0,-3.0,-2.0,1650848984890332.0
-1.0,-1.0,0.0,1.0,-2.0,-6.0,-1.0,1.0,1650848984890332.0
-1.0,0.0,-4.0,0.0,-13.0,-19.0,-3.0,-1.0,1650848984911276.0
-1.0,-1.0,2.0,1.0,8.0,38.0,4.0,1.0,1650848984911276.0
0.0,-1.0,2.0,-1.0,3.0,-6.0,0.0,0.0,1650848984913270.0
0.0,1.0,2.0,-1.0,2.0,8.0,2.0,-1.0,1650848984913270.0
1.0,-2.0,0.0,-1.0,1.0,0.0,2.0,-1.0,1650848984933256.0
-1.0,-3.0,0.0,-4.0,-4.0,-14.0,-2.0,-2.0,1650848984933256.0
-1.0,-2.0,-3.0,0.0,-6.0,-6.0,-4.0,-3.0,1650848984941209.0
1.0,-1.0,-2.0,-1.0,-5.0,-1.0,0.0,-1.0,1650848984941209.0
-3.0,0.0,1.0,-2.0,2.0,1.0,-2.0,1.0,1650848984949213.0
-2.0,1.0,-1.0,-2.0,-1.0,-9.0,-2.0,0.0,1650848984949213.0
-3.0,-1.0,-1.0,1.0,-6.0,-13.0,-4.0,0.0,1650848984950184.0
3.0,2.0,2.0,3.0,14.0,37.0,11.0,3.0,1650848984950184.0
2.0,0.0,-2.0,0.0,-2.0,5.0,-1.0,0.0,1650848984971886.0
0.0,1.0,-2.0,1.0,10.0,5.0,-1.0,-1.0,1650848984971886.0
0.0,-2.0,-2.0,-6.0,-13.0,-20.0,-4.0,-3.0,1650848984972882.0
-2.0,-2.0,-1.0,-1.0,-2.0,-14.0,-5.0,0.0,1650848984972882.0
-2.0,-1.0,1.0,2.0,1.0,7.0,0.0,-1.0,1650848984985538.0
-1.0,0.0,0.0,-2.0,-11.0,-7.0,0.0,-1.0,1650848984985538.0
0.0,0.0,-4.0,-2.0,9.0,5.0,-2.0,0.0,1650848984993852.0
-1.0,-2.0,-2.0,-1.0,-7.0,-7.0,-6.0,-1.0,1650848984993852.0
0.0,-3.0,-1.0,0.0,9.0,17.0,5.0,0.0,1650848985008812.0
0.0,-2.0,2.0,-2.0,0.0,-4.0,1.0,1.0,1650848985008812.0
-1.0,-1.0,0.0,1.0,-4.0,2.0,2.0,0.0,1650848985010807.0
-2.0,1.0,-1.0,-1.0,0.0,-9.0,-5.0,-3.0,1650848985010807.0
-2.0,0.0,0.0,-4.0,-5.0,-16.0,-3.0,-2.0,1650848985031752.0
0.0,-3.0,-3.0,-3.0,1.0,18.0,1.0,-4.0,1650848985031752.0
-1.0,-2.0,0.0,0.0,-10.0,-14.0,-2.0,-2.0,1650848985032750.0
1.0,0.0,-1.0,4.0,7.0,-3.0,0.0,1.0,1650848985032750.0
1.0,0.0,1.0,-2.0,-3.0,18.0,3.0,0.0,1650848985044744.0
-2.0,0.0,-4.0,1.0,4.0,-11.0,-1.0,0.0,1650848985044744.0
-2.0,1.0,-1.0,-3.0,4.0,9.0,0.0,2.0,1650848985053773.0
-3.0,-4.0,0.0,-5.0,-17.0,-20.0,-3.0,-2.0,1650848985053773.0
1.0,-1.0,1.0,5.0,-2.0,-3.0,-3.0,0.0,1650848985068869.0
2.0,-1.0,4.0,1.0,13.0,6.0,1.0,2.0,1650848985068869.0
1.0,-1.0,-1.0,-5.0,1.0,16.0,3.0,0.0,1650848985070827.0
-2.0,0.0,1.0,-3.0,-2.0,-3.0,1.0,-1.0,1650848985070827.0
0.0,0.0,-3.0,-5.0,-5.0,-7.0,-1.0,-1.0,1650848985091885.0
-2.0,-1.0,-2.0,1.0,-10.0,-20.0,-7.0,-2.0,1650848985091885.0
-2.0,0.0,2.0,3.0,2.0,13.0,7.0,1.0,1650848985093853.0
0.0,2.0,0.0,2.0,6.0,20.0,4.0,3.0,1650848985093853.0
0.0,-1.0,0.0,-1.0,11.0,5.0,3.0,2.0,1650848985104851.0
-2.0,-1.0,0.0,-4.0,-5.0,-19.0,-5.0,-3.0,1650848985104851.0
0.0,0.0,-3.0,0.0,-4.0,-4.0,-3.0,0.0,1650848985113799.0
1.0,0.0,-1.0,-2.0,-8.0,-6.0,-1.0,-1.0,1650848985113799.0
-3.0,1.0,0.0,-1.0,-10.0,-25.0,-5.0,-1.0,1650848985128787.0
1.0,1.0,0.0,3.0,18.0,38.0,8.0,2.0,1650848985128787.0
1.0,-2.0,0.0,-4.0,-4.0,-7.0,0.0,-1.0,1650848985130755.0
-2.0,-1.0,-1.0,0.0,-10.0,-4.0,0.0,-1.0,1650848985130755.0
1.0,0.0,-2.0,1.0,14.0,3.0,-1.0,1.0,1650848985151767.0
0.0,-1.0,-2.0,0.0,-5.0,5.0,0.0,1.0,1650848985151767.0
-1.0,0.0,1.0,0.0,3.0,-2.0,-1.0,-1.0,1650848985152696.0
-1.0,0.0,0.0,-6.0,0.0,-5.0,-3.0,0.0,1650848985152696.0
-1.0,0.0,-4.0,0.0,-9.0,-7.0,-3.0,-3.0,1650848985164694.0
-1.0,1.0,-2.0,0.0,-7.0,0.0,3.0,0.0,1650848985164694.0
-2.0,-2.0,1.0,1.0,11.0,16.0,3.0,0.0,1650848985173669.0
1.0,-1.0,-1.0,-1.0,1.0,-7.0,-2.0,1.0,1650848985173669.0
-1.0,-3.0,2.0,1.0,-5.0,-1.0,-1.0,1.0,1650848985188707.0
-1.0,1.0,0.0,0.0,-2.0,-10.0,-1.0,1.0,1650848985188707.0
-1.0,0.0,-3.0,-4.0,-6.0,-6.0,-2.0,-1.0,1650848985190702.0
-1.0,-1.0,2.0,3.0,3.0,1.0,1.0,-1.0,1650848985190702.0
1.0,-1.0,1.0,-3.0,-1.0,2.0,1.0,-1.0,1650848985211673.0
-2.0,-3.0,-1.0,-1.0,-14.0,-14.0,-5.0,0.0,1650848985211673.0
1.0,0.0,4.0,5.0,15.0,17.0,4.0,2.0,1650848985213641.0
0.0,0.0,0.0,-1.0,-5.0,-6.0,-2.0,-1.0,1650848985213641.0
-2.0,0.0,-1.0,3.0,12.0,23.0,1.0,-1.0,1650848985234452.0
0.0,0.0,2.0,-3.0,3.0,-8.0,3.0,-2.0,1650848985234452.0
-1.0,-1.0,-4.0,0.0,-10.0,-15.0,-8.0,-3.0,1650848985235467.0
0.0,-2.0,-3.0,-1.0,-7.0,-9.0,-1.0,1.0,1650848985235467.0
-1.0,-1.0,-2.0,-1.0,-3.0,6.0,2.0,1.0,1650848985249414.0
-2.0,-1.0,-1.0,1.0,4.0,6.0,-1.0,-1.0,1650848985249414.0
-1.0,-1.0,1.0,2.0,-3.0,-6.0,-1.0,1.0,1650848985250412.0
-1.0,-1.0,0.0,-1.0,6.0,11.0,0.0,-1.0,1650848985250412.0
-2.0,-3.0,0.0,-2.0,-7.0,-11.0,-2.0,-2.0,1650848985271354.0
-1.0,1.0,-1.0,0.0,-5.0,0.0,-2.0,-1.0,1650848985271354.0
-2.0,-1.0,-2.0,-2.0,1.0,-2.0,-1.0,0.0,1650848985273350.0
-2.0,-3.0,-2.0,-4.0,-5.0,-7.0,-3.0,-2.0,1650848985273350.0
-1.0,2.0,1.0,1.0,-1.0,1.0,0.0,0.0,1650848985294393.0
0.0,2.0,0.0,1.0,9.0,9.0,3.0,0.0,1650848985294393.0
0.0,-1.0,-3.0,-3.0,-9.0,-13.0,-3.0,-1.0,1650848985295390.0
-1.0,-1.0,-1.0,5.0,9.0,10.0,1.0,2.0,1650848985295390.0
-1.0,-2.0,-3.0,-3.0,2.0,6.0,1.0,1.0,1650848985309357.0
-1.0,-2.0,-1.0,-4.0,-10.0,-18.0,-4.0,-2.0,1650848985309357.0
0.0,-1.0,-2.0,2.0,-2.0,9.0,1.0,0.0,1650848985310350.0
-1.0,0.0,1.0,2.0,1.0,9.0,4.0,0.0,1650848985310350.0
-1.0,1.0,2.0,3.0,5.0,18.0,5.0,1.0,1650848985332293.0
1.0,0.0,-1.0,-3.0,8.0,3.0,-1.0,0.0,1650848985332293.0
-1.0,1.0,-3.0,-3.0,-2.0,-11.0,-4.0,-2.0,1650848985333290.0
0.0,1.0,-2.0,-4.0,0.0,-3.0,-3.0,-3.0,1650848985333290.0
-2.0,0.0,-1.0,-4.0,-10.0,-18.0,-4.0,-2.0,1650848985354347.0
-1.0,-2.0,0.0,-1.0,-11.0,-2.0,-1.0,-2.0,1650848985354347.0
1.0,1.0,1.0,-1.0,7.0,-1.0,-1.0,-2.0,1650848985355351.0
0.0,-1.0,-2.0,-2.0,-3.0,15.0,1.0,-1.0,1650848985355351.0
1.0,-1.0,2.0,2.0,3.0,-6.0,0.0,-1.0,1650848985369395.0
-1.0,0.0,-2.0,1.0,0.0,5.0,2.0,2.0,1650848985369395.0
1.0,-3.0,1.0,-3.0,0.0,3.0,1.0,-1.0,1650848985370307.0
0.0,-1.0,-1.0,0.0,-1.0,-9.0,-3.0,-1.0,1650848985370307.0
-1.0,-2.0,-4.0,-1.0,1.0,-7.0,-2.0,-1.0,1650848985391286.0
0.0,0.0,1.0,0.0,0.0,1.0,-1.0,0.0,1650848985391286.0
-2.0,-1.0,1.0,-1.0,-11.0,4.0,-2.0,-3.0,1650848985393246.0
-3.0,2.0,0.0,0.0,0.0,-32.0,-3.0,-2.0,1650848985393246.0
1.0,1.0,-1.0,5.0,16.0,50.0,8.0,3.0,1650848985414189.0
0.0,-1.0,0.0,-2.0,5.0,8.0,3.0,1.0,1650848985414189.0
-1.0,0.0,-1.0,2.0,-1.0,2.0,-1.0,1.0,1650848985415192.0
0.0,-1.0,0.0,-2.0,-6.0,-11.0,-3.0,-2.0,1650848985415192.0
-1.0,1.0,1.0,-3.0,-7.0,-18.0,-5.0,-1.0,1650848985428180.0
-2.0,-1.0,-3.0,-1.0,2.0,2.0,-1.0,-3.0,1650848985428180.0
0.0,-1.0,-2.0,-3.0,-4.0,0.0,2.0,-1.0,1650848985435203.0
1.0,-2.0,0.0,-2.0,2.0,8.0,0.0,2.0,1650848985435203.0
-1.0,-1.0,-2.0,-5.0,-5.0,-21.0,-6.0,-3.0,1650848985451158.0
1.0,-3.0,1.0,0.0,-13.0,-16.0,-5.0,-1.0,1650848985451158.0
-1.0,-2.0,1.0,5.0,13.0,28.0,5.0,2.0,1650848985453086.0
0.0,1.0,-1.0,-6.0,-8.0,-3.0,3.0,2.0,1650848985453086.0
1.0,0.0,-2.0,4.0,22.0,14.0,2.0,1.0,1650848985474181.0
-1.0,-1.0,-1.0,-2.0,-5.0,-12.0,-5.0,-1.0,1650848985474181.0
-2.0,-2.0,-2.0,-3.0,-9.0,-15.0,-6.0,-4.0,1650848985475190.0
-2.0,-2.0,-3.0,-1.0,-4.0,3.0,-1.0,-3.0,1650848985475190.0
1.0,-1.0,1.0,0.0,-10.0,-18.0,-5.0,-2.0,1650848985488973.0
1.0,2.0,-1.0,0.0,10.0,32.0,8.0,2.0,1650848985488973.0
0.0,-1.0,2.0,-2.0,0.0,-10.0,-2.0,0.0,1650848985494890.0
-1.0,0.0,0.0,3.0,1.0,15.0,2.0,1.0,1650848985494890.0
-2.0,-3.0,-2.0,-2.0,-5.0,-16.0,-1.0,-1.0,1650848985510991.0
-1.0,-2.0,1.0,-1.0,2.0,-4.0,-1.0,-1.0,1650848985510991.0
1.0,2.0,1.0,1.0,1.0,5.0,1.0,0.0,1650848985512960.0
0.0,-1.0,0.0,-1.0,1.0,-5.0,-3.0,0.0,1650848985512960.0
-2.0,-2.0,-1.0,-5.0,-7.0,-2.0,-2.0,-2.0,1650848985533975.0
0.0,-1.0,-3.0,0.0,-4.0,-11.0,-5.0,0.0,1650848985533975.0
-1.0,0.0,0.0,1.0,-1.0,11.0,1.0,1.0,1650848985535924.0
1.0,-1.0,1.0,-1.0,7.0,-2.0,2.0,2.0,1650848985535924.0
2.0,1.0,1.0,1.0,5.0,17.0,10.0,2.0,1650848985548875.0
-3.0,1.0,0.0,3.0,4.0,0.0,0.0,-1.0,1650848985548875.0
-2.0,-1.0,-3.0,-4.0,-10.0,-22.0,-4.0,-3.0,1650848985554875.0
-1.0,0.0,-3.0,-2.0,-2.0,-7.0,-3.0,-1.0,1650848985554875.0
0.0,0.0,0.0,0.0,-6.0,3.0,-2.0,-2.0,1650848985571825.0
0.0,-1.0,-3.0,-4.0,-2.0,-17.0,-5.0,-2.0,1650848985571825.0
-3.0,-1.0,0.0,1.0,-6.0,3.0,-3.0,1.0,1650848985572804.0
0.0,-1.0,3.0,2.0,19.0,29.0,9.0,3.0,1650848985572804.0
1.0,0.0,1.0,-3.0,-9.0,1.0,1.0,0.0,1650848985593855.0
1.0,-3.0,0.0,3.0,7.0,1.0,1.0,0.0,1650848985593855.0
0.0,-3.0,-1.0,-3.0,-5.0,-19.0,-5.0,-4.0,1650848985595822.0
-1.0,1.0,-4.0,1.0,-6.0,-3.0,-3.0,-3.0,1650848985595822.0
-1.0,0.0,-1.0,0.0,0.0,1.0,-2.0,-1.0,1650848985608787.0
-1.0,-2.0,-1.0,-3.0,-10.0,-22.0,-3.0,-1.0,1650848985608787.0
0.0,-1.0,-1.0,4.0,11.0,29.0,1.0,1.0,1650848985614771.0
0.0,-4.0,4.0,0.0,-5.0,-2.0,4.0,2.0,1650848985614771.0
0.0,-1.0,1.0,1.0,2.0,-12.0,-3.0,0.0,1650848985631726.0
2.0,1.0,1.0,4.0,10.0,18.0,0.0,1.0,1650848985631726.0
1.0,0.0,0.0,-6.0,-9.0,-9.0,4.0,1.0,1650848985632731.0
1.0,1.0,-3.0,-1.0,-1.0,-4.0,-5.0,-3.0,1650848985632731.0
-1.0,-1.0,-4.0,-1.0,0.0,-2.0,-1.0,1.0,1650848985653778.0
0.0,-1.0,-2.0,-1.0,-4.0,-5.0,-3.0,-2.0,1650848985653778.0
-3.0,-1.0,-1.0,-4.0,-2.0,-22.0,-4.0,-4.0,1650848985655749.0
0.0,-1.0,-1.0,0.0,-15.0,4.0,-3.0,-1.0,1650848985655749.0
1.0,2.0,2.0,7.0,22.0,27.0,5.0,2.0,1650848985668839.0
-1.0,0.0,1.0,-3.0,1.0,8.0,5.0,1.0,1650848985668839.0
0.0,-2.0,-2.0,-2.0,0.0,1.0,1.0,-1.0,1650848985674847.0
-1.0,-2.0,-1.0,-2.0,3.0,-6.0,0.0,-1.0,1650848985674847.0
-3.0,-1.0,0.0,-4.0,-11.0,-16.0,-5.0,-3.0,1650848985691882.0
-2.0,-2.0,-6.0,-1.0,1.0,9.0,3.0,-2.0,1650848985691882.0
-1.0,2.0,-1.0,1.0,1.0,-5.0,1.0,0.0,1650848985692877.0
0.0,0.0,-1.0,0.0,-2.0,-5.0,0.0,-1.0,1650848985692877.0
1.0,-4.0,1.0,2.0,-6.0,1.0,-3.0,-1.0,1650848985713850.0
-1.0,-2.0,3.0,-3.0,7.0,3.0,0.0,0.0,1650848985713850.0
0.0,0.0,-1.0,2.0,-7.0,1.0,-1.0,1.0,1650848985715822.0
-1.0,1.0,0.0,-1.0,9.0,6.0,1.0,1.0,1650848985715822.0
-2.0,0.0,-2.0,-5.0,-4.0,-14.0,-4.0,-3.0,1650848985727810.0
-1.0,-1.0,-2.0,-1.0,-7.0,1.0,-4.0,-1.0,1650848985727810.0
0.0,-1.0,0.0,1.0,-1.0,12.0,7.0,1.0,1650848985736875.0
-1.0,0.0,2.0,0.0,12.0,2.0,0.0,0.0,1650848985736875.0
-1.0,0.0,-1.0,-3.0,-6.0,-6.0,-1.0,-1.0,1650848985751918.0
1.0,-1.0,-1.0,0.0,-9.0,-29.0,-8.0,-2.0,1650848985751918.0
0.0,1.0,1.0,2.0,11.0,24.0,2.0,1.0,1650848985752917.0
0.0,-3.0,0.0,-2.0,3.0,17.0,5.0,0.0,1650848985752917.0
-3.0,1.0,-3.0,-2.0,-4.0,-14.0,-2.0,-1.0,1650848985773886.0
-1.0,1.0,2.0,3.0,11.0,11.0,1.0,1.0,1650848985773886.0
0.0,0.0,-2.0,-4.0,-4.0,-15.0,-2.0,-1.0,1650848985775874.0
-3.0,-3.0,-3.0,1.0,-8.0,-12.0,-6.0,-3.0,1650848985775874.0
-1.0,-1.0,-1.0,1.0,0.0,6.0,-1.0,1.0,1650848985787929.0
1.0,-1.0,2.0,-3.0,-9.0,-6.0,1.0,-1.0,1650848985787929.0
1.0,0.0,2.0,2.0,10.0,8.0,2.0,1.0,1650848985796902.0
0.0,0.0,-1.0,-1.0,-2.0,-3.0,-2.0,-2.0,1650848985796902.0
-1.0,-1.0,-1.0,-1.0,0.0,1.0,2.0,1.0,1650848985811041.0
-2.0,-1.0,-1.0,-3.0,-4.0,4.0,0.0,0.0,1650848985811041.0
0.0,0.0,0.0,-1.0,-6.0,-19.0,-5.0,-1.0,1650848985813008.0
0.0,1.0,-2.0,2.0,-2.0,14.0,0.0,0.0,1650848985813008.0
1.0,-1.0,-1.0,-2.0,5.0,2.0,3.0,0.0,1650848985833954.0
0.0,-1.0,0.0,1.0,-5.0,-2.0,0.0,-2.0,1650848985833954.0
-1.0,-2.0,-2.0,1.0,10.0,2.0,-3.0,-1.0,1650848985835946.0
-2.0,-3.0,-1.0,-5.0,-17.0,-42.0,-9.0,-1.0,1650848985835946.0
-2.0,-1.0,-1.0,5.0,-5.0,47.0,11.0,1.0,1650848985847913.0
1.0,-1.0,3.0,2.0,26.0,11.0,5.0,3.0,1650848985847913.0
-1.0,-1.0,0.0,-5.0,-4.0,-6.0,-1.0,0.0,1650848985857003.0
0.0,1.0,-3.0,-1.0,-3.0,-12.0,-3.0,-2.0,1650848985857003.0
-1.0,-1.0,0.0,-1.0,-6.0,-24.0,-6.0,-3.0,1650848985871942.0
1.0,2.0,-2.0,1.0,-4.0,5.0,0.0,0.0,1650848985871942.0
-1.0,-3.0,-1.0,-6.0,2.0,5.0,-1.0,-1.0,1650848985872932.0
-2.0,-3.0,1.0,1.0,-2.0,-5.0,0.0,0.0,1650848985872932.0
0.0,1.0,2.0,6.0,10.0,8.0,0.0,0.0,1650848985893851.0
-1.0,0.0,-1.0,0.0,-7.0,2.0,2.0,-1.0,1650848985893851.0
1.0,1.0,1.0,-3.0,4.0,0.0,0.0,0.0,1650848985895845.0
-1.0,-1.0,-2.0,-2.0,-9.0,3.0,-1.0,-1.0,1650848985895845.0
0.0,1.0,-1.0,-4.0,6.0,-2.0,0.0,-1.0,1650848985907834.0
0.0,-2.0,-4.0,-5.0,-4.0,-7.0,-4.0,0.0,1650848985907834.0
-2.0,-1.0,-2.0,2.0,-4.0,-1.0,-2.0,-2.0,1650848985923784.0
-1.0,1.0,-1.0,-1.0,0.0,-5.0,1.0,-1.0,1650848985923784.0
-3.0,-2.0,0.0,-3.0,-8.0,-18.0,-7.0,-1.0,1650848985931783.0
0.0,0.0,2.0,3.0,2.0,27.0,3.0,1.0,1650848985931783.0
2.0,1.0,2.0,0.0,0.0,5.0,4.0,5.0,1650848985932748.0
1.0,-1.0,0.0,-4.0,10.0,-1.0,1.0,0.0,1650848985932748.0
0.0,-1.0,-5.0,0.0,3.0,9.0,-1.0,1.0,1650848985953730.0
-3.0,-1.0,-1.0,-4.0,-16.0,-23.0,-7.0,-3.0,1650848985953730.0
-1.0,-1.0,-2.0,-1.0,-13.0,-6.0,-3.0,-3.0,1650848985955685.0
-1.0,3.0,2.0,4.0,13.0,12.0,3.0,0.0,1650848985955685.0
1.0,1.0,1.0,-1.0,1.0,-8.0,-1.0,0.0,1650848985967696.0
-2.0,-1.0,-4.0,-1.0,-6.0,-1.0,0.0,-1.0,1650848985967696.0
0.0,1.0,-2.0,2.0,6.0,8.0,3.0,-1.0,1650848985976630.0
2.0,-2.0,-1.0,3.0,1.0,1.0,-1.0,-1.0,1650848985976630.0
-2.0,-2.0,-3.0,-3.0,-3.0,-4.0,-3.0,-3.0,1650848985991589.0
-1.0,0.0,1.0,-2.0,-12.0,-16.0,0.0,1.0,1650848985991589.0
-1.0,-1.0,0.0,3.0,12.0,17.0,1.0,1.0,1650848985992587.0
-1.0,-1.0,-2.0,-5.0,-6.0,-7.0,-2.0,-1.0,1650848985992587.0
0.0,-1.0,0.0,2.0,4.0,9.0,-1.0,-1.0,1650848986013565.0
0.0,-1.0,1.0,-1.0,-8.0,0.0,3.0,0.0,1650848986013565.0
-3.0,0.0,-4.0,3.0,9.0,-8.0,-2.0,-2.0,1650848986015526.0
-2.0,-1.0,-1.0,-1.0,-7.0,-9.0,-4.0,-1.0,1650848986015526.0
0.0,-1.0,-1.0,-2.0,-3.0,18.0,2.0,2.0,1650848986027520.0
-3.0,-2.0,-1.0,-2.0,0.0,-5.0,-2.0,-3.0,1650848986027520.0
0.0,0.0,2.0,3.0,-1.0,-4.0,-1.0,2.0,1650848986036494.0
1.0,0.0,2.0,0.0,1.0,8.0,3.0,-2.0,1650848986036494.0
0.0,-1.0,-2.0,0.0,2.0,-15.0,-2.0,0.0,1650848986051468.0
0.0,-1.0,-1.0,2.0,1.0,2.0,-1.0,-1.0,1650848986051468.0
-1.0,-1.0,-1.0,-3.0,-6.0,0.0,0.0,1.0,1650848986052488.0
-3.0,-1.0,1.0,2.0,1.0,5.0,-1.0,1.0,1650848986052488.0
1.0,0.0,1.0,-3.0,-5.0,-8.0,-1.0,0.0,1650848986073397.0
-2.0,0.0,0.0,-2.0,2.0,-5.0,0.0,0.0,1650848986073397.0
0.0,-1.0,0.0,-2.0,-7.0,-1.0,-1.0,-2.0,1650848986080399.0
0.0,-1.0,-2.0,1.0,7.0,15.0,2.0,0.0,1650848986080399.0
-1.0,1.0,0.0,3.0,8.0,2.0,3.0,2.0,1650848986087399.0
-2.0,0.0,1.0,-2.0,4.0,-3.0,-1.0,0.0,1650848986087399.0
-3.0,-1.0,-1.0,-1.0,-10.0,-4.0,-1.0,-2.0,1650848986096344.0
0.0,-2.0,-1.0,2.0,1.0,0.0,-1.0,-1.0,1650848986096344.0
0.0,-3.0,0.0,-4.0,-6.0,-7.0,1.0,-2.0,1650848986111295.0
0.0,0.0,2.0,-1.0,-2.0,-18.0,-6.0,-1.0,1650848986111295.0
1.0,0.0,-1.0,3.0,8.0,33.0,6.0,1.0,1650848986113291.0
-2.0,-1.0,-3.0,-1.0,-6.0,-5.0,-2.0,-2.0,1650848986113291.0
-2.0,0.0,3.0,-1.0,3.0,7.0,2.0,-1.0,1650848986134329.0
0.0,1.0,-2.0,0.0,3.0,-2.0,0.0,2.0,1650848986134329.0
-2.0,-2.0,1.0,-2.0,-3.0,-12.0,-4.0,-2.0,1650848986135329.0
0.0,-1.0,-3.0,-4.0,-8.0,-4.0,-2.0,-1.0,1650848986135329.0
0.0,0.0,-2.0,1.0,1.0,-15.0,-4.0,-1.0,1650848986147317.0
-1.0,0.0,-1.0,2.0,-5.0,14.0,-2.0,-1.0,1650848986147317.0
0.0,0.0,0.0,-1.0,6.0,-3.0,4.0,3.0,1650848986164252.0
-1.0,1.0,-1.0,-1.0,3.0,8.0,2.0,-1.0,1650848986164252.0
0.0,-1.0,-2.0,-1.0,-7.0,-13.0,-4.0,-2.0,1650848986171234.0
1.0,0.0,-3.0,-2.0,10.0,17.0,4.0,0.0,1650848986171234.0
-1.0,-1.0,-2.0,-3.0,-8.0,-13.0,-3.0,-2.0,1650848986173227.0
0.0,-3.0,1.0,0.0,-4.0,3.0,1.0,-2.0,1650848986173227.0
-1.0,-1.0,0.0,-1.0,-2.0,0.0,0.0,1.0,1650848986194876.0
-1.0,-2.0,-1.0,0.0,6.0,10.0,1.0,0.0,1650848986194876.0
0.0,-2.0,-1.0,-4.0,-9.0,-1.0,-1.0,0.0,1650848986195866.0
0.0,-1.0,-1.0,-1.0,-8.0,-14.0,-3.0,0.0,1650848986195866.0
-1.0,1.0,-1.0,3.0,11.0,2.0,-4.0,-1.0,1650848986216799.0
0.0,0.0,2.0,0.0,6.0,26.0,4.0,2.0,1650848986216799.0
-1.0,-2.0,-7.0,-4.0,-6.0,-20.0,-5.0,-5.0,1650848986217787.0
1.0,-1.0,2.0,0.0,-3.0,-3.0,-1.0,0.0,1650848986217787.0
0.0,-2.0,0.0,-2.0,-10.0,-2.0,0.0,1.0,1650848986231777.0
-1.0,-1.0,-2.0,-2.0,-2.0,-7.0,-2.0,1.0,1650848986231777.0
-1.0,2.0,1.0,0.0,2.0,-21.0,-2.0,-1.0,1650848986232747.0
-1.0,-1.0,-1.0,1.0,5.0,33.0,1.0,-1.0,1650848986232747.0
-1.0,-2.0,2.0,-1.0,-3.0,-7.0,2.0,1.0,1650848986253712.0
0.0,-1.0,-2.0,-1.0,-2.0,-10.0,-1.0,-2.0,1650848986253712.0
0.0,-2.0,1.0,-5.0,-5.0,4.0,-1.0,0.0,1650848986255698.0
-1.0,0.0,-1.0,0.0,4.0,-11.0,-1.0,1.0,1650848986255698.0
-2.0,0.0,1.0,1.0,-12.0,-5.0,-2.0,-2.0,1650848986276629.0
1.0,0.0,1.0,1.0,14.0,23.0,5.0,1.0,1650848986276629.0
-2.0,-1.0,-2.0,-6.0,0.0,1.0,1.0,0.0,1650848986277626.0
1.0,0.0,2.0,2.0,9.0,0.0,-1.0,0.0,1650848986277626.0
1.0,-1.0,-3.0,-4.0,-3.0,3.0,0.0,-2.0,1650848986291617.0
-1.0,-2.0,-8.0,-5.0,-10.0,-17.0,-4.0,-2.0,1650848986291617.0
-2.0,-1.0,-1.0,3.0,-3.0,-7.0,-4.0,-1.0,1650848986292608.0
1.0,1.0,2.0,1.0,7.0,12.0,-1.0,-1.0,1650848986292608.0
1.0,-1.0,1.0,-3.0,-4.0,-7.0,0.0,0.0,1650848986321770.0
-1.0,-1.0,1.0,2.0,4.0,7.0,7.0,0.0,1650848986321770.0
2.0,1.0,0.0,-1.0,-2.0,6.0,1.0,0.0,1650848986322697.0
-2.0,-1.0,-3.0,-1.0,-7.0,-14.0,-1.0,0.0,1650848986322697.0
-1.0,0.0,-2.0,-1.0,10.0,5.0,0.0,-1.0,1650848986336860.0
-3.0,0.0,-1.0,2.0,-2.0,-1.0,-1.0,-1.0,1650848986336860.0
0.0,-1.0,0.0,1.0,6.0,15.0,0.0,-1.0,1650848986337771.0
0.0,-2.0,-1.0,-7.0,-16.0,-14.0,0.0,-3.0,1650848986337771.0
-1.0,-1.0,-2.0,-2.0,-2.0,1.0,-2.0,-1.0,1650848986350751.0
-1.0,0.0,1.0,1.0,-6.0,-17.0,-4.0,0.0,1650848986350751.0
3.0,1.0,1.0,5.0,10.0,17.0,5.0,3.0,1650848986357745.0
0.0,-1.0,0.0,-4.0,3.0,6.0,0.0,-1.0,1650848986357745.0
-2.0,-1.0,-2.0,1.0,-1.0,5.0,3.0,0.0,1650848986373675.0
-1.0,-1.0,1.0,-5.0,-6.0,-8.0,-3.0,-1.0,1650848986373675.0
-2.0,-3.0,-1.0,-1.0,-7.0,-14.0,-4.0,-1.0,1650848986375699.0
1.0,0.0,1.0,3.0,4.0,5.0,1.0,1.0,1650848986375699.0
-1.0,-3.0,-7.0,-4.0,-9.0,-9.0,-2.0,-1.0,1650848986396642.0
0.0,2.0,3.0,2.0,3.0,-1.0,-2.0,-1.0,1650848986396642.0
0.0,1.0,0.0,3.0,3.0,17.0,1.0,1.0,1650848986397631.0
0.0,1.0,-2.0,0.0,7.0,-7.0,2.0,2.0,1650848986397631.0
0.0,0.0,0.0,-2.0,-11.0,-11.0,-5.0,0.0,1650848986410576.0
0.0,-3.0,-3.0,5.0,6.0,7.0,-1.0,-4.0,1650848986410576.0
0.0,-2.0,-3.0,-1.0,-2.0,8.0,-1.0,-1.0,1650848986417558.0
-1.0,-1.0,-2.0,-2.0,-5.0,-10.0,-2.0,-1.0,1650848986417558.0
-1.0,0.0,1.0,-2.0,0.0,5.0,0.0,0.0,1650848986433524.0
-1.0,-1.0,-1.0,-1.0,-16.0,-20.0,-2.0,-1.0,1650848986433524.0
-2.0,1.0,2.0,5.0,13.0,8.0,0.0,-1.0,1650848986435510.0
2.0,0.0,0.0,-1.0,4.0,5.0,0.0,0.0,1650848986435510.0
-1.0,-1.0,0.0,2.0,0.0,-3.0,-2.0,-1.0,1650848986456632.0
0.0,0.0,-1.0,0.0,-1.0,1.0,1.0,0.0,1650848986456632.0
-1.0,1.0,-2.0,-4.0,0.0,1.0,0.0,0.0,1650848986457619.0
-1.0,-1.0,-2.0,1.0,-6.0,-3.0,-2.0,0.0,1650848986457619.0
0.0,-3.0,-4.0,1.0,4.0,5.0,1.0,-1.0,1650848986478570.0
-1.0,0.0,1.0,-3.0,-8.0,-24.0,-3.0,-1.0,1650848986478570.0
1.0,-1.0,1.0,5.0,6.0,28.0,5.0,-1.0,1650848986480538.0
-1.0,0.0,0.0,-1.0,1.0,-2.0,-2.0,-1.0,1650848986480538.0
0.0,2.0,2.0,1.0,8.0,9.0,2.0,-1.0,1650848986493530.0
-3.0,-2.0,-3.0,-6.0,-7.0,-5.0,-1.0,0.0,1650848986493530.0
-1.0,0.0,-3.0,1.0,-11.0,-24.0,-5.0,-1.0,1650848986495499.0
1.0,-1.0,0.0,1.0,-1.0,6.0,0.0,0.0,1650848986495499.0
-2.0,1.0,1.0,-2.0,13.0,19.0,4.0,2.0,1650848986516562.0
-1.0,-1.0,0.0,-1.0,0.0,-2.0,-4.0,-4.0,1650848986516562.0
0.0,0.0,1.0,-2.0,-6.0,-13.0,-4.0,0.0,1650848986518557.0
-1.0,-2.0,1.0,-1.0,9.0,13.0,9.0,1.0,1650848986518557.0
-2.0,-1.0,-2.0,0.0,-7.0,-12.0,-4.0,0.0,1650848986530555.0
2.0,0.0,0.0,1.0,4.0,7.0,0.0,-1.0,1650848986530555.0
0.0,1.0,0.0,-3.0,0.0,-11.0,-1.0,-1.0,1650848986537574.0
-2.0,0.0,-2.0,-2.0,-8.0,-6.0,-2.0,0.0,1650848986537574.0
2.0,0.0,2.0,3.0,8.0,8.0,1.0,-1.0,1650848986554503.0
0.0,-2.0,1.0,0.0,7.0,11.0,2.0,-1.0,1650848986554503.0
0.0,-1.0,-2.0,-6.0,-10.0,-11.0,-1.0,-1.0,1650848986555502.0
0.0,-1.0,0.0,1.0,-6.0,-7.0,-3.0,0.0,1650848986555502.0
-2.0,1.0,-2.0,2.0,-9.0,-21.0,-3.0,0.0,1650848986576531.0
1.0,1.0,-2.0,1.0,11.0,40.0,3.0,2.0,1650848986576531.0
1.0,-2.0,0.0,-5.0,-6.0,-14.0,-2.0,-1.0,1650848986578500.0
0.0,-1.0,-1.0,2.0,4.0,8.0,0.0,1.0,1650848986578500.0
-1.0,-1.0,1.0,-2.0,-7.0,-8.0,-2.0,-1.0,1650848986590534.0
0.0,-1.0,-1.0,-3.0,-6.0,-23.0,-5.0,-3.0,1650848986590534.0
-1.0,1.0,1.0,1.0,-1.0,15.0,1.0,-1.0,1650848986597447.0
0.0,1.0,-1.0,0.0,4.0,-1.0,2.0,-2.0,1650848986597447.0
0.0,-1.0,1.0,-3.0,0.0,1.0,0.0,-2.0,1650848986613556.0
-1.0,0.0,2.0,-2.0,-3.0,-1.0,0.0,1.0,1650848986613556.0
-1.0,0.0,-1.0,2.0,-8.0,-6.0,-2.0,-1.0,1650848986615524.0
0.0,0.0,1.0,1.0,4.0,-19.0,-6.0,-1.0,1650848986615524.0
-1.0,0.0,1.0,3.0,10.0,40.0,8.0,2.0,1650848986636534.0
-2.0,0.0,-2.0,-2.0,-2.0,-6.0,0.0,1.0,1650848986636534.0
-1.0,-2.0,-3.0,0.0,-6.0,-12.0,-3.0,0.0,1650848986638462.0
0.0,-1.0,-1.0,-3.0,-6.0,3.0,1.0,-2.0,1650848986638462.0
2.0,1.0,-2.0,7.0,14.0,-2.0,-1.0,-1.0,1650848986650434.0
-1.0,0.0,-1.0,-4.0,-3.0,2.0,0.0,-1.0,1650848986650434.0
-2.0,-1.0,-4.0,0.0,-1.0,-24.0,-4.0,-2.0,1650848986657478.0
-2.0,-1.0,0.0,2.0,1.0,28.0,2.0,1.0,1650848986657478.0
1.0,0.0,0.0,-2.0,-1.0,2.0,-2.0,-1.0,1650848986674366.0
-1.0,-1.0,-2.0,-1.0,-1.0,6.0,2.0,1.0,1650848986674366.0
0.0,0.0,-1.0,-3.0,3.0,-10.0,-3.0,-3.0,1650848986675366.0
-1.0,-2.0,0.0,1.0,-4.0,-5.0,-2.0,-1.0,1650848986675366.0
-1.0,-2.0,-2.0,-3.0,-11.0,-10.0,-2.0,-1.0,1650848986696334.0
1.0,-2.0,1.0,1.0,-6.0,-6.0,0.0,-1.0,1650848986696334.0
-1.0,0.0,1.0,3.0,13.0,17.0,3.0,2.0,1650848986698302.0
-1.0,-2.0,-2.0,-4.0,-3.0,-11.0,-1.0,-1.0,1650848986698302.0
0.0,-2.0,1.0,-1.0,3.0,15.0,2.0,-1.0,1650848986710269.0
-1.0,-1.0,-2.0,-1.0,-6.0,-13.0,-3.0,-1.0,1650848986710269.0
1.0,1.0,2.0,2.0,-4.0,3.0,2.0,0.0,1650848986719245.0
-1.0,1.0,2.0,1.0,8.0,11.0,2.0,0.0,1650848986719245.0
0.0,-1.0,0.0,0.0,2.0,-8.0,0.0,1.0,1650848986734206.0
-1.0,0.0,0.0,1.0,-1.0,2.0,-3.0,-2.0,1650848986734206.0
0.0,-1.0,-1.0,-1.0,-1.0,-7.0,-3.0,-1.0,1650848986735207.0
1.0,-1.0,-3.0,-2.0,-5.0,2.0,5.0,-1.0,1650848986735207.0
1.0,0.0,-4.0,-1.0,-3.0,-3.0,1.0,1.0,1650848986756231.0
1.0,2.0,4.0,4.0,8.0,5.0,1.0,-1.0,1650848986756231.0
-8.0,-2.0,-4.0,-3.0,-6.0,-10.0,-5.0,-3.0,1650848986758228.0
-2.0,1.0,1.0,1.0,-3.0,-4.0,-1.0,0.0,1650848986758228.0
1.0,0.0,-2.0,1.0,8.0,18.0,0.0,-1.0,1650848986770262.0
0.0,-1.0,-4.0,-4.0,-2.0,-5.0,1.0,1.0,1650848986770262.0
1.0,-3.0,1.0,1.0,1.0,4.0,2.0,-1.0,1650848986779171.0
-1.0,0.0,1.0,0.0,-8.0,-12.0,-3.0,0.0,1650848986779171.0
-1.0,-1.0,-3.0,-1.0,-1.0,9.0,3.0,-1.0,1650848986793906.0
-1.0,-2.0,1.0,-2.0,-9.0,-9.0,-1.0,1.0,1650848986793906.0
1.0,1.0,1.0,4.0,11.0,10.0,2.0,1.0,1650848986795874.0
-2.0,0.0,-3.0,-3.0,2.0,-1.0,-1.0,0.0,1650848986795874.0
0.0,-1.0,1.0,-2.0,-12.0,-17.0,-4.0,-2.0,1650848986816854.0
1.0,0.0,-2.0,2.0,2.0,5.0,2.0,-1.0,1650848986816854.0
-1.0,-1.0,-1.0,-3.0,-2.0,2.0,4.0,1.0,1650848986817832.0
0.0,-1.0,-2.0,-2.0,0.0,-2.0,-2.0,-1.0,1650848986817832.0
-2.0,2.0,0.0,3.0,3.0,-9.0,-1.0,-1.0,1650848986829826.0
-2.0,-1.0,-1.0,-1.0,2.0,7.0,1.0,-2.0,1650848986829826.0
3.0,-1.0,-3.0,-5.0,1.0,8.0,1.0,0.0,1650848986838804.0
-2.0,-1.0,2.0,1.0,6.0,8.0,7.0,0.0,1650848986838804.0
-1.0,0.0,3.0,-1.0,-2.0,-9.0,-4.0,-2.0,1650848986854449.0
0.0,0.0,-2.0,0.0,-3.0,-7.0,0.0,0.0,1650848986854449.0
-1.0,-1.0,-1.0,-5.0,-9.0,-15.0,-4.0,-1.0,1650848986855451.0
0.0,-1.0,-1.0,1.0,1.0,9.0,-5.0,-2.0,1650848986855451.0
-1.0,-1.0,1.0,0.0,2.0,-8.0,0.0,0.0,1650848986876392.0
0.0,1.0,-2.0,-2.0,0.0,-1.0,1.0,0.0,1650848986876392.0
1.0,-1.0,-1.0,2.0,7.0,17.0,3.0,2.0,1650848986878395.0
1.0,1.0,1.0,-2.0,-3.0,-6.0,2.0,-1.0,1650848986878395.0
-1.0,-1.0,-1.0,-3.0,-4.0,-5.0,-1.0,0.0,1650848986890383.0
1.0,-2.0,-1.0,-3.0,2.0,-1.0,-3.0,-1.0,1650848986890383.0
1.0,-1.0,-1.0,3.0,-4.0,-7.0,-2.0,0.0,1650848986899358.0
-1.0,0.0,-3.0,-1.0,-7.0,-1.0,-1.0,1.0,1650848986899358.0
-1.0,-2.0,-1.0,1.0,5.0,0.0,-1.0,-2.0,1650848986914321.0
2.0,0.0,1.0,2.0,6.0,7.0,2.0,1.0,1650848986914321.0
-1.0,-1.0,-3.0,-1.0,-2.0,6.0,0.0,0.0,1650848986915294.0
1.0,-1.0,-2.0,-3.0,-5.0,-9.0,-4.0,0.0,1650848986915294.0
-2.0,1.0,-2.0,0.0,0.0,4.0,2.0,-2.0,1650848986936520.0
-4.0,-3.0,-1.0,1.0,-4.0,-18.0,-2.0,-3.0,1650848986936520.0
2.0,0.0,2.0,-2.0,2.0,24.0,4.0,1.0,1650848986938494.0
-2.0,0.0,0.0,0.0,5.0,-5.0,0.0,-2.0,1650848986938494.0
-1.0,-1.0,-2.0,1.0,-9.0,-5.0,-1.0,-1.0,1650848986950443.0
0.0,0.0,0.0,1.0,1.0,2.0,0.0,2.0,1650848986950443.0
-1.0,-2.0,0.0,-4.0,-5.0,-34.0,-6.0,-3.0,1650848986959421.0
-2.0,-1.0,1.0,5.0,7.0,44.0,3.0,0.0,1650848986959421.0
1.0,-1.0,-4.0,-3.0,-9.0,-7.0,-1.0,-1.0,1650848986974411.0
0.0,0.0,1.0,1.0,6.0,-5.0,-1.0,-2.0,1650848986974411.0
0.0,-1.0,-3.0,-1.0,0.0,3.0,1.0,-1.0,1650848986975421.0
1.0,-1.0,0.0,-2.0,1.0,5.0,0.0,-2.0,1650848986975421.0
-2.0,-1.0,-1.0,-3.0,-6.0,-8.0,-2.0,-1.0,1650848987004391.0
0.0,0.0,-1.0,0.0,-7.0,9.0,1.0,2.0,1650848987004391.0
1.0,1.0,-1.0,2.0,14.0,-3.0,-1.0,-1.0,1650848987005330.0
-2.0,-3.0,-4.0,-1.0,-3.0,-16.0,-3.0,-3.0,1650848987005330.0
0.0,1.0,2.0,-3.0,-1.0,15.0,-2.0,1.0,1650848987010344.0
0.0,0.0,0.0,-1.0,-11.0,-12.0,0.0,-2.0,1650848987010344.0
-2.0,1.0,1.0,0.0,10.0,17.0,0.0,0.0,1650848987019302.0
0.0,0.0,0.0,-5.0,3.0,-3.0,1.0,-1.0,1650848987019302.0
-2.0,0.0,0.0,1.0,-4.0,-11.0,-2.0,-3.0,1650848987034253.0
-1.0,0.0,-2.0,3.0,1.0,2.0,-1.0,-2.0,1650848987034253.0
0.0,3.0,3.0,0.0,11.0,12.0,3.0,1.0,1650848987035252.0
0.0,-1.0,1.0,-2.0,-12.0,-23.0,-4.0,-2.0,1650848987035252.0
0.0,-1.0,-2.0,2.0,6.0,20.0,0.0,2.0,1650848987056928.0
0.0,0.0,-1.0,-3.0,-1.0,-4.0,1.0,1.0,1650848987056928.0
-2.0,-2.0,1.0,-1.0,-5.0,-2.0,-2.0,-1.0,1650848987057934.0
0.0,-5.0,-4.0,-3.0,-3.0,-23.0,-5.0,-1.0,1650848987057934.0
1.0,-2.0,1.0,3.0,-5.0,10.0,5.0,2.0,1650848987069962.0
-1.0,0.0,0.0,0.0,15.0,29.0,0.0,-1.0,1650848987069962.0
-1.0,1.0,-1.0,0.0,-4.0,-9.0,1.0,1.0,1650848987078871.0
-2.0,0.0,0.0,0.0,-10.0,-13.0,-4.0,-1.0,1650848987078871.0
-1.0,-1.0,-1.0,-3.0,5.0,-8.0,-3.0,0.0,1650848987093860.0
-1.0,-1.0,0.0,-2.0,-1.0,6.0,1.0,-1.0,1650848987093860.0
-2.0,-1.0,-2.0,0.0,-1.0,-4.0,-2.0,-2.0,1650848987095853.0
-2.0,0.0,0.0,0.0,-1.0,0.0,-3.0,0.0,1650848987095853.0
1.0,0.0,-3.0,-2.0,2.0,4.0,3.0,-1.0,1650848987116902.0
0.0,-1.0,0.0,3.0,2.0,0.0,0.0,0.0,1650848987116902.0
1.0,0.0,-1.0,-2.0,-3.0,1.0,-3.0,-2.0,1650848987117892.0
0.0,-2.0,-1.0,-2.0,-7.0,-15.0,0.0,0.0,1650848987117892.0
-3.0,-1.0,0.0,-2.0,8.0,13.0,0.0,0.0,1650848987138904.0
-1.0,-1.0,0.0,1.0,-7.0,-12.0,1.0,2.0,1650848987138904.0
-1.0,1.0,0.0,3.0,8.0,5.0,0.0,-2.0,1650848987140852.0
0.0,0.0,-2.0,-2.0,-1.0,12.0,1.0,-1.0,1650848987140852.0
0.0,0.0,1.0,-1.0,-5.0,-14.0,-3.0,0.0,1650848987154429.0
-2.0,-1.0,-1.0,-1.0,-4.0,-4.0,-3.0,-1.0,1650848987154429.0
-1.0,-3.0,-3.0,-3.0,-7.0,-2.0,0.0,-1.0,1650848987155429.0
-2.0,-2.0,-2.0,0.0,-7.0,-26.0,-7.0,-3.0,1650848987155429.0
0.0,0.0,-2.0,3.0,12.0,33.0,0.0,0.0,1650848987176400.0
-2.0,-2.0,0.0,-10.0,-11.0,-13.0,0.0,0.0,1650848987176400.0
0.0,-1.0,-1.0,5.0,2.0,-1.0,1.0,1.0,1650848987178367.0
1.0,1.0,2.0,2.0,17.0,20.0,5.0,2.0,1650848987178367.0
0.0,-3.0,-2.0,-4.0,-12.0,-28.0,-7.0,-1.0,1650848987199311.0
-1.0,-1.0,-3.0,-3.0,1.0,-1.0,-4.0,-2.0,1650848987199311.0
-1.0,-2.0,-1.0,-1.0,-6.0,0.0,-1.0,-2.0,1650848987200308.0
-1.0,-1.0,-1.0,-1.0,0.0,1.0,1.0,0.0,1650848987200308.0
-1.0,-2.0,-5.0,-4.0,-3.0,-4.0,2.0,0.0,1650848987214271.0
2.0,0.0,0.0,1.0,-1.0,-3.0,0.0,0.0,1650848987214271.0
-2.0,-1.0,5.0,0.0,-1.0,10.0,1.0,0.0,1650848987215280.0
0.0,-2.0,-1.0,1.0,1.0,6.0,-1.0,0.0,1650848987215280.0
-1.0,-1.0,0.0,4.0,6.0,3.0,1.0,0.0,1650848987236220.0
0.0,0.0,-3.0,-2.0,1.0,-1.0,-2.0,-2.0,1650848987236220.0
-1.0,-2.0,-3.0,-4.0,-9.0,-12.0,-4.0,-3.0,1650848987238234.0
-2.0,-2.0,-1.0,-1.0,-2.0,2.0,-1.0,-1.0,1650848987238234.0
1.0,1.0,1.0,-2.0,-10.0,-22.0,-4.0,-2.0,1650848987259235.0
1.0,1.0,-3.0,4.0,9.0,43.0,9.0,3.0,1650848987259235.0
1.0,-2.0,3.0,-1.0,13.0,10.0,2.0,0.0,1650848987260246.0
-1.0,1.0,-2.0,0.0,-2.0,4.0,-2.0,-1.0,1650848987260246.0
1.0,-2.0,-2.0,-3.0,-7.0,-20.0,-2.0,-4.0,1650848987281204.0
-2.0,-1.0,-1.0,-4.0,-22.0,-31.0,-9.0,-4.0,1650848987281204.0
-1.0,2.0,-1.0,5.0,4.0,23.0,3.0,1.0,1650848987283172.0
1.0,-1.0,-1.0,1.0,11.0,-5.0,2.0,0.0,1650848987283172.0
-1.0,0.0,1.0,2.0,5.0,20.0,2.0,2.0,1650848987296164.0
0.0,-2.0,0.0,-5.0,3.0,-9.0,-1.0,-1.0,1650848987296164.0
-2.0,0.0,-3.0,-2.0,-14.0,-11.0,-1.0,-1.0,1650848987298131.0
-2.0,0.0,-1.0,-1.0,-6.0,-3.0,-3.0,-2.0,1650848987298131.0
0.0,-2.0,0.0,0.0,-1.0,-4.0,-1.0,-2.0,1650848987319123.0
0.0,-1.0,1.0,0.0,9.0,8.0,2.0,0.0,1650848987319123.0
0.0,0.0,-3.0,-3.0,-7.0,-11.0,0.0,1.0,1650848987320080.0
-2.0,-1.0,-1.0,2.0,2.0,5.0,2.0,-3.0,1650848987320080.0
-2.0,0.0,1.0,2.0,4.0,6.0,3.0,0.0,1650848987333064.0
-2.0,0.0,-1.0,0.0,2.0,5.0,2.0,1.0,1650848987333064.0
-2.0,-2.0,1.0,-2.0,2.0,-10.0,-4.0,-1.0,1650848987340082.0
-1.0,0.0,0.0,-3.0,-1.0,1.0,0.0,1.0,1650848987340082.0
0.0,0.0,-6.0,-4.0,-3.0,-7.0,-3.0,-2.0,1650848987356884.0
-1.0,-2.0,-2.0,1.0,-4.0,-21.0,-8.0,-3.0,1650848987356884.0
0.0,1.0,-2.0,-2.0,-12.0,8.0,10.0,0.0,1650848987357796.0
3.0,0.0,2.0,5.0,26.0,58.0,9.0,2.0,1650848987357796.0
0.0,0.0,1.0,-2.0,4.0,-11.0,0.0,0.0,1650848987378932.0
-3.0,-1.0,1.0,-3.0,-2.0,-10.0,-5.0,-1.0,1650848987378932.0
-1.0,-3.0,-5.0,-1.0,-4.0,-22.0,-7.0,-3.0,1650848987380927.0
-1.0,1.0,-2.0,-1.0,-14.0,-11.0,-5.0,-1.0,1650848987380927.0
-2.0,-1.0,-1.0,-4.0,-5.0,-3.0,-1.0,0.0,1650848987393920.0
0.0,1.0,-1.0,1.0,5.0,10.0,1.0,0.0,1650848987393920.0
-1.0,-2.0,1.0,2.0,-2.0,-1.0,-3.0,-1.0,1650848987399907.0
1.0,-2.0,-2.0,-3.0,-4.0,-4.0,1.0,-2.0,1650848987399907.0
0.0,-2.0,2.0,2.0,2.0,4.0,2.0,1.0,1650848987416835.0
1.0,-1.0,0.0,1.0,-4.0,2.0,2.0,0.0,1650848987416835.0
2.0,0.0,2.0,-2.0,10.0,8.0,2.0,0.0,1650848987417829.0
-2.0,-1.0,-1.0,-5.0,-3.0,-10.0,-1.0,-3.0,1650848987417829.0
0.0,-1.0,1.0,0.0,-5.0,-1.0,0.0,0.0,1650848987438884.0
0.0,-1.0,-4.0,-2.0,-4.0,7.0,1.0,-2.0,1650848987438884.0
-3.0,2.0,-1.0,-5.0,-3.0,-15.0,-4.0,-2.0,1650848987440850.0
-2.0,-1.0,-4.0,-1.0,-3.0,-5.0,-5.0,-2.0,1650848987440850.0
-2.0,1.0,2.0,5.0,2.0,-3.0,-1.0,1.0,1650848987453216.0
3.0,1.0,7.0,1.0,12.0,38.0,13.0,2.0,1650848987453216.0
1.0,-1.0,-1.0,-2.0,3.0,-3.0,-2.0,-1.0,1650848987460200.0
0.0,-1.0,0.0,1.0,-8.0,-15.0,-4.0,-1.0,1650848987460200.0
0.0,-2.0,-3.0,-2.0,-6.0,-11.0,-5.0,-2.0,1650848987476156.0
-2.0,-2.0,-2.0,-3.0,-3.0,-14.0,-3.0,0.0,1650848987476156.0
1.0,-2.0,-1.0,-1.0,-2.0,13.0,2.0,1.0,1650848987478151.0
-1.0,0.0,2.0,2.0,0.0,-10.0,-1.0,1.0,1650848987478151.0
1.0,0.0,1.0,1.0,13.0,16.0,4.0,2.0,1650848987499124.0
-2.0,-1.0,2.0,2.0,-1.0,-7.0,-1.0,0.0,1650848987499124.0
-1.0,1.0,0.0,1.0,-9.0,0.0,0.0,1.0,1650848987500119.0
0.0,-2.0,-2.0,1.0,4.0,3.0,-1.0,2.0,1650848987500119.0
-2.0,-1.0,-4.0,-4.0,-5.0,-2.0,-2.0,-3.0,1650848987513086.0
0.0,2.0,-1.0,-1.0,5.0,2.0,-1.0,0.0,1650848987513086.0
-2.0,0.0,1.0,0.0,-7.0,-16.0,-2.0,-1.0,1650848987520046.0
1.0,-2.0,-5.0,-2.0,-5.0,1.0,0.0,0.0,1650848987520046.0
2.0,2.0,4.0,5.0,19.0,32.0,8.0,1.0,1650848987535997.0
-1.0,-2.0,-4.0,-4.0,-8.0,-12.0,-5.0,-1.0,1650848987535997.0
-2.0,-2.0,-1.0,0.0,-8.0,-27.0,-5.0,-3.0,1650848987537993.0
-1.0,0.0,-1.0,6.0,12.0,26.0,1.0,0.0,1650848987537993.0
-2.0,-3.0,-7.0,-16.0,-16.0,-26.0,-4.0,-1.0,1650848987558965.0
0.0,1.0,0.0,5.0,5.0,22.0,7.0,0.0,1650848987558965.0
1.0,0.0,0.0,1.0,1.0,1.0,-1.0,2.0,1650848987560950.0
-1.0,6.0,3.0,12.0,-6.0,-14.0,-2.0,-1.0,1650848987560950.0
-1.0,-6.0,-1.0,-3.0,-3.0,-6.0,-3.0,0.0,1650848987572970.0
0.0,7.0,-2.0,-4.0,13.0,7.0,-1.0,0.0,1650848987572970.0
-2.0,-4.0,-12.0,-3.0,-7.0,-3.0,0.0,-1.0,1650848987579908.0
-3.0,3.0,11.0,0.0,2.0,-1.0,0.0,-1.0,1650848987579908.0
1.0,6.0,-1.0,-1.0,-5.0,3.0,-1.0,-1.0,1650848987604424.0
-1.0,-5.0,1.0,-4.0,-15.0,-17.0,-2.0,-2.0,1650848987604424.0
3.0,13.0,-11.0,0.0,19.0,21.0,3.0,1.0,1650848987605438.0
-3.0,-16.0,-14.0,-9.0,-7.0,-8.0,-3.0,-1.0,1650848987605438.0
0.0,14.0,19.0,9.0,-7.0,-19.0,-2.0,-1.0,1650848987619398.0
-3.0,-11.0,-12.0,0.0,9.0,26.0,0.0,-2.0,1650848987619398.0
-3.0,-7.0,3.0,-2.0,-1.0,-11.0,0.0,-2.0,1650848987620383.0
1.0,2.0,-6.0,-4.0,2.0,11.0,3.0,1.0,1650848987620383.0
2.0,-10.0,-6.0,-3.0,3.0,10.0,0.0,-2.0,1650848987632351.0
1.0,4.0,2.0,-5.0,-4.0,-15.0,-5.0,2.0,1650848987632351.0
-2.0,-5.0,9.0,6.0,-3.0,-1.0,-2.0,0.0,1650848987641337.0
0.0,1.0,6.0,0.0,0.0,-10.0,0.0,0.0,1650848987641337.0
0.0,-1.0,-11.0,4.0,-2.0,0.0,0.0,0.0,1650848987656373.0
-1.0,3.0,0.0,2.0,-4.0,-8.0,-2.0,0.0,1650848987656373.0
-1.0,-3.0,6.0,1.0,1.0,8.0,-2.0,-3.0,1650848987658371.0
-1.0,-3.0,-4.0,-8.0,0.0,-20.0,-4.0,-1.0,1650848987658371.0
-1.0,-4.0,-11.0,4.0,2.0,29.0,6.0,0.0,1650848987679314.0
0.0,3.0,6.0,1.0,-11.0,-4.0,-1.0,0.0,1650848987679314.0
1.0,-1.0,1.0,3.0,22.0,9.0,2.0,2.0,1650848987680323.0
1.0,2.0,2.0,-4.0,-4.0,4.0,1.0,1.0,1650848987680323.0
-1.0,0.0,2.0,-4.0,-2.0,-11.0,-3.0,-2.0,1650848987692308.0
0.0,-5.0,-2.0,-2.0,-3.0,-8.0,-2.0,-2.0,1650848987692308.0
0.0,2.0,0.0,1.0,-8.0,-13.0,-4.0,-1.0,1650848987708900.0
1.0,-1.0,-4.0,0.0,5.0,14.0,0.0,0.0,1650848987708900.0
-1.0,-1.0,-5.0,-5.0,3.0,-2.0,0.0,-1.0,1650848987716872.0
0.0,0.0,3.0,8.0,5.0,0.0,-2.0,-1.0,1650848987716872.0
-4.0,-4.0,-3.0,-10.0,-9.0,-7.0,-5.0,-1.0,1650848987722884.0
2.0,2.0,4.0,6.0,-2.0,-10.0,0.0,0.0,1650848987722884.0
-2.0,-3.0,7.0,1.0,-8.0,-10.0,-4.0,-1.0,1650848987746819.0
0.0,-1.0,-4.0,8.0,17.0,24.0,8.0,2.0,1650848987746819.0
0.0,0.0,-6.0,-17.0,-6.0,-4.0,0.0,-1.0,1650848987747792.0
0.0,3.0,3.0,3.0,-5.0,0.0,1.0,-2.0,1650848987747792.0
-1.0,-1.0,1.0,2.0,-2.0,0.0,-2.0,-1.0,1650848987752778.0
0.0,1.0,14.0,3.0,4.0,-7.0,0.0,1.0,1650848987752778.0
-1.0,3.0,-12.0,-7.0,3.0,-3.0,-3.0,0.0,1650848987761754.0
-3.0,-8.0,17.0,4.0,-9.0,15.0,5.0,-1.0,1650848987761754.0
0.0,3.0,2.0,-4.0,-3.0,-5.0,-2.0,-1.0,1650848987776886.0
-2.0,0.0,-6.0,-3.0,3.0,-2.0,-2.0,-2.0,1650848987776886.0
3.0,0.0,4.0,4.0,-3.0,4.0,3.0,-1.0,1650848987777886.0
0.0,4.0,2.0,4.0,1.0,-6.0,-3.0,0.0,1650848987777886.0
1.0,-2.0,-1.0,-1.0,5.0,-4.0,-1.0,0.0,1650848987799995.0
-1.0,-5.0,-13.0,-8.0,-8.0,11.0,0.0,-2.0,1650848987799995.0
-1.0,1.0,7.0,-5.0,2.0,-1.0,-2.0,-2.0,1650848987800997.0
-1.0,-4.0,-16.0,-2.0,-3.0,-4.0,-4.0,-4.0,1650848987800997.0
-2.0,-7.0,8.0,4.0,3.0,-3.0,1.0,-1.0,1650848987812963.0
0.0,6.0,-10.0,-10.0,-8.0,-17.0,-3.0,-3.0,1650848987812963.0
0.0,3.0,-8.0,2.0,-4.0,0.0,-2.0,-1.0,1650848987821937.0
1.0,3.0,9.0,5.0,10.0,19.0,5.0,0.0,1650848987821937.0
0.0,-4.0,3.0,4.0,7.0,0.0,0.0,2.0,1650848987836897.0
0.0,1.0,1.0,-3.0,-6.0,-21.0,-5.0,-2.0,1650848987836897.0
2.0,2.0,-1.0,15.0,12.0,24.0,5.0,0.0,1650848987837894.0
2.0,-2.0,-7.0,-15.0,-9.0,-18.0,-5.0,0.0,1650848987837894.0
-2.0,-1.0,-6.0,-2.0,-8.0,5.0,-1.0,-1.0,1650848987858891.0
1.0,-4.0,2.0,0.0,7.0,-3.0,1.0,-1.0,1650848987858891.0
-1.0,0.0,4.0,-2.0,-6.0,-1.0,-1.0,0.0,1650848987864900.0
-4.0,-2.0,-10.0,-1.0,-4.0,-11.0,-3.0,1.0,1650848987864900.0
1.0,3.0,1.0,11.0,8.0,-2.0,0.0,1.0,1650848987872432.0
0.0,-1.0,-1.0,-3.0,-14.0,-15.0,3.0,0.0,1650848987872432.0
0.0,-5.0,-5.0,0.0,3.0,14.0,-1.0,1.0,1650848987881342.0
1.0,-1.0,2.0,-2.0,-6.0,7.0,2.0,-1.0,1650848987881342.0
1.0,2.0,-2.0,-1.0,2.0,-11.0,-4.0,0.0,1650848987896327.0
1.0,-2.0,2.0,3.0,5.0,7.0,0.0,0.0,1650848987896327.0
-2.0,-5.0,-1.0,-3.0,-7.0,-23.0,-2.0,-2.0,1650848987898294.0
0.0,-1.0,-4.0,-5.0,-1.0,-5.0,-3.0,-1.0,1650848987898294.0
0.0,0.0,-5.0,2.0,-1.0,31.0,5.0,2.0,1650848987919238.0
0.0,1.0,5.0,-1.0,-4.0,-4.0,-3.0,-3.0,1650848987919238.0
0.0,0.0,7.0,1.0,6.0,-3.0,-1.0,0.0,1650848987920236.0
-2.0,0.0,-9.0,-2.0,-2.0,-7.0,-2.0,0.0,1650848987920236.0
-2.0,0.0,-3.0,0.0,1.0,-4.0,0.0,0.0,1650848987932231.0
-4.0,-7.0,15.0,1.0,-2.0,6.0,-1.0,0.0,1650848987932231.0
-1.0,0.0,-3.0,-3.0,-11.0,-5.0,-1.0,-1.0,1650848987941267.0
-1.0,0.0,-8.0,3.0,11.0,9.0,0.0,0.0,1650848987941267.0
-2.0,1.0,0.0,-4.0,1.0,-4.0,0.0,-3.0,1650848987956917.0
0.0,-2.0,-2.0,1.0,-1.0,3.0,1.0,1.0,1650848987956917.0
-1.0,0.0,3.0,-2.0,-3.0,-2.0,0.0,0.0,1650848987957916.0
0.0,-1.0,-3.0,-4.0,4.0,-4.0,-2.0,0.0,1650848987957916.0
0.0,-2.0,-1.0,0.0,-5.0,-11.0,-5.0,0.0,1650848987978977.0
0.0,1.0,-1.0,0.0,-1.0,29.0,8.0,1.0,1650848987978977.0
1.0,-1.0,-2.0,1.0,2.0,1.0,3.0,2.0,1650848987980942.0
-1.0,-1.0,2.0,0.0,3.0,-7.0,-1.0,0.0,1650848987980942.0
-1.0,0.0,2.0,-6.0,-4.0,-12.0,-2.0,-2.0,1650848987992940.0
0.0,0.0,-6.0,-1.0,6.0,8.0,-4.0,-1.0,1650848987992940.0
0.0,-3.0,-1.0,-3.0,-14.0,0.0,-1.0,-2.0,1650848988001914.0
0.0,2.0,-1.0,4.0,9.0,1.0,3.0,-1.0,1650848988001914.0
-3.0,-1.0,4.0,0.0,-2.0,-4.0,-2.0,-1.0,1650848988023895.0
-4.0,-1.0,2.0,4.0,-4.0,-11.0,-4.0,-2.0,1650848988023895.0
0.0,-3.0,-5.0,0.0,4.0,4.0,3.0,-1.0,1650848988025850.0
-1.0,0.0,7.0,0.0,-5.0,-3.0,-1.0,-1.0,1650848988025850.0
-4.0,0.0,-2.0,1.0,2.0,9.0,2.0,-1.0,1650848988038856.0
-8.0,-3.0,-11.0,-17.0,-4.0,-4.0,-2.0,0.0,1650848988038856.0
-3.0,-1.0,8.0,9.0,-10.0,-16.0,0.0,-1.0,1650848988040809.0
4.0,4.0,4.0,6.0,17.0,22.0,0.0,-1.0,1650848988040809.0
-1.0,-2.0,-1.0,5.0,-1.0,1.0,-4.0,-1.0,1650848988052750.0
2.0,1.0,-6.0,-1.0,9.0,10.0,8.0,2.0,1650848988052750.0
-2.0,0.0,5.0,-6.0,-8.0,-10.0,-4.0,-1.0,1650848988061726.0
23.0,0.0,-1.0,-3.0,-1.0,-12.0,-3.0,0.0,1650848988061726.0
-20.0,-3.0,-15.0,-12.0,0.0,10.0,-1.0,-6.0,1650848988076817.0
-25.0,-7.0,9.0,0.0,-13.0,-19.0,-5.0,0.0,1650848988076817.0
3.0,4.0,7.0,18.0,8.0,20.0,25.0,8.0,1650848988077817.0
11.0,-4.0,3.0,2.0,3.0,-4.0,0.0,-1.0,1650848988077817.0
-1.0,-3.0,-9.0,-8.0,-4.0,-5.0,1.0,-4.0,1650848988098789.0
7.0,-3.0,-6.0,-7.0,-3.0,-11.0,-10.0,-2.0,1650848988098789.0
-6.0,1.0,2.0,-4.0,3.0,3.0,-7.0,-4.0,1650848988100754.0
-13.0,-2.0,-1.0,-3.0,-7.0,8.0,2.0,0.0,1650848988100754.0
14.0,-1.0,2.0,-4.0,-2.0,-6.0,-1.0,3.0,1650848988128913.0
2.0,3.0,-3.0,8.0,8.0,4.0,1.0,-1.0,1650848988128913.0
4.0,-2.0,-5.0,-4.0,5.0,5.0,-3.0,0.0,1650848988130861.0
-5.0,0.0,-2.0,-2.0,-7.0,-3.0,-1.0,-2.0,1650848988130861.0
2.0,1.0,-3.0,2.0,8.0,3.0,-1.0,-1.0,1650848988143873.0
6.0,2.0,0.0,7.0,-2.0,-13.0,1.0,-2.0,1650848988143873.0
-6.0,-4.0,0.0,-10.0,-3.0,-1.0,-5.0,-1.0,1650848988145827.0
1.0,3.0,-2.0,-8.0,-12.0,-12.0,-4.0,-2.0,1650848988145827.0
-5.0,-8.0,-4.0,-6.0,1.0,23.0,5.0,0.0,1650848988158833.0
-3.0,-7.0,-5.0,2.0,-3.0,-12.0,-2.0,-2.0,1650848988158833.0
10.0,5.0,9.0,16.0,15.0,6.0,-1.0,0.0,1650848988160787.0
-9.0,0.0,7.0,-12.0,-12.0,-17.0,-5.0,-3.0,1650848988160787.0
15.0,6.0,7.0,11.0,0.0,4.0,0.0,3.0,1650848988181701.0
17.0,2.0,4.0,-4.0,1.0,1.0,1.0,2.0,1650848988181701.0
-3.0,-2.0,-11.0,-3.0,-2.0,0.0,-3.0,-1.0,1650848988182676.0
16.0,9.0,11.0,6.0,11.0,5.0,3.0,4.0,1650848988182676.0
-11.0,-2.0,-12.0,-4.0,-12.0,-28.0,-5.0,-5.0,1650848988195636.0
-15.0,-12.0,19.0,-3.0,-3.0,21.0,2.0,2.0,1650848988195636.0
5.0,3.0,-23.0,-6.0,3.0,6.0,9.0,1.0,1650848988202646.0
-7.0,-1.0,11.0,-1.0,-2.0,-1.0,0.0,1.0,1650848988202646.0
15.0,2.0,6.0,6.0,-2.0,-3.0,1.0,2.0,1650848988218604.0
-3.0,2.0,-10.0,4.0,1.0,-9.0,-4.0,-3.0,1650848988218604.0
2.0,-5.0,15.0,2.0,2.0,-8.0,-7.0,-2.0,1650848988220570.0
12.0,-4.0,-3.0,-10.0,-5.0,9.0,3.0,-2.0,1650848988220570.0
-44.0,2.0,-1.0,-5.0,-6.0,-19.0,-4.0,-4.0,1650848988241515.0
11.0,-1.0,-19.0,0.0,4.0,20.0,6.0,0.0,1650848988241515.0
-6.0,-2.0,0.0,-5.0,-2.0,-13.0,-2.0,-2.0,1650848988243520.0
2.0,1.0,-6.0,6.0,11.0,23.0,-1.0,0.0,1650848988243520.0
15.0,1.0,24.0,4.0,-10.0,-22.0,-2.0,2.0,1650848988256233.0
-4.0,2.0,12.0,3.0,9.0,21.0,1.0,0.0,1650848988256233.0
-1.0,1.0,-3.0,2.0,3.0,-1.0,-1.0,-2.0,1650848988262838.0
-5.0,-2.0,-9.0,-3.0,-6.0,-7.0,-2.0,1.0,1650848988262838.0
-19.0,-6.0,-11.0,-4.0,-12.0,-4.0,-1.0,-3.0,1650848988278818.0
-19.0,-2.0,-12.0,-1.0,-4.0,-7.0,-2.0,-3.0,1650848988278818.0
5.0,-2.0,0.0,4.0,1.0,-7.0,-5.0,-1.0,1650848988280786.0
-11.0,-2.0,4.0,-11.0,-7.0,10.0,4.0,0.0,1650848988280786.0
8.0,4.0,1.0,-2.0,12.0,19.0,3.0,3.0,1650848988301839.0
28.0,1.0,1.0,-1.0,-6.0,-11.0,6.0,-1.0,1650848988301839.0
-7.0,1.0,13.0,0.0,-1.0,-1.0,-3.0,-4.0,1650848988302837.0
42.0,7.0,-4.0,8.0,-1.0,-10.0,5.0,6.0,1650848988302837.0
-3.0,-7.0,-2.0,4.0,1.0,6.0,-4.0,-3.0,1650848988315831.0
10.0,-6.0,3.0,8.0,-3.0,-9.0,-5.0,2.0,1650848988315831.0
-28.0,-2.0,2.0,-13.0,1.0,-3.0,-9.0,-10.0,1650848988322851.0
2.0,-3.0,-5.0,6.0,1.0,8.0,7.0,-1.0,1650848988322851.0
-7.0,2.0,14.0,-1.0,0.0,0.0,-1.0,-5.0,1650848988338808.0
56.0,1.0,-6.0,9.0,4.0,-10.0,-11.0,6.0,1650848988338808.0
-21.0,-10.0,-4.0,-11.0,-3.0,9.0,15.0,7.0,1650848988340762.0
-4.0,-2.0,-31.0,-7.0,-10.0,-22.0,-10.0,-8.0,1650848988340762.0
-1.0,1.0,4.0,4.0,6.0,21.0,11.0,-4.0,1650848988361679.0
-5.0,1.0,-5.0,-9.0,5.0,6.0,-5.0,0.0,1650848988361679.0
2.0,-4.0,6.0,8.0,-7.0,-5.0,-7.0,-1.0,1650848988362676.0
-6.0,-1.0,14.0,3.0,-3.0,-8.0,-2.0,3.0,1650848988362676.0
0.0,-9.0,-25.0,-7.0,-4.0,-13.0,-3.0,0.0,1650848988375449.0
-15.0,4.0,10.0,-7.0,1.0,-4.0,-2.0,-4.0,1650848988375449.0
18.0,1.0,-23.0,-2.0,-7.0,2.0,1.0,3.0,1650848988382432.0
-24.0,-3.0,13.0,4.0,1.0,4.0,-1.0,-6.0,1650848988382432.0
-30.0,1.0,-9.0,-2.0,0.0,-3.0,-3.0,0.0,1650848988399387.0
-5.0,0.0,1.0,-3.0,4.0,4.0,3.0,1.0,1650848988399387.0
13.0,5.0,8.0,2.0,-6.0,-3.0,-1.0,2.0,1650848988400390.0
-15.0,-3.0,-9.0,-1.0,2.0,12.0,0.0,-4.0,1650848988400390.0
43.0,1.0,0.0,-6.0,-10.0,-7.0,-3.0,3.0,1650848988421329.0
-6.0,1.0,4.0,7.0,16.0,8.0,4.0,0.0,1650848988421329.0
3.0,-2.0,-4.0,-5.0,-6.0,-7.0,-2.0,-2.0,1650848988423323.0
-6.0,-3.0,-25.0,-9.0,-7.0,-5.0,-4.0,-1.0,1650848988423323.0
13.0,4.0,27.0,10.0,10.0,6.0,2.0,1.0,1650848988435319.0
-11.0,8.0,-8.0,-7.0,-7.0,-11.0,-1.0,-2.0,1650848988435319.0
4.0,-4.0,-3.0,-5.0,0.0,5.0,-2.0,0.0,1650848988442275.0
4.0,-3.0,5.0,6.0,-6.0,-31.0,-4.0,0.0,1650848988442275.0
-12.0,-1.0,5.0,-7.0,5.0,40.0,4.0,1.0,1650848988459249.0
-12.0,-4.0,-16.0,-4.0,-1.0,-3.0,8.0,0.0,1650848988459249.0
-8.0,2.0,12.0,20.0,9.0,3.0,-2.0,-2.0,1650848988460247.0
1.0,1.0,3.0,-5.0,-1.0,0.0,-1.0,4.0,1650848988460247.0
15.0,-5.0,-20.0,1.0,-7.0,-20.0,-4.0,2.0,1650848988481267.0
-17.0,0.0,4.0,-7.0,-10.0,-1.0,-3.0,-3.0,1650848988481267.0
11.0,5.0,-8.0,-9.0,0.0,5.0,1.0,0.0,1650848988483275.0
-8.0,-3.0,18.0,10.0,2.0,-3.0,1.0,0.0,1650848988483275.0
13.0,0.0,1.0,-2.0,5.0,-1.0,0.0,3.0,1650848988496241.0
6.0,6.0,-12.0,1.0,-6.0,1.0,-1.0,1.0,1650848988496241.0
3.0,0.0,7.0,3.0,0.0,0.0,1.0,0.0,1650848988504195.0
-22.0,-2.0,2.0,-7.0,10.0,11.0,-2.0,1.0,1650848988504195.0
-11.0,-1.0,-10.0,-10.0,-11.0,-6.0,-3.0,-5.0,1650848988519244.0
5.0,-4.0,5.0,11.0,0.0,1.0,1.0,1.0,1650848988519244.0
-11.0,3.0,-2.0,-9.0,0.0,-5.0,-3.0,-2.0,1650848988520242.0
11.0,0.0,0.0,5.0,2.0,5.0,0.0,0.0,1650848988520242.0
6.0,1.0,-1.0,0.0,-4.0,-2.0,0.0,2.0,1650848988541219.0
-4.0,-1.0,-2.0,-5.0,-2.0,-12.0,-5.0,-2.0,1650848988541219.0
5.0,-2.0,9.0,7.0,4.0,2.0,-1.0,-1.0,1650848988543217.0
-10.0,-6.0,-25.0,-15.0,-12.0,-7.0,-2.0,-3.0,1650848988543217.0
1.0,3.0,3.0,21.0,6.0,28.0,6.0,3.0,1650848988556187.0
-3.0,-4.0,7.0,-3.0,15.0,5.0,-1.0,-1.0,1650848988556187.0
1.0,-3.0,-7.0,-8.0,-6.0,-4.0,0.0,1.0,1650848988562130.0
-1.0,3.0,4.0,-4.0,-4.0,-5.0,-1.0,2.0,1650848988562130.0
-7.0,-4.0,-16.0,-6.0,-12.0,-24.0,-6.0,-1.0,1650848988579118.0
4.0,4.0,7.0,6.0,-6.0,-13.0,-3.0,-2.0,1650848988579118.0
-1.0,-2.0,-1.0,-3.0,6.0,23.0,2.0,1.0,1650848988580102.0
-2.0,-1.0,-10.0,4.0,3.0,8.0,0.0,-2.0,1650848988580102.0
-1.0,1.0,5.0,-10.0,-3.0,-6.0,0.0,0.0,1650848988601025.0
-3.0,-1.0,3.0,-3.0,-4.0,-5.0,-2.0,-2.0,1650848988601025.0
0.0,-1.0,-4.0,0.0,-11.0,-14.0,-2.0,-2.0,1650848988603020.0
-11.0,-3.0,3.0,1.0,8.0,4.0,-1.0,1.0,1650848988603020.0
6.0,2.0,12.0,15.0,5.0,0.0,1.0,1.0,1650848988615025.0
0.0,-5.0,-8.0,-11.0,-8.0,1.0,-1.0,-1.0,1650848988615025.0
9.0,-5.0,-19.0,-2.0,2.0,-2.0,-1.0,1.0,1650848988623707.0
-43.0,-2.0,-5.0,-6.0,-6.0,-10.0,-1.0,-6.0,1650848988623707.0
2.0,1.0,-4.0,1.0,4.0,12.0,1.0,0.0,1650848988638677.0
0.0,1.0,9.0,-4.0,-9.0,-4.0,3.0,0.0,1650848988638677.0
9.0,1.0,-1.0,-1.0,7.0,6.0,1.0,1.0,1650848988640686.0
13.0,0.0,7.0,-2.0,3.0,3.0,1.0,1.0,1650848988640686.0
1.0,-1.0,3.0,1.0,-1.0,-10.0,-4.0,-3.0,1650848988661646.0
-10.0,-3.0,-2.0,-4.0,-13.0,-18.0,-4.0,-5.0,1650848988661646.0
-6.0,-1.0,-2.0,12.0,7.0,21.0,1.0,-1.0,1650848988663625.0
10.0,1.0,-1.0,-8.0,-6.0,-6.0,-1.0,-1.0,1650848988663625.0
-5.0,-2.0,3.0,2.0,4.0,4.0,0.0,1.0,1650848988675571.0
13.0,2.0,1.0,5.0,9.0,14.0,3.0,4.0,1650848988675571.0
-6.0,2.0,2.0,-10.0,-7.0,-10.0,-2.0,0.0,1650848988683551.0
5.0,-1.0,7.0,16.0,0.0,-2.0,-3.0,-2.0,1650848988683551.0
0.0,-2.0,-7.0,-8.0,-7.0,-11.0,-3.0,0.0,1650848988698544.0
-3.0,0.0,3.0,2.0,2.0,4.0,-1.0,0.0,1650848988698544.0
0.0,0.0,4.0,1.0,5.0,4.0,0.0,0.0,1650848988700518.0
-6.0,-1.0,-5.0,-7.0,-5.0,3.0,-1.0,-3.0,1650848988700518.0
1.0,0.0,2.0,-1.0,-6.0,-7.0,0.0,-3.0,1650848988721461.0
1.0,2.0,-3.0,-1.0,6.0,9.0,1.0,0.0,1650848988721461.0
-4.0,3.0,9.0,1.0,0.0,-1.0,2.0,1.0,1650848988723444.0
9.0,-2.0,0.0,2.0,2.0,2.0,0.0,0.0,1650848988723444.0
-1.0,-3.0,-8.0,-3.0,0.0,0.0,0.0,0.0,1650848988735440.0
-5.0,0.0,0.0,-3.0,-5.0,-19.0,-6.0,-2.0,1650848988735440.0
1.0,-1.0,-4.0,1.0,-7.0,-1.0,-3.0,0.0,1650848988744409.0
5.0,2.0,-2.0,3.0,10.0,8.0,3.0,1.0,1650848988744409.0
-2.0,1.0,-1.0,-2.0,-1.0,9.0,2.0,-1.0,1650848988758904.0
39.0,2.0,2.0,4.0,11.0,13.0,5.0,2.0,1650848988758904.0
-16.0,-7.0,-2.0,-2.0,-6.0,-16.0,-5.0,-2.0,1650848988760880.0
8.0,2.0,5.0,5.0,0.0,-4.0,-2.0,0.0,1650848988760880.0
-4.0,-3.0,-4.0,-9.0,-4.0,-12.0,-4.0,-3.0,1650848988781816.0
4.0,-1.0,-4.0,-1.0,-5.0,-4.0,-5.0,-1.0,1650848988781816.0
2.0,4.0,6.0,2.0,7.0,19.0,7.0,2.0,1650848988782802.0
1.0,0.0,2.0,9.0,8.0,4.0,1.0,-2.0,1650848988782802.0
5.0,0.0,-2.0,-5.0,-1.0,-1.0,-1.0,-1.0,1650848988794803.0
-13.0,-2.0,6.0,5.0,-8.0,-5.0,-1.0,-1.0,1650848988794803.0
0.0,-1.0,-10.0,-5.0,-5.0,-11.0,-2.0,0.0,1650848988803745.0
-5.0,0.0,0.0,1.0,0.0,11.0,2.0,0.0,1650848988803745.0
0.0,0.0,4.0,3.0,6.0,-1.0,0.0,2.0,1650848988818725.0
-11.0,-2.0,-5.0,-6.0,-5.0,1.0,-1.0,1.0,1650848988818725.0
-3.0,-3.0,-6.0,-9.0,-9.0,-15.0,-4.0,-3.0,1650848988820707.0
8.0,-3.0,-3.0,11.0,3.0,11.0,-3.0,-1.0,1650848988820707.0
-2.0,5.0,11.0,6.0,3.0,3.0,3.0,3.0,1650848988841677.0
-6.0,-2.0,-5.0,-5.0,0.0,0.0,-1.0,-1.0,1650848988841677.0
2.0,0.0,1.0,-2.0,3.0,4.0,2.0,-1.0,1650848988842650.0
-2.0,-4.0,-4.0,-14.0,-18.0,-43.0,-8.0,-2.0,1650848988842650.0
0.0,1.0,2.0,0.0,10.0,36.0,4.0,0.0,1650848988854609.0
-7.0,3.0,-1.0,1.0,-1.0,18.0,4.0,-1.0,1650848988854609.0
9.0,-4.0,1.0,8.0,-4.0,-12.0,-4.0,1.0,1650848988863731.0
2.0,4.0,1.0,-3.0,2.0,4.0,-1.0,0.0,1650848988863731.0
-2.0,-4.0,-6.0,-7.0,-3.0,-23.0,-6.0,-3.0,1650848988878703.0
1.0,2.0,5.0,-2.0,-6.0,-3.0,0.0,-1.0,1650848988878703.0
0.0,1.0,2.0,6.0,11.0,20.0,4.0,1.0,1650848988878703.0
-1.0,-2.0,-4.0,1.0,0.0,-2.0,1.0,1.0,1650848988878703.0
1.0,1.0,4.0,-4.0,2.0,-5.0,0.0,-1.0,1650848988900724.0
-5.0,-1.0,-8.0,-2.0,-1.0,-3.0,-1.0,-2.0,1650848988900724.0
-2.0,0.0,-1.0,-5.0,-2.0,-8.0,-2.0,-3.0,1650848988901702.0
1.0,-2.0,4.0,6.0,-4.0,5.0,2.0,-2.0,1650848988901702.0
-4.0,-1.0,5.0,3.0,-4.0,-6.0,-4.0,-2.0,1650848988923657.0
-1.0,-2.0,3.0,5.0,3.0,-9.0,-1.0,0.0,1650848988923657.0
-2.0,1.0,-1.0,-7.0,6.0,30.0,2.0,-1.0,1650848988923657.0
3.0,2.0,2.0,-1.0,4.0,4.0,4.0,1.0,1650848988923657.0
0.0,-1.0,-9.0,-1.0,-3.0,-7.0,1.0,-1.0,1650848988938604.0
-8.0,-3.0,10.0,7.0,4.0,-10.0,-3.0,-2.0,1650848988938604.0
-1.0,-2.0,-2.0,-4.0,-9.0,-24.0,-8.0,-2.0,1650848988938604.0
1.0,0.0,4.0,-1.0,-3.0,28.0,6.0,0.0,1650848988938604.0
-1.0,-3.0,-12.0,0.0,5.0,1.0,0.0,-1.0,1650848988960583.0
0.0,0.0,1.0,0.0,-6.0,-5.0,-2.0,-2.0,1650848988960583.0
-1.0,-1.0,-3.0,0.0,1.0,-4.0,1.0,1.0,1650848988961541.0
-5.0,-4.0,-3.0,-4.0,3.0,-1.0,-3.0,-1.0,1650848988961541.0
5.0,7.0,11.0,2.0,-5.0,-2.0,2.0,1.0,1650848988983577.0
-1.0,-3.0,-9.0,-6.0,3.0,5.0,1.0,-1.0,1650848988983577.0
1.0,-1.0,4.0,8.0,-5.0,1.0,0.0,0.0,1650848988983577.0
0.0,1.0,5.0,5.0,-3.0,-8.0,0.0,-1.0,1650848988983577.0
-3.0,-2.0,5.0,-1.0,0.0,-10.0,-5.0,-1.0,1650848988998559.0
-2.0,0.0,-12.0,1.0,0.0,17.0,1.0,0.0,1650848988998559.0
-1.0,0.0,0.0,-3.0,0.0,-11.0,0.0,0.0,1650848988998559.0
-1.0,-1.0,-7.0,-4.0,-6.0,-8.0,-2.0,-2.0,1650848988998559.0
1.0,-1.0,-4.0,0.0,7.0,19.0,6.0,1.0,1650848989020502.0
0.0,0.0,6.0,4.0,-2.0,-10.0,-2.0,-1.0,1650848989020502.0
-2.0,-2.0,6.0,1.0,1.0,10.0,-1.0,-2.0,1650848989021479.0
1.0,2.0,-8.0,-7.0,-1.0,-6.0,-1.0,-1.0,1650848989021479.0
0.0,-3.0,-2.0,1.0,4.0,0.0,0.0,0.0,1650848989043453.0
-2.0,0.0,-2.0,0.0,0.0,-1.0,-1.0,-1.0,1650848989043453.0
-2.0,0.0,-2.0,-2.0,-2.0,-4.0,0.0,0.0,1650848989044437.0
-1.0,-1.0,1.0,1.0,3.0,-1.0,-2.0,0.0,1650848989044437.0
-2.0,-1.0,-8.0,-4.0,-8.0,-4.0,-2.0,-2.0,1650848989058379.0
-2.0,-5.0,0.0,0.0,0.0,0.0,-2.0,-2.0,1650848989058379.0
1.0,0.0,-4.0,-4.0,-2.0,-12.0,-3.0,0.0,1650848989059400.0
1.0,1.0,-1.0,-1.0,-8.0,5.0,4.0,2.0,1650848989059400.0
-4.0,-2.0,10.0,14.0,12.0,27.0,3.0,1.0,1650848989080348.0
2.0,0.0,-9.0,-10.0,0.0,1.0,2.0,2.0,1650848989080348.0
-3.0,0.0,0.0,6.0,2.0,-4.0,-1.0,-1.0,1650848989081318.0
1.0,0.0,3.0,-10.0,-7.0,-18.0,-3.0,-2.0,1650848989081318.0
0.0,-3.0,-5.0,-3.0,-4.0,-8.0,-3.0,-2.0,1650848989103379.0
0.0,0.0,1.0,2.0,-4.0,1.0,0.0,0.0,1650848989103379.0
-3.0,1.0,4.0,-2.0,-8.0,-9.0,-1.0,-1.0,1650848989104398.0
-1.0,-3.0,-8.0,5.0,18.0,16.0,3.0,1.0,1650848989104398.0
0.0,2.0,3.0,1.0,5.0,7.0,4.0,2.0,1650848989118367.0
0.0,3.0,-4.0,-3.0,1.0,0.0,-1.0,0.0,1650848989118367.0
-1.0,-2.0,-5.0,-3.0,-7.0,-10.0,-2.0,-2.0,1650848989119358.0
0.0,2.0,10.0,3.0,-1.0,-4.0,-4.0,-1.0,1650848989119358.0
-1.0,5.0,-1.0,-2.0,-10.0,-7.0,-2.0,0.0,1650848989140350.0
0.0,-5.0,4.0,-1.0,4.0,1.0,0.0,-1.0,1650848989140350.0
0.0,5.0,-2.0,3.0,4.0,7.0,0.0,-1.0,1650848989141278.0
0.0,-7.0,1.0,1.0,-3.0,4.0,-2.0,-1.0,1650848989141278.0
-3.0,-1.0,-10.0,-15.0,-2.0,-8.0,-4.0,-4.0,1650848989163247.0
0.0,-2.0,-6.0,-4.0,-13.0,-15.0,-4.0,-1.0,1650848989163247.0
-1.0,5.0,6.0,4.0,-1.0,5.0,8.0,1.0,1650848989164218.0
-1.0,2.0,1.0,5.0,19.0,26.0,0.0,1.0,1650848989164218.0
2.0,-4.0,11.0,5.0,-6.0,-6.0,2.0,0.0,1650848989178180.0
-1.0,-1.0,-2.0,-2.0,7.0,-5.0,-3.0,-2.0,1650848989178180.0
0.0,-6.0,-1.0,1.0,-5.0,-3.0,-4.0,0.0,1650848989179177.0
-2.0,3.0,-5.0,-3.0,-12.0,-23.0,-4.0,-1.0,1650848989179177.0
2.0,-1.0,-5.0,1.0,5.0,-2.0,-1.0,0.0,1650848989201118.0
-1.0,2.0,7.0,3.0,-1.0,11.0,1.0,-2.0,1650848989201118.0
0.0,-3.0,-10.0,-11.0,4.0,17.0,3.0,2.0,1650848989201118.0
-3.0,1.0,6.0,3.0,0.0,-7.0,0.0,-3.0,1650848989201118.0
0.0,1.0,6.0,-1.0,-8.0,-6.0,-2.0,-3.0,1650848989223060.0
0.0,0.0,-10.0,-4.0,0.0,-7.0,0.0,-1.0,1650848989223060.0
0.0,-2.0,7.0,4.0,0.0,-3.0,0.0,-1.0,1650848989224058.0
1.0,2.0,-5.0,-5.0,0.0,2.0,0.0,-1.0,1650848989224058.0
-4.0,-7.0,-7.0,-5.0,-13.0,-6.0,0.0,-3.0,1650848989238048.0
1.0,1.0,8.0,11.0,7.0,5.0,0.0,0.0,1650848989238048.0
1.0,-4.0,-3.0,-18.0,6.0,2.0,0.0,-1.0,1650848989239018.0
-1.0,4.0,7.0,13.0,0.0,-16.0,-4.0,-1.0,1650848989239018.0
-1.0,1.0,2.0,-1.0,0.0,26.0,11.0,1.0,1650848989260986.0
-3.0,-3.0,-11.0,-8.0,-13.0,-8.0,-1.0,0.0,1650848989260986.0
1.0,-4.0,-1.0,11.0,25.0,19.0,2.0,2.0,1650848989261976.0
1.0,0.0,1.0,-11.0,-11.0,-19.0,-2.0,-1.0,1650848989261976.0
-1.0,-3.0,1.0,-7.0,-3.0,-14.0,-6.0,-2.0,1650848989282900.0
0.0,-1.0,-7.0,1.0,-8.0,-3.0,1.0,-1.0,1650848989282900.0
-1.0,2.0,0.0,-1.0,-7.0,-12.0,-3.0,-3.0,1650848989283897.0
1.0,-1.0,0.0,-3.0,6.0,32.0,5.0,2.0,1650848989283897.0
2.0,1.0,-2.0,1.0,4.0,-9.0,-3.0,-1.0,1650848989297890.0
0.0,1.0,8.0,3.0,3.0,6.0,3.0,0.0,1650848989297890.0
-2.0,2.0,2.0,-5.0,-10.0,-16.0,-4.0,-2.0,1650848989298858.0
-2.0,-5.0,-5.0,0.0,-2.0,-2.0,-1.0,-1.0,1650848989298858.0
-2.0,0.0,-3.0,2.0,-7.0,3.0,-1.0,-1.0,1650848989320825.0
-1.0,-3.0,-8.0,0.0,11.0,3.0,0.0,-1.0,1650848989320825.0
-1.0,-3.0,-2.0,-6.0,-8.0,-6.0,-2.0,-1.0,1650848989321796.0
-2.0,-7.0,4.0,0.0,6.0,13.0,3.0,-1.0,1650848989321796.0
0.0,4.0,-1.0,2.0,0.0,-6.0,-2.0,0.0,1650848989343736.0
2.0,-1.0,6.0,-4.0,1.0,1.0,-2.0,0.0,1650848989343736.0
-1.0,-2.0,-6.0,2.0,-13.0,-10.0,-4.0,-1.0,1650848989343736.0
0.0,0.0,-3.0,1.0,-2.0,-5.0,-2.0,0.0,1650848989343736.0
0.0,-7.0,-6.0,-1.0,10.0,24.0,7.0,2.0,1650848989359695.0
-1.0,4.0,1.0,2.0,5.0,-4.0,0.0,0.0,1650848989359695.0
-2.0,0.0,-2.0,0.0,-10.0,5.0,-3.0,-4.0,1650848989360692.0
0.0,1.0,-3.0,-5.0,-4.0,-12.0,1.0,-1.0,1650848989360692.0
0.0,-2.0,0.0,-8.0,-11.0,-25.0,-6.0,-2.0,1650848989380667.0
-1.0,3.0,2.0,7.0,6.0,19.0,2.0,2.0,1650848989380667.0
1.0,2.0,7.0,9.0,12.0,0.0,4.0,2.0,1650848989381636.0
0.0,-2.0,-2.0,-7.0,-1.0,-1.0,-3.0,0.0,1650848989381636.0
-3.0,4.0,-1.0,3.0,-10.0,-12.0,-4.0,-2.0,1650848989402606.0
1.0,-1.0,1.0,2.0,1.0,7.0,2.0,-1.0,1650848989402606.0
1.0,2.0,-1.0,5.0,14.0,8.0,0.0,2.0,1650848989410623.0
0.0,6.0,4.0,3.0,1.0,7.0,1.0,-1.0,1650848989410623.0
-1.0,-1.0,-1.0,-4.0,-1.0,-10.0,-4.0,-1.0,1650848989418564.0
0.0,-2.0,3.0,-6.0,-13.0,-13.0,-1.0,-1.0,1650848989418564.0
0.0,2.0,2.0,6.0,6.0,3.0,0.0,-2.0,1650848989418564.0
-3.0,-4.0,-16.0,-6.0,-3.0,-7.0,-1.0,0.0,1650848989418564.0
-2.0,0.0,4.0,4.0,3.0,20.0,8.0,1.0,1650848989440478.0
0.0,-2.0,-2.0,-2.0,0.0,-6.0,-4.0,1.0,1650848989440478.0
-2.0,-4.0,-15.0,-3.0,-10.0,14.0,4.0,-1.0,1650848989441476.0
-1.0,5.0,8.0,1.0,6.0,-16.0,-3.0,0.0,1650848989441476.0
-1.0,-1.0,1.0,6.0,3.0,-9.0,-4.0,-1.0,1650848989463444.0
-2.0,-1.0,6.0,-3.0,4.0,2.0,1.0,0.0,1650848989463444.0
1.0,4.0,3.0,0.0,1.0,12.0,2.0,-1.0,1650848989464414.0
-1.0,-8.0,-11.0,-5.0,-8.0,-4.0,-4.0,-2.0,1650848989464414.0
-1.0,3.0,-1.0,-3.0,-7.0,4.0,-1.0,-1.0,1650848989477960.0
1.0,1.0,2.0,9.0,14.0,2.0,-1.0,0.0,1650848989477960.0
-1.0,-1.0,0.0,-7.0,-12.0,-13.0,-4.0,1.0,1650848989485898.0
-1.0,-3.0,-2.0,3.0,-2.0,-1.0,0.0,-2.0,1650848989485898.0
-1.0,-3.0,-1.0,-5.0,11.0,9.0,2.0,-1.0,1650848989500859.0
1.0,4.0,-5.0,-2.0,-11.0,-7.0,0.0,-3.0,1650848989500859.0
-2.0,-6.0,1.0,1.0,2.0,-2.0,0.0,0.0,1650848989501855.0
1.0,0.0,-2.0,-1.0,-5.0,4.0,1.0,-1.0,1650848989501855.0
-1.0,0.0,0.0,6.0,1.0,-10.0,-4.0,1.0,1650848989523778.0
-3.0,-5.0,-3.0,-6.0,-11.0,-12.0,-5.0,-3.0,1650848989523778.0
0.0,-2.0,1.0,8.0,15.0,22.0,5.0,1.0,1650848989530778.0
0.0,4.0,7.0,-4.0,-3.0,2.0,1.0,1.0,1650848989530778.0
2.0,0.0,2.0,3.0,-3.0,-7.0,-7.0,-2.0,1650848989538729.0
2.0,-2.0,-6.0,2.0,7.0,22.0,3.0,1.0,1650848989538729.0
-2.0,-1.0,-1.0,-8.0,-9.0,-20.0,-7.0,-2.0,1650848989538729.0
-2.0,-2.0,3.0,-3.0,-7.0,-15.0,-5.0,-2.0,1650848989538729.0
1.0,1.0,-9.0,-6.0,-7.0,6.0,4.0,1.0,1650848989560732.0
-1.0,-3.0,5.0,10.0,15.0,22.0,2.0,-2.0,1650848989560732.0
1.0,-3.0,-2.0,-5.0,-4.0,-8.0,-1.0,-2.0,1650848989561667.0
1.0,1.0,-2.0,-4.0,-5.0,0.0,-1.0,-1.0,1650848989561667.0
-2.0,-5.0,3.0,-1.0,-2.0,-18.0,-6.0,-1.0,1650848989582911.0
0.0,0.0,-4.0,-5.0,-2.0,-2.0,-2.0,1.0,1650848989582911.0
1.0,1.0,-2.0,4.0,-3.0,1.0,1.0,1.0,1650848989583879.0
-1.0,-2.0,2.0,-3.0,-1.0,-13.0,-2.0,-3.0,1650848989583879.0
1.0,1.0,3.0,4.0,10.0,20.0,-2.0,-1.0,1650848989597968.0
-2.0,-2.0,-4.0,-10.0,-5.0,6.0,3.0,0.0,1650848989597968.0
-1.0,0.0,2.0,3.0,-1.0,-6.0,0.0,-2.0,1650848989605917.0
0.0,7.0,13.0,4.0,1.0,3.0,-1.0,-1.0,1650848989605917.0
-1.0,-5.0,-4.0,-3.0,-12.0,-19.0,-4.0,-3.0,1650848989620876.0
-1.0,0.0,5.0,9.0,8.0,9.0,-1.0,-2.0,1650848989620876.0
1.0,0.0,-1.0,-8.0,-4.0,-20.0,-2.0,-2.0,1650848989621874.0
0.0,-7.0,-7.0,1.0,-4.0,21.0,2.0,0.0,1650848989621874.0
0.0,3.0,-1.0,-2.0,12.0,19.0,5.0,1.0,1650848989643816.0
1.0,0.0,9.0,-6.0,-6.0,-15.0,-3.0,-1.0,1650848989643816.0
-1.0,-2.0,-5.0,1.0,-4.0,0.0,-2.0,-2.0,1650848989643816.0
2.0,6.0,1.0,7.0,13.0,7.0,2.0,1.0,1650848989643816.0
-2.0,-1.0,1.0,-3.0,-5.0,-7.0,-1.0,-2.0,1650848989657806.0
0.0,-2.0,-4.0,0.0,-10.0,-7.0,-2.0,-1.0,1650848989657806.0
1.0,1.0,4.0,2.0,-3.0,-3.0,-4.0,0.0,1650848989665949.0
0.0,-1.0,-1.0,-4.0,-1.0,3.0,0.0,0.0,1650848989665949.0
-1.0,2.0,2.0,-10.0,1.0,-7.0,0.0,1.0,1650848989688963.0
0.0,3.0,-4.0,4.0,-2.0,16.0,4.0,2.0,1650848989688963.0
-1.0,-4.0,-5.0,3.0,3.0,-6.0,-3.0,-1.0,1650848989689942.0
2.0,2.0,8.0,6.0,8.0,15.0,1.0,1.0,1650848989689942.0
1.0,-5.0,-3.0,-2.0,-6.0,-15.0,-3.0,-1.0,1650848989702913.0
-1.0,0.0,-4.0,-5.0,-5.0,-14.0,-4.0,-1.0,1650848989702913.0
0.0,1.0,1.0,0.0,-9.0,17.0,3.0,2.0,1650848989703913.0
-1.0,-4.0,-5.0,0.0,4.0,-10.0,0.0,-1.0,1650848989703913.0
1.0,3.0,9.0,11.0,6.0,16.0,-1.0,0.0,1650848989717895.0
0.0,-1.0,-2.0,-5.0,1.0,-17.0,0.0,-1.0,1650848989717895.0
1.0,-1.0,-5.0,-1.0,10.0,7.0,-2.0,-2.0,1650848989725911.0
-4.0,-4.0,-2.0,-2.0,-12.0,-10.0,-1.0,1.0,1650848989725911.0
0.0,0.0,-2.0,-6.0,-4.0,-2.0,0.0,1.0,1650848989740824.0
-2.0,1.0,-5.0,0.0,-7.0,-6.0,0.0,-4.0,1650848989740824.0
-2.0,-4.0,-2.0,-8.0,-4.0,6.0,0.0,-1.0,1650848989741802.0
0.0,2.0,0.0,0.0,3.0,1.0,0.0,-1.0,1650848989741802.0
1.0,-1.0,-1.0,2.0,2.0,2.0,-1.0,-1.0,1650848989771750.0
1.0,-2.0,2.0,0.0,-10.0,-5.0,-1.0,0.0,1650848989771750.0
2.0,1.0,0.0,0.0,2.0,0.0,0.0,1.0,1650848989771750.0
-1.0,-3.0,-2.0,-6.0,-2.0,3.0,0.0,-1.0,1650848989771750.0
-2.0,1.0,-6.0,-1.0,-5.0,-1.0,2.0,-1.0,1650848989777734.0
0.0,0.0,12.0,8.0,7.0,-19.0,-5.0,-2.0,1650848989777734.0
-1.0,3.0,-1.0,-3.0,3.0,32.0,10.0,1.0,1650848989785684.0
-2.0,-6.0,-16.0,-2.0,0.0,-11.0,-3.0,-2.0,1650848989785684.0
-1.0,-2.0,-6.0,-7.0,-6.0,15.0,2.0,1.0,1650848989808689.0
1.0,2.0,1.0,5.0,-1.0,-6.0,0.0,0.0,1650848989808689.0
0.0,-1.0,1.0,-10.0,-7.0,-15.0,-4.0,-1.0,1650848989809626.0
1.0,0.0,3.0,0.0,-5.0,4.0,0.0,0.0,1650848989809626.0
-1.0,2.0,1.0,8.0,8.0,-18.0,-1.0,-1.0,1650848989823584.0
-1.0,-1.0,-5.0,-12.0,-13.0,18.0,1.0,0.0,1650848989823584.0
-1.0,2.0,1.0,6.0,7.0,-13.0,-4.0,1.0,1650848989823584.0
-1.0,-1.0,11.0,4.0,9.0,21.0,3.0,0.0,1650848989823584.0
1.0,-1.0,-5.0,-1.0,-9.0,-4.0,0.0,0.0,1650848989837545.0
-2.0,-1.0,2.0,-1.0,6.0,-1.0,-1.0,-2.0,1650848989837545.0
-3.0,0.0,-3.0,1.0,-7.0,-10.0,-1.0,0.0,1650848989845668.0
0.0,2.0,-2.0,1.0,-1.0,-4.0,-1.0,0.0,1650848989845668.0
0.0,-1.0,2.0,-1.0,-1.0,1.0,-1.0,1.0,1650848989860667.0
-1.0,-4.0,-7.0,1.0,0.0,-1.0,0.0,0.0,1650848989860667.0
0.0,-1.0,2.0,2.0,-8.0,-2.0,0.0,-1.0,1650848989861636.0
-1.0,4.0,-4.0,-6.0,4.0,-4.0,-3.0,-3.0,1650848989861636.0
-1.0,-1.0,2.0,-2.0,-5.0,2.0,0.0,-1.0,1650848989883616.0
0.0,1.0,3.0,17.0,20.0,12.0,3.0,1.0,1650848989883616.0
-2.0,-4.0,-1.0,-13.0,-5.0,-8.0,-4.0,-2.0,1650848989883616.0
0.0,-2.0,-3.0,-6.0,-12.0,-3.0,-4.0,-1.0,1650848989883616.0
2.0,6.0,4.0,19.0,14.0,3.0,1.0,0.0,1650848989897719.0
-4.0,-16.0,-8.0,-14.0,-21.0,-11.0,-2.0,2.0,1650848989897719.0
0.0,17.0,7.0,6.0,6.0,-10.0,0.0,-1.0,1650848989905676.0
-1.0,-8.0,0.0,-2.0,3.0,9.0,6.0,1.0,1650848989905676.0
4.0,-2.0,-2.0,-4.0,-2.0,-2.0,1.0,0.0,1650848989920664.0
1.0,4.0,0.0,-4.0,-2.0,21.0,3.0,1.0,1650848989920664.0
-1.0,-5.0,8.0,2.0,5.0,6.0,4.0,1.0,1650848989921634.0
-3.0,-4.0,-22.0,-9.0,-19.0,-35.0,-10.0,-6.0,1650848989921634.0
-3.0,-1.0,3.0,6.0,-2.0,4.0,-4.0,-1.0,1650848989943643.0
1.0,0.0,3.0,-4.0,8.0,1.0,2.0,1.0,1650848989943643.0
-1.0,-5.0,-3.0,-1.0,-6.0,-6.0,-4.0,-3.0,1650848989943643.0
1.0,7.0,10.0,8.0,8.0,3.0,4.0,2.0,1650848989943643.0
-2.0,-2.0,-2.0,-5.0,3.0,2.0,-2.0,-2.0,1650848989966513.0
-1.0,-1.0,-5.0,-10.0,-11.0,-8.0,-3.0,-3.0,1650848989966513.0
1.0,-1.0,-5.0,10.0,14.0,14.0,3.0,3.0,1650848989967511.0
0.0,0.0,9.0,2.0,6.0,-2.0,-1.0,0.0,1650848989967511.0
-2.0,-1.0,-13.0,-2.0,-6.0,-1.0,-2.0,-1.0,1650848989980476.0
-1.0,2.0,6.0,-10.0,-6.0,-6.0,-2.0,-1.0,1650848989980476.0
0.0,-2.0,-2.0,0.0,5.0,1.0,-1.0,-1.0,1650848989981474.0
0.0,-3.0,-10.0,-4.0,-6.0,7.0,1.0,2.0,1650848989981474.0
1.0,-4.0,4.0,-2.0,-6.0,-7.0,0.0,0.0,1650848990003343.0
3.0,8.0,6.0,4.0,5.0,0.0,1.0,0.0,1650848990003343.0
-4.0,-9.0,-3.0,-7.0,-13.0,-8.0,-1.0,-2.0,1650848990004314.0
1.0,3.0,-6.0,-6.0,1.0,0.0,-2.0,-3.0,1650848990004314.0
1.0,1.0,-5.0,-14.0,-10.0,1.0,-3.0,0.0,1650848990026322.0
2.0,0.0,2.0,23.0,14.0,-1.0,6.0,2.0,1650848990026322.0
1.0,1.0,4.0,-4.0,-6.0,12.0,-1.0,0.0,1650848990027252.0
1.0,1.0,0.0,5.0,14.0,3.0,2.0,1.0,1650848990027252.0
-1.0,-1.0,5.0,-6.0,-4.0,-17.0,-2.0,-2.0,1650848990040244.0
-2.0,2.0,-11.0,-9.0,-10.0,-6.0,-8.0,-5.0,1650848990040244.0
-1.0,0.0,3.0,17.0,9.0,-4.0,-1.0,-1.0,1650848990041224.0
-3.0,-5.0,-2.0,-2.0,-10.0,3.0,1.0,0.0,1650848990041224.0
1.0,-1.0,1.0,3.0,15.0,13.0,1.0,1.0,1650848990063258.0
2.0,-2.0,-4.0,-4.0,6.0,8.0,1.0,1.0,1650848990063258.0
-3.0,1.0,-1.0,-10.0,-1.0,-5.0,-2.0,-1.0,1650848990064232.0
0.0,0.0,-3.0,4.0,3.0,-1.0,-2.0,0.0,1650848990064232.0
1.0,-1.0,2.0,-7.0,-1.0,2.0,1.0,1.0,1650848990086206.0
-4.0,-1.0,4.0,8.0,-5.0,-4.0,-2.0,-3.0,1650848990086206.0
1.0,4.0,-7.0,-2.0,-8.0,-8.0,0.0,-2.0,1650848990087173.0
-1.0,-6.0,9.0,0.0,-1.0,3.0,0.0,-1.0,1650848990087173.0
-2.0,4.0,0.0,7.0,10.0,6.0,0.0,0.0,1650848990101163.0
0.0,-1.0,4.0,-7.0,-9.0,-7.0,0.0,-1.0,1650848990101163.0
1.0,-6.0,-12.0,4.0,0.0,-1.0,0.0,1.0,1650848990101163.0
1.0,0.0,9.0,7.0,3.0,3.0,2.0,0.0,1650848990101163.0
-3.0,0.0,-5.0,-14.0,-23.0,-43.0,-8.0,-1.0,1650848990123076.0
1.0,0.0,6.0,22.0,33.0,82.0,12.0,5.0,1650848990123076.0
-1.0,-3.0,4.0,-12.0,-16.0,-8.0,-1.0,-3.0,1650848990124074.0
-1.0,-2.0,-4.0,-1.0,6.0,-7.0,-1.0,-2.0,1650848990124074.0
-1.0,-1.0,-4.0,-2.0,-2.0,-9.0,-3.0,-2.0,1650848990146117.0
-2.0,-3.0,-1.0,-9.0,-23.0,-36.0,-8.0,-5.0,1650848990146117.0
1.0,3.0,6.0,3.0,15.0,13.0,3.0,2.0,1650848990147116.0
-3.0,-5.0,-13.0,9.0,3.0,8.0,0.0,-3.0,1650848990147116.0
1.0,4.0,0.0,-4.0,-1.0,4.0,0.0,0.0,1650848990161141.0
-4.0,-2.0,-3.0,-5.0,-11.0,-16.0,-4.0,1.0,1650848990161141.0
-1.0,-2.0,6.0,20.0,13.0,6.0,-1.0,-2.0,1650848990161141.0
1.0,-3.0,-2.0,-3.0,1.0,-7.0,0.0,0.0,1650848990161141.0
0.0,5.0,1.0,6.0,15.0,21.0,5.0,3.0,1650848990183020.0
-2.0,-4.0,5.0,0.0,0.0,-7.0,0.0,0.0,1650848990183020.0
3.0,4.0,0.0,-9.0,-10.0,-2.0,-1.0,2.0,1650848990184018.0
0.0,-1.0,-7.0,1.0,-6.0,-1.0,-1.0,2.0,1650848990184018.0
-3.0,-11.0,-11.0,6.0,-12.0,-32.0,-5.0,-3.0,1650848990206478.0
0.0,4.0,6.0,7.0,18.0,50.0,3.0,4.0,1650848990206478.0
-3.0,-3.0,-4.0,-13.0,-11.0,-29.0,-6.0,-5.0,1650848990207448.0
3.0,7.0,10.0,-2.0,-5.0,28.0,5.0,2.0,1650848990207448.0
0.0,-6.0,17.0,4.0,15.0,9.0,2.0,-2.0,1650848990220439.0
1.0,0.0,-20.0,-5.0,-12.0,-26.0,-9.0,-5.0,1650848990220439.0
0.0,-2.0,5.0,0.0,0.0,-6.0,-1.0,-1.0,1650848990221410.0
-3.0,0.0,-8.0,-3.0,-16.0,-7.0,-2.0,-3.0,1650848990221410.0
-1.0,1.0,1.0,15.0,19.0,11.0,1.0,2.0,1650848990243419.0
-3.0,0.0,6.0,-2.0,1.0,-15.0,-3.0,-2.0,1650848990243419.0
-2.0,0.0,-10.0,-3.0,-2.0,10.0,-1.0,-2.0,1650848990244349.0
-1.0,4.0,7.0,-5.0,-4.0,-11.0,0.0,1.0,1650848990244349.0
-1.0,-6.0,-19.0,-3.0,-1.0,15.0,3.0,-2.0,1650848990266318.0
1.0,6.0,2.0,-1.0,6.0,-8.0,1.0,-1.0,1650848990266318.0
-3.0,-2.0,-2.0,1.0,-7.0,2.0,-1.0,0.0,1650848990267288.0
-1.0,-3.0,-4.0,1.0,1.0,-4.0,-1.0,2.0,1650848990267288.0
0.0,5.0,4.0,-3.0,-2.0,2.0,1.0,-3.0,1650848990281250.0
0.0,-3.0,-4.0,-10.0,-8.0,-7.0,0.0,-1.0,1650848990281250.0
1.0,0.0,-9.0,-6.0,-5.0,-7.0,-3.0,-1.0,1650848990281250.0
-1.0,-1.0,7.0,-1.0,-17.0,-44.0,-7.0,-4.0,1650848990281250.0
0.0,7.0,13.0,31.0,25.0,56.0,4.0,3.0,1650848990303307.0
2.0,-1.0,-1.0,-3.0,14.0,15.0,10.0,4.0,1650848990303307.0
-2.0,-7.0,-2.0,-2.0,-6.0,-5.0,-2.0,-2.0,1650848990304277.0
-1.0,-1.0,-5.0,-8.0,0.0,-4.0,-2.0,0.0,1650848990304277.0
0.0,3.0,3.0,-10.0,-17.0,-23.0,-4.0,-2.0,1650848990326288.0
-3.0,-7.0,-8.0,4.0,-1.0,-9.0,-6.0,-4.0,1650848990326288.0
3.0,3.0,1.0,11.0,19.0,17.0,4.0,2.0,1650848990327215.0
0.0,0.0,6.0,2.0,-5.0,0.0,-1.0,-1.0,1650848990327215.0
-1.0,-2.0,-7.0,-4.0,-1.0,-11.0,-1.0,-1.0,1650848990341178.0
0.0,1.0,3.0,-2.0,2.0,12.0,3.0,0.0,1650848990341178.0
-1.0,1.0,-5.0,-8.0,-8.0,-8.0,-1.0,1.0,1650848990341178.0
1.0,3.0,9.0,11.0,15.0,10.0,2.0,0.0,1650848990341178.0
-3.0,-5.0,-1.0,-11.0,-8.0,-2.0,1.0,2.0,1650848990363187.0
-2.0,-3.0,-17.0,-9.0,-13.0,-22.0,-7.0,-4.0,1650848990363187.0
0.0,1.0,2.0,2.0,17.0,16.0,0.0,-1.0,1650848990364117.0
-1.0,-2.0,-2.0,0.0,-2.0,2.0,-3.0,-3.0,1650848990364117.0
-1.0,1.0,5.0,1.0,1.0,0.0,0.0,0.0,1650848990386086.0
-1.0,0.0,5.0,-3.0,-9.0,9.0,9.0,2.0,1650848990386086.0
-3.0,-3.0,-2.0,-4.0,-14.0,-13.0,-4.0,-2.0,1650848990387055.0
1.0,5.0,4.0,3.0,6.0,7.0,-1.0,0.0,1650848990387055.0
-2.0,-6.0,-15.0,-16.0,-15.0,-24.0,-3.0,-3.0,1650848990401046.0
2.0,4.0,7.0,19.0,15.0,6.0,0.0,2.0,1650848990401046.0
2.0,1.0,6.0,-5.0,1.0,8.0,4.0,0.0,1650848990402016.0
-2.0,-5.0,-7.0,-5.0,3.0,4.0,1.0,0.0,1650848990402016.0
1.0,-1.0,-1.0,-1.0,-8.0,-5.0,-3.0,0.0,1650848990422987.0
0.0,-1.0,-2.0,-5.0,1.0,-8.0,-2.0,0.0,1650848990422987.0
0.0,1.0,2.0,2.0,2.0,11.0,3.0,0.0,1650848990423957.0
-2.0,2.0,3.0,1.0,2.0,-1.0,-2.0,-2.0,1650848990423957.0
2.0,-2.0,-11.0,-5.0,2.0,3.0,1.0,-1.0,1650848990446641.0
-2.0,-4.0,-3.0,-6.0,-26.0,-11.0,-5.0,-3.0,1650848990446641.0
1.0,2.0,4.0,9.0,18.0,1.0,2.0,3.0,1650848990447572.0
-1.0,0.0,4.0,-10.0,-5.0,-2.0,0.0,1.0,1650848990447572.0
-1.0,-5.0,-5.0,3.0,-7.0,-26.0,-6.0,-3.0,1650848990460603.0
-1.0,-1.0,0.0,6.0,3.0,31.0,4.0,3.0,1650848990460603.0
1.0,0.0,-1.0,-4.0,2.0,9.0,2.0,0.0,1650848990461538.0
-1.0,-2.0,-2.0,6.0,9.0,9.0,3.0,1.0,1650848990461538.0
0.0,0.0,8.0,-1.0,0.0,-11.0,-4.0,1.0,1650848990491534.0
-3.0,-2.0,4.0,0.0,-9.0,-26.0,-7.0,-2.0,1650848990491534.0
-1.0,-1.0,-8.0,-4.0,-6.0,-2.0,-2.0,0.0,1650848990492531.0
1.0,0.0,-5.0,-3.0,2.0,7.0,1.0,-1.0,1650848990492531.0
0.0,1.0,0.0,1.0,-3.0,0.0,4.0,1.0,1650848990506492.0
-1.0,-3.0,-8.0,-6.0,3.0,10.0,1.0,0.0,1650848990506492.0
-3.0,-4.0,1.0,0.0,-5.0,-3.0,-3.0,0.0,1650848990507491.0
1.0,2.0,2.0,6.0,8.0,0.0,1.0,0.0,1650848990507491.0
1.0,0.0,1.0,-3.0,-13.0,-21.0,-5.0,-4.0,1650848990521453.0
1.0,1.0,-1.0,-1.0,1.0,22.0,-2.0,-1.0,1650848990521453.0
-1.0,1.0,1.0,-1.0,-6.0,-37.0,-4.0,-2.0,1650848990522458.0
2.0,-1.0,-2.0,10.0,24.0,55.0,13.0,4.0,1650848990522458.0
0.0,0.0,1.0,-6.0,-1.0,2.0,2.0,-3.0,1650848990543422.0
0.0,1.0,-4.0,-4.0,-3.0,-17.0,-5.0,-2.0,1650848990543422.0
-3.0,-3.0,1.0,-2.0,-10.0,-17.0,-7.0,-4.0,1650848990544392.0
-2.0,0.0,-3.0,-2.0,-12.0,-13.0,-4.0,-2.0,1650848990544392.0
1.0,-2.0,0.0,-7.0,11.0,24.0,5.0,3.0,1650848990566332.0
-3.0,-2.0,-11.0,7.0,-6.0,-16.0,-1.0,-2.0,1650848990566332.0
-1.0,-1.0,1.0,-3.0,4.0,10.0,-1.0,0.0,1650848990567336.0
2.0,-1.0,-6.0,-9.0,-10.0,-18.0,-3.0,-2.0,1650848990567336.0
-1.0,-4.0,5.0,11.0,13.0,25.0,3.0,2.0,1650848990580359.0
5.0,7.0,3.0,-6.0,4.0,-9.0,0.0,1.0,1650848990580359.0
1.0,-1.0,-3.0,1.0,-2.0,5.0,3.0,-3.0,1650848990588274.0
-2.0,-4.0,-6.0,-7.0,-10.0,-9.0,-4.0,-1.0,1650848990588274.0
-1.0,-1.0,-2.0,2.0,2.0,-2.0,-2.0,-1.0,1650848990603234.0
-2.0,-3.0,4.0,1.0,-2.0,-7.0,1.0,-3.0,1650848990603234.0
2.0,1.0,1.0,1.0,8.0,20.0,5.0,1.0,1650848990604244.0
0.0,0.0,-6.0,-3.0,-2.0,-6.0,-2.0,-1.0,1650848990604244.0
0.0,0.0,-3.0,0.0,-5.0,-10.0,-2.0,-2.0,1650848990626177.0
-2.0,1.0,1.0,-3.0,5.0,14.0,1.0,2.0,1650848990626177.0
0.0,0.0,3.0,5.0,2.0,-10.0,-1.0,1.0,1650848990627170.0
-3.0,-1.0,-2.0,2.0,-3.0,4.0,-1.0,0.0,1650848990627170.0
0.0,-4.0,-6.0,-6.0,-3.0,5.0,6.0,1.0,1650848990640135.0
-2.0,0.0,1.0,3.0,2.0,-13.0,-4.0,-3.0,1650848990640135.0
-1.0,-1.0,-6.0,-2.0,-8.0,-4.0,-3.0,-2.0,1650848990648114.0
0.0,0.0,2.0,-1.0,0.0,-7.0,-2.0,0.0,1650848990648114.0
-2.0,0.0,-5.0,-8.0,4.0,2.0,-1.0,0.0,1650848990663078.0
1.0,-3.0,24.0,12.0,1.0,5.0,1.0,-2.0,1650848990663078.0
0.0,5.0,-10.0,0.0,-1.0,4.0,0.0,1.0,1650848990664072.0
-2.0,-2.0,5.0,2.0,-2.0,-11.0,-2.0,0.0,1650848990664072.0
-2.0,2.0,-1.0,0.0,-3.0,10.0,1.0,1.0,1650848990686013.0
-2.0,-1.0,-6.0,-2.0,-4.0,-20.0,-4.0,-1.0,1650848990686013.0
5.0,3.0,19.0,3.0,6.0,13.0,-1.0,3.0,1650848990687010.0
-2.0,-2.0,-9.0,-10.0,-11.0,-1.0,3.0,-5.0,1650848990687010.0
0.0,-4.0,3.0,6.0,1.0,12.0,-1.0,1.0,1650848990699975.0
2.0,1.0,-2.0,-11.0,-1.0,-7.0,-1.0,-1.0,1650848990699975.0
-1.0,-3.0,-2.0,2.0,-5.0,-7.0,1.0,-1.0,1650848990707955.0
0.0,3.0,-2.0,-2.0,6.0,-3.0,-2.0,2.0,1650848990707955.0
0.0,1.0,5.0,4.0,2.0,-7.0,0.0,0.0,1650848990722931.0
4.0,-8.0,-11.0,-4.0,0.0,-6.0,-2.0,0.0,1650848990722931.0
1.0,-1.0,-1.0,-1.0,-4.0,12.0,-1.0,-3.0,1650848990723928.0
1.0,0.0,6.0,-2.0,-12.0,-1.0,2.0,2.0,1650848990723928.0
-3.0,1.0,0.0,-5.0,15.0,0.0,-2.0,0.0,1650848990746891.0
10.0,1.0,-2.0,4.0,2.0,3.0,-1.0,0.0,1650848990746891.0
-6.0,-5.0,4.0,0.0,-6.0,-8.0,-2.0,-1.0,1650848990746891.0
-3.0,-2.0,0.0,-3.0,-8.0,-8.0,-3.0,0.0,1650848990746891.0
6.0,4.0,4.0,14.0,8.0,14.0,3.0,0.0,1650848990759865.0
-4.0,2.0,-17.0,-19.0,-1.0,0.0,-1.0,0.0,1650848990759865.0
-3.0,-6.0,4.0,-1.0,-7.0,-2.0,-1.0,-2.0,1650848990767834.0
2.0,8.0,9.0,12.0,6.0,-6.0,-3.0,-2.0,1650848990767834.0
-2.0,-4.0,6.0,2.0,-5.0,5.0,0.0,-2.0,1650848990782824.0
-1.0,-1.0,-1.0,3.0,-4.0,-5.0,3.0,0.0,1650848990782824.0
-4.0,0.0,-6.0,-5.0,14.0,22.0,1.0,-1.0,1650848990783793.0
1.0,-5.0,-4.0,-2.0,-3.0,-10.0,-1.0,-1.0,1650848990783793.0
2.0,3.0,13.0,9.0,-8.0,-14.0,-3.0,1.0,1650848990806731.0
1.0,0.0,-13.0,-20.0,0.0,10.0,4.0,2.0,1650848990806731.0
-8.0,1.0,4.0,8.0,-3.0,-20.0,-3.0,-1.0,1650848990806731.0
-1.0,-1.0,8.0,4.0,9.0,25.0,3.0,-3.0,1650848990806731.0
-3.0,-7.0,-25.0,-22.0,-11.0,-9.0,-3.0,0.0,1650848990819696.0
1.0,2.0,23.0,22.0,3.0,-4.0,0.0,-2.0,1650848990819696.0
9.0,2.0,-8.0,-15.0,-5.0,-2.0,-1.0,-2.0,1650848990828684.0
-3.0,0.0,-5.0,7.0,8.0,1.0,-3.0,-1.0,1650848990828684.0
-2.0,-1.0,6.0,-1.0,-10.0,-8.0,-1.0,-3.0,1650848990843636.0
-1.0,-1.0,-9.0,-3.0,-3.0,3.0,-1.0,0.0,1650848990843636.0
0.0,0.0,7.0,5.0,13.0,-3.0,2.0,2.0,1650848990843636.0
9.0,-5.0,-11.0,-4.0,-6.0,8.0,1.0,1.0,1650848990843636.0
2.0,3.0,4.0,-3.0,-3.0,-6.0,1.0,-1.0,1650848990865846.0
-1.0,2.0,16.0,8.0,13.0,14.0,3.0,1.0,1650848990865846.0
-1.0,-1.0,-19.0,-4.0,-2.0,8.0,1.0,0.0,1650848990866836.0
-6.0,1.0,7.0,4.0,-2.0,-18.0,-2.0,-3.0,1650848990866836.0
1.0,0.0,-10.0,-2.0,-2.0,0.0,1.0,0.0,1650848990881776.0
-1.0,-1.0,3.0,8.0,-5.0,-3.0,-3.0,-2.0,1650848990881776.0
-14.0,-5.0,-5.0,-16.0,-6.0,-16.0,-3.0,-4.0,1650848990887788.0
1.0,1.0,-6.0,5.0,11.0,22.0,4.0,3.0,1650848990887788.0
-3.0,-1.0,5.0,-1.0,1.0,-10.0,-3.0,-2.0,1650848990902851.0
2.0,1.0,-8.0,0.0,-9.0,15.0,1.0,0.0,1650848990902851.0
3.0,0.0,-1.0,0.0,4.0,-2.0,-1.0,0.0,1650848990903822.0
-4.0,-3.0,3.0,-10.0,-10.0,-10.0,-3.0,-1.0,1650848990903822.0
-1.0,-3.0,-11.0,5.0,9.0,6.0,1.0,0.0,1650848990925763.0
-2.0,0.0,3.0,1.0,2.0,-8.0,-2.0,-1.0,1650848990925763.0
3.0,4.0,0.0,-5.0,-6.0,0.0,1.0,2.0,1650848990926760.0
2.0,-9.0,-9.0,-8.0,-7.0,-2.0,-2.0,-6.0,1650848990926760.0
-25.0,0.0,6.0,9.0,1.0,4.0,2.0,0.0,1650848990948786.0
2.0,-2.0,0.0,-11.0,-3.0,-3.0,0.0,2.0,1650848990948786.0
11.0,2.0,14.0,20.0,8.0,8.0,2.0,2.0,1650848990949785.0
6.0,-4.0,-16.0,-7.0,3.0,-5.0,-1.0,0.0,1650848990949785.0
7.0,4.0,15.0,0.0,-8.0,-13.0,-4.0,-1.0,1650848990963756.0
-15.0,-1.0,-7.0,2.0,7.0,19.0,3.0,-1.0,1650848990963756.0
8.0,1.0,-2.0,-2.0,-1.0,-8.0,1.0,-2.0,1650848990963756.0
-22.0,-4.0,-9.0,-8.0,0.0,17.0,2.0,-1.0,1650848990963756.0
0.0,0.0,8.0,2.0,0.0,-4.0,-3.0,-3.0,1650848990985715.0
10.0,0.0,-10.0,3.0,-9.0,-9.0,-2.0,1.0,1650848990985715.0
7.0,5.0,-8.0,-3.0,9.0,5.0,-1.0,-1.0,1650848990986686.0
-12.0,-7.0,5.0,-6.0,-9.0,-11.0,-2.0,1.0,1650848990986686.0
14.0,-2.0,-15.0,2.0,0.0,3.0,-1.0,-1.0,1650848991008630.0
-13.0,3.0,14.0,-10.0,-1.0,-4.0,-1.0,-1.0,1650848991008630.0
8.0,-5.0,7.0,7.0,-7.0,-4.0,-4.0,-2.0,1650848991009625.0
-32.0,-1.0,-4.0,-2.0,-2.0,-7.0,0.0,-4.0,1650848991009625.0
4.0,5.0,1.0,3.0,3.0,28.0,8.0,3.0,1650848991023587.0
3.0,-2.0,0.0,-2.0,2.0,-10.0,-3.0,-2.0,1650848991023587.0
4.0,0.0,0.0,-3.0,-4.0,1.0,1.0,3.0,1650848991023587.0
7.0,1.0,-4.0,4.0,2.0,-7.0,-3.0,0.0,1650848991023587.0
1.0,-2.0,4.0,-10.0,0.0,-2.0,-2.0,-2.0,1650848991046180.0
-14.0,-3.0,-19.0,-1.0,-2.0,-1.0,1.0,0.0,1650848991046180.0
6.0,0.0,12.0,6.0,-2.0,3.0,1.0,5.0,1650848991046544.0
34.0,11.0,15.0,10.0,-3.0,-4.0,-1.0,0.0,1650848991046544.0
-3.0,-2.0,-4.0,-3.0,0.0,0.0,-1.0,-1.0,1650848991076494.0
-3.0,-1.0,-5.0,6.0,3.0,0.0,-1.0,-2.0,1650848991076494.0
23.0,-8.0,4.0,2.0,3.0,1.0,-1.0,3.0,1650848991077491.0
-22.0,-6.0,9.0,-5.0,-6.0,1.0,1.0,5.0,1650848991077491.0
50.0,12.0,-4.0,4.0,-2.0,-15.0,-4.0,-1.0,1650848991083120.0
-10.0,-13.0,-12.0,-12.0,0.0,18.0,2.0,1.0,1650848991083120.0
-28.0,10.0,13.0,5.0,1.0,-4.0,0.0,-4.0,1650848991084096.0
8.0,1.0,0.0,1.0,8.0,6.0,1.0,0.0,1650848991084096.0
6.0,0.0,10.0,-6.0,-13.0,-27.0,-3.0,1.0,1650848991105911.0
-3.0,-1.0,-36.0,-1.0,7.0,12.0,-3.0,-3.0,1650848991105911.0
-11.0,-3.0,10.0,0.0,-11.0,-4.0,3.0,0.0,1650848991112866.0
24.0,7.0,1.0,2.0,14.0,4.0,1.0,2.0,1650848991112866.0
-25.0,-15.0,-19.0,-7.0,-2.0,24.0,3.0,-3.0,1650848991128887.0
11.0,16.0,31.0,5.0,-11.0,-25.0,-5.0,-3.0,1650848991128887.0
-9.0,-5.0,-15.0,-6.0,-4.0,-2.0,-1.0,-4.0,1650848991129820.0
6.0,2.0,5.0,7.0,-4.0,-9.0,-1.0,-1.0,1650848991129820.0
-10.0,-10.0,-5.0,-5.0,7.0,-2.0,-1.0,1.0,1650848991142787.0
7.0,-3.0,8.0,2.0,6.0,7.0,2.0,0.0,1650848991142787.0
2.0,-2.0,-18.0,-8.0,-1.0,5.0,-1.0,-1.0,1650848991143783.0
0.0,6.0,16.0,8.0,0.0,-3.0,-2.0,-1.0,1650848991143783.0
24.0,-5.0,-13.0,-11.0,-4.0,2.0,-2.0,-1.0,1650848991165752.0
-8.0,5.0,14.0,2.0,-7.0,-7.0,0.0,-2.0,1650848991165752.0
-10.0,3.0,-2.0,9.0,4.0,-3.0,-1.0,-1.0,1650848991166722.0
8.0,3.0,-3.0,-6.0,0.0,-8.0,-1.0,2.0,1650848991166722.0
4.0,-2.0,-18.0,3.0,5.0,29.0,7.0,3.0,1650848991189634.0
3.0,-4.0,7.0,0.0,-8.0,-11.0,-2.0,-1.0,1650848991189634.0
0.0,-1.0,0.0,-1.0,8.0,1.0,1.0,1.0,1650848991189634.0
0.0,2.0,4.0,-4.0,-10.0,-4.0,-2.0,-4.0,1650848991189634.0
-12.0,7.0,20.0,15.0,5.0,-2.0,-1.0,1.0,1650848991203618.0
12.0,-4.0,-7.0,0.0,-3.0,-6.0,-3.0,0.0,1650848991203618.0
4.0,-3.0,-14.0,-5.0,-3.0,1.0,-3.0,-6.0,1650848991203618.0
1.0,0.0,4.0,1.0,-1.0,3.0,-1.0,0.0,1650848991203618.0
-8.0,9.0,4.0,-1.0,-3.0,-5.0,0.0,0.0,1650848991225556.0
-50.0,-27.0,-11.0,-7.0,1.0,-4.0,1.0,-3.0,1650848991225556.0
-3.0,11.0,5.0,-1.0,2.0,5.0,2.0,-1.0,1650848991226563.0
-5.0,-12.0,-5.0,-3.0,0.0,2.0,2.0,-1.0,1650848991226563.0
1.0,19.0,-3.0,-5.0,0.0,-3.0,-1.0,0.0,1650848991248563.0
9.0,-21.0,4.0,3.0,0.0,-2.0,1.0,0.0,1650848991248563.0
-6.0,-3.0,-4.0,-2.0,-6.0,-4.0,-3.0,0.0,1650848991249499.0
-4.0,-4.0,-4.0,0.0,10.0,8.0,0.0,1.0,1650848991249499.0
-14.0,-3.0,-5.0,-9.0,-7.0,-2.0,0.0,-1.0,1650848991263680.0
14.0,10.0,9.0,7.0,6.0,0.0,-1.0,3.0,1650848991263680.0
-4.0,-2.0,-4.0,-1.0,-4.0,-1.0,1.0,-2.0,1650848991264500.0
1.0,-11.0,-20.0,-3.0,-4.0,-3.0,-2.0,0.0,1650848991264500.0
-4.0,11.0,0.0,-7.0,-7.0,-4.0,-1.0,-2.0,1650848991285446.0
5.0,7.0,3.0,2.0,6.0,2.0,1.0,0.0,1650848991285446.0
-13.0,-3.0,8.0,-1.0,-1.0,-5.0,-3.0,-2.0,1650848991286444.0
4.0,13.0,16.0,8.0,-5.0,-2.0,6.0,0.0,1650848991286444.0
1.0,-12.0,-9.0,0.0,10.0,28.0,3.0,0.0,1650848991309382.0
-18.0,2.0,-8.0,-10.0,-6.0,-9.0,0.0,-3.0,1650848991309382.0
3.0,-1.0,-5.0,-4.0,-1.0,-8.0,-1.0,1.0,1650848991309382.0
-2.0,-5.0,4.0,-3.0,0.0,-1.0,-2.0,-1.0,1650848991309382.0
-4.0,-2.0,11.0,8.0,-5.0,-12.0,-4.0,-5.0,1650848991323366.0
10.0,6.0,2.0,-1.0,-1.0,2.0,1.0,0.0,1650848991323366.0
5.0,-3.0,-1.0,2.0,3.0,3.0,1.0,1.0,1650848991324343.0
-19.0,-5.0,-12.0,-9.0,-4.0,-2.0,-1.0,-4.0,1650848991324343.0
3.0,-5.0,4.0,4.0,-2.0,-5.0,0.0,0.0,1650848991354283.0
7.0,3.0,1.0,4.0,11.0,10.0,-1.0,0.0,1650848991354283.0
-3.0,2.0,-10.0,-2.0,-9.0,-4.0,0.0,-2.0,1650848991354283.0
2.0,-3.0,-4.0,-3.0,8.0,6.0,-2.0,0.0,1650848991354283.0
-8.0,-5.0,2.0,-1.0,-2.0,-14.0,-3.0,-2.0,1650848991369225.0
5.0,1.0,-1.0,2.0,-3.0,10.0,-1.0,-1.0,1650848991369225.0
-2.0,-6.0,5.0,1.0,-8.0,-8.0,-1.0,1.0,1650848991370221.0
-27.0,5.0,7.0,-3.0,7.0,8.0,3.0,-1.0,1650848991370221.0
6.0,-20.0,-5.0,3.0,1.0,-2.0,-1.0,0.0,1650848991382795.0
8.0,23.0,9.0,-2.0,-3.0,-6.0,-4.0,1.0,1650848991382795.0
-2.0,-10.0,-11.0,-10.0,-7.0,2.0,-1.0,-1.0,1650848991383789.0
13.0,6.0,7.0,10.0,2.0,-3.0,-3.0,-2.0,1650848991383789.0
-9.0,-6.0,4.0,-6.0,-5.0,-22.0,-4.0,-1.0,1650848991405769.0
0.0,0.0,5.0,7.0,4.0,24.0,5.0,0.0,1650848991405769.0
6.0,-1.0,-8.0,-2.0,4.0,1.0,0.0,0.0,1650848991406765.0
5.0,-7.0,-15.0,-5.0,-8.0,-4.0,0.0,0.0,1650848991406765.0
-7.0,0.0,-3.0,0.0,-1.0,-6.0,-3.0,-2.0,1650848991428709.0
6.0,2.0,-1.0,-8.0,-11.0,-22.0,-7.0,0.0,1650848991428709.0
0.0,-2.0,3.0,9.0,18.0,41.0,15.0,1.0,1650848991429703.0
3.0,-3.0,3.0,1.0,-1.0,1.0,1.0,0.0,1650848991429703.0
-1.0,5.0,-2.0,-4.0,6.0,6.0,1.0,2.0,1650848991443666.0
-3.0,-4.0,-7.0,3.0,-5.0,-14.0,-1.0,-2.0,1650848991443666.0
-2.0,-1.0,4.0,-2.0,-3.0,-11.0,-5.0,-2.0,1650848991443666.0
1.0,-1.0,-1.0,-4.0,-7.0,-8.0,-3.0,-1.0,1650848991443666.0
1.0,2.0,-9.0,4.0,-1.0,18.0,1.0,2.0,1650848991466235.0
3.0,-1.0,1.0,4.0,10.0,-1.0,3.0,0.0,1650848991466235.0
1.0,4.0,10.0,2.0,4.0,4.0,-1.0,1.0,1650848991466235.0
0.0,0.0,-9.0,-3.0,-12.0,-8.0,1.0,0.0,1650848991466235.0
2.0,3.0,11.0,3.0,-4.0,-12.0,-2.0,-2.0,1650848991489177.0
-2.0,-4.0,-1.0,-4.0,-1.0,17.0,3.0,2.0,1650848991489177.0
-2.0,-1.0,-8.0,2.0,11.0,-2.0,1.0,2.0,1650848991490128.0
-1.0,-1.0,5.0,0.0,4.0,2.0,-2.0,-1.0,1650848991490128.0
-2.0,1.0,-14.0,-2.0,-5.0,-3.0,-1.0,-1.0,1650848991503108.0
-4.0,-12.0,-11.0,-18.0,-13.0,-20.0,-2.0,-1.0,1650848991503108.0
1.0,-4.0,4.0,6.0,3.0,13.0,-1.0,-1.0,1650848991511057.0
27.0,5.0,10.0,2.0,-2.0,-3.0,-2.0,0.0,1650848991511057.0
-19.0,-1.0,14.0,2.0,2.0,-8.0,0.0,-2.0,1650848991526011.0
5.0,3.0,-6.0,3.0,10.0,24.0,4.0,0.0,1650848991526011.0
-2.0,0.0,-7.0,-10.0,-14.0,-14.0,-4.0,-1.0,1650848991526011.0
7.0,-8.0,-11.0,2.0,4.0,2.0,0.0,2.0,1650848991526011.0
4.0,-1.0,6.0,-3.0,5.0,-1.0,0.0,1.0,1650848991548961.0
2.0,-2.0,4.0,-3.0,-3.0,-2.0,-4.0,-3.0,1650848991548961.0
-7.0,1.0,6.0,-1.0,-14.0,-10.0,-2.0,-1.0,1650848991549891.0
-9.0,2.0,-9.0,-1.0,14.0,13.0,2.0,-1.0,1650848991549891.0
4.0,0.0,9.0,6.0,1.0,-1.0,-1.0,-1.0,1650848991562923.0
-3.0,0.0,6.0,2.0,-4.0,-4.0,-1.0,-2.0,1650848991562923.0
2.0,-3.0,-3.0,-8.0,-2.0,-1.0,-1.0,-1.0,1650848991570863.0
-5.0,8.0,-9.0,-10.0,-12.0,-18.0,-2.0,-2.0,1650848991570863.0
-3.0,-4.0,-4.0,-2.0,-5.0,9.0,-2.0,-1.0,1650848991585821.0
3.0,-1.0,-2.0,10.0,21.0,23.0,7.0,3.0,1650848991585821.0
1.0,-2.0,7.0,-5.0,-6.0,-10.0,-3.0,-2.0,1650848991586812.0
-5.0,1.0,2.0,3.0,9.0,9.0,1.0,-2.0,1650848991586812.0
2.0,-6.0,-11.0,-8.0,3.0,-4.0,-1.0,1.0,1650848991608920.0
-3.0,2.0,5.0,3.0,-9.0,-7.0,-3.0,-1.0,1650848991608920.0
-1.0,1.0,3.0,8.0,-4.0,-7.0,-1.0,0.0,1650848991609891.0
-5.0,1.0,-2.0,-6.0,-3.0,-4.0,0.0,0.0,1650848991609891.0
-2.0,-9.0,-6.0,-3.0,-7.0,-18.0,-4.0,-4.0,1650848991622887.0
1.0,10.0,10.0,0.0,-1.0,13.0,-2.0,0.0,1650848991622887.0
0.0,7.0,-14.0,0.0,8.0,3.0,7.0,1.0,1650848991630905.0
1.0,-10.0,0.0,3.0,8.0,5.0,2.0,3.0,1650848991630905.0
0.0,-2.0,8.0,-1.0,-3.0,6.0,0.0,-1.0,1650848991645654.0
-2.0,-1.0,-2.0,-7.0,-10.0,-22.0,-5.0,-2.0,1650848991645654.0
-1.0,-2.0,2.0,-2.0,-6.0,-7.0,-4.0,-1.0,1650848991646614.0
-3.0,1.0,3.0,0.0,0.0,9.0,-1.0,0.0,1650848991646614.0
1.0,3.0,-4.0,0.0,5.0,0.0,1.0,2.0,1650848991668699.0
1.0,-8.0,-1.0,-1.0,-8.0,-7.0,2.0,0.0,1650848991668699.0
-1.0,6.0,4.0,1.0,10.0,8.0,-2.0,0.0,1650848991669696.0
26.0,-2.0,-19.0,-6.0,-6.0,-4.0,-1.0,-2.0,1650848991669696.0
-12.0,2.0,2.0,3.0,5.0,8.0,1.0,0.0,1650848991682690.0
4.0,2.0,13.0,0.0,-9.0,-30.0,-5.0,-3.0,1650848991682690.0
-2.0,-13.0,-5.0,6.0,7.0,28.0,2.0,-1.0,1650848991690667.0
5.0,9.0,7.0,1.0,-6.0,-13.0,1.0,-1.0,1650848991690667.0
5.0,2.0,-5.0,3.0,6.0,11.0,0.0,1.0,1650848991713646.0
-1.0,0.0,0.0,-1.0,2.0,1.0,4.0,1.0,1650848991713646.0
2.0,0.0,0.0,-9.0,-5.0,-15.0,-4.0,-1.0,1650848991714579.0
-13.0,-3.0,-5.0,7.0,12.0,31.0,2.0,2.0,1650848991714579.0
2.0,1.0,4.0,-2.0,-5.0,1.0,0.0,1.0,1650848991728606.0
-6.0,-4.0,-13.0,-11.0,-6.0,-17.0,-3.0,-1.0,1650848991728606.0
-3.0,-4.0,-2.0,6.0,-4.0,-10.0,-5.0,-1.0,1650848991729536.0
-7.0,-2.0,5.0,-5.0,-7.0,-6.0,-4.0,-1.0,1650848991729536.0
-2.0,2.0,2.0,0.0,-4.0,-5.0,1.0,1.0,1650848991742502.0
5.0,1.0,-4.0,3.0,0.0,5.0,0.0,0.0,1650848991742502.0
1.0,-2.0,-7.0,-4.0,8.0,7.0,2.0,2.0,1650848991750480.0
-5.0,-2.0,7.0,-1.0,-2.0,-2.0,0.0,-3.0,1650848991750480.0
3.0,1.0,-2.0,3.0,5.0,3.0,0.0,-1.0,1650848991765609.0
0.0,-3.0,4.0,4.0,-2.0,-1.0,1.0,-1.0,1650848991765609.0
-5.0,5.0,1.0,-3.0,-4.0,-1.0,-2.0,-1.0,1650848991766606.0
-4.0,-3.0,-1.0,-2.0,-3.0,-5.0,-2.0,0.0,1650848991766606.0
3.0,1.0,3.0,-2.0,-1.0,-8.0,-3.0,-2.0,1650848991788548.0
-2.0,4.0,-6.0,3.0,3.0,3.0,-2.0,-1.0,1650848991788548.0
0.0,-2.0,4.0,5.0,9.0,24.0,6.0,-2.0,1650848991789545.0
2.0,1.0,7.0,4.0,1.0,0.0,0.0,0.0,1650848991789545.0
2.0,-2.0,-12.0,-3.0,1.0,5.0,0.0,2.0,1650848991802539.0
-3.0,-6.0,-6.0,-7.0,-8.0,-13.0,-3.0,0.0,1650848991802539.0
-2.0,0.0,1.0,-4.0,-2.0,-15.0,-3.0,-2.0,1650848991810490.0
-6.0,-2.0,-4.0,0.0,-6.0,-11.0,-3.0,-2.0,1650848991810490.0
2.0,2.0,2.0,-1.0,1.0,13.0,0.0,0.0,1650848991826447.0
-1.0,2.0,-4.0,-1.0,4.0,13.0,9.0,2.0,1650848991826447.0
2.0,2.0,8.0,6.0,14.0,2.0,2.0,2.0,1650848991827445.0
2.0,5.0,-3.0,-1.0,-7.0,-2.0,-1.0,-1.0,1650848991827445.0
-4.0,-6.0,-13.0,2.0,-3.0,-17.0,-5.0,-3.0,1650848991849385.0
6.0,-1.0,-1.0,-2.0,0.0,3.0,-2.0,3.0,1650848991849385.0
-1.0,-2.0,-2.0,-4.0,-7.0,-2.0,-3.0,-1.0,1650848991849385.0
-3.0,-2.0,1.0,-1.0,1.0,-5.0,1.0,1.0,1650848991849385.0
1.0,5.0,-2.0,-6.0,-3.0,5.0,1.0,1.0,1650848991871327.0
-5.0,-1.0,9.0,6.0,5.0,3.0,-3.0,-4.0,1650848991871327.0
1.0,9.0,-12.0,-3.0,-3.0,-5.0,3.0,2.0,1650848991872324.0
-1.0,-1.0,8.0,10.0,11.0,3.0,-1.0,1.0,1650848991872324.0
1.0,0.0,-5.0,-9.0,-4.0,2.0,2.0,-2.0,1650848991885289.0
-1.0,-4.0,0.0,-1.0,-1.0,2.0,-2.0,-2.0,1650848991885289.0
-2.0,-4.0,-3.0,-9.0,-22.0,-46.0,-9.0,-6.0,1650848991886286.0
-4.0,-2.0,-5.0,-2.0,9.0,51.0,4.0,2.0,1650848991886286.0
