EMG_s0,EMG_s1,EMG_s2,EMG_s3,EMG_s4,EMG_s5,EMG_s6,EMG_s7,timestamp
0.0,-8.0,-14.0,0.0,-6.0,-13.0,-7.0,-1.0,1650846854817196.0
-2.0,-20.0,-20.0,6.0,-8.0,-18.0,-11.0,7.0,1650846854817196.0
-3.0,11.0,15.0,-3.0,8.0,17.0,10.0,-5.0,1650846854818192.0
0.0,6.0,-8.0,-7.0,-2.0,1.0,2.0,-4.0,1650846854818192.0
-2.0,-18.0,-16.0,3.0,-7.0,-16.0,-9.0,5.0,1650846854819193.0
-1.0,7.0,14.0,-1.0,1.0,8.0,4.0,-4.0,1650846854819193.0
0.0,13.0,9.0,2.0,2.0,7.0,4.0,-3.0,1650846854819193.0
-1.0,-15.0,-16.0,3.0,-5.0,-15.0,-10.0,4.0,1650846854819193.0
-4.0,0.0,5.0,-3.0,-1.0,3.0,1.0,0.0,1650846854830160.0
0.0,14.0,14.0,-5.0,3.0,13.0,10.0,-6.0,1650846854830160.0
0.0,-10.0,-15.0,0.0,-5.0,-14.0,-8.0,2.0,1650846854839137.0
0.0,-7.0,-1.0,1.0,-1.0,-4.0,-3.0,1.0,1650846854839137.0
-2.0,11.0,15.0,-1.0,5.0,14.0,8.0,-5.0,1650846854847115.0
-2.0,-1.0,-5.0,-2.0,0.0,0.0,-2.0,-2.0,1650846854847115.0
-1.0,-12.0,-13.0,3.0,-6.0,-13.0,-8.0,2.0,1650846854860082.0
-2.0,3.0,9.0,2.0,-1.0,7.0,4.0,-3.0,1650846854860082.0
0.0,9.0,10.0,-6.0,3.0,7.0,4.0,-2.0,1650846854872053.0
-2.0,-8.0,-15.0,-1.0,-4.0,-9.0,-4.0,2.0,1650846854872053.0
-3.0,-6.0,0.0,1.0,-3.0,-4.0,-1.0,-1.0,1650846854884019.0
0.0,9.0,11.0,2.0,4.0,9.0,4.0,-2.0,1650846854884019.0
0.0,-2.0,-8.0,0.0,-2.0,-6.0,-2.0,0.0,1650846854892028.0
-1.0,-5.0,0.0,1.0,-3.0,-4.0,-3.0,2.0,1650846854892028.0
-1.0,4.0,8.0,-1.0,3.0,5.0,1.0,-1.0,1650846854904997.0
-3.0,-1.0,-7.0,-5.0,-3.0,-3.0,1.0,-1.0,1650846854904997.0
0.0,25.0,25.0,-9.0,8.0,29.0,15.0,-8.0,1650846854945806.0
-1.0,-7.0,-16.0,0.0,-6.0,-12.0,-8.0,2.0,1650846854945806.0
0.0,-12.0,-8.0,4.0,-3.0,-12.0,-7.0,3.0,1650846854946803.0
-3.0,15.0,18.0,0.0,9.0,17.0,9.0,-4.0,1650846854946803.0
-2.0,-3.0,-7.0,-2.0,-4.0,-7.0,-4.0,-1.0,1650846854947801.0
1.0,-12.0,-9.0,5.0,-4.0,-11.0,-6.0,3.0,1650846854947801.0
0.0,10.0,11.0,-5.0,3.0,14.0,7.0,-3.0,1650846854951790.0
0.0,4.0,2.0,-7.0,-3.0,1.0,1.0,-5.0,1650846854951790.0
1.0,-18.0,-21.0,5.0,-8.0,-20.0,-10.0,4.0,1650846854957807.0
1.0,6.0,10.0,-1.0,3.0,8.0,5.0,0.0,1650846854957807.0
-1.0,15.0,12.0,1.0,9.0,13.0,7.0,-3.0,1650846854966777.0
1.0,-13.0,-18.0,-1.0,-6.0,-14.0,-9.0,1.0,1650846854966777.0
0.0,-5.0,-4.0,2.0,-2.0,-4.0,-4.0,2.0,1650846854972764.0
-2.0,7.0,13.0,-3.0,7.0,13.0,8.0,-6.0,1650846854972764.0
2.0,4.0,2.0,-1.0,-3.0,-4.0,-4.0,-1.0,1650846854988978.0
-1.0,-11.0,-10.0,0.0,-3.0,-10.0,-4.0,2.0,1650846854988978.0
1.0,5.0,11.0,1.0,2.0,6.0,4.0,-1.0,1650846854994963.0
-1.0,5.0,-4.0,-4.0,0.0,4.0,2.0,-4.0,1650846854994963.0
-4.0,-19.0,-19.0,-2.0,-5.0,-10.0,-5.0,1.0,1650846855018707.0
-5.0,-7.0,0.0,-3.0,-2.0,1.0,-2.0,1.0,1650846855018707.0
2.0,14.0,17.0,12.0,5.0,4.0,2.0,0.0,1650846855018707.0
5.0,17.0,-4.0,0.0,3.0,0.0,-1.0,3.0,1650846855018707.0
-9.0,-20.0,-5.0,-16.0,-8.0,-4.0,-4.0,0.0,1650846855033656.0
-2.0,-7.0,-18.0,-1.0,1.0,4.0,1.0,-1.0,1650846855033656.0
-2.0,-6.0,-2.0,-5.0,-6.0,-4.0,-2.0,1.0,1650846855033803.0
3.0,1.0,13.0,11.0,3.0,0.0,0.0,2.0,1650846855033803.0
4.0,14.0,1.0,4.0,3.0,5.0,4.0,-1.0,1650846855055878.0
3.0,6.0,8.0,2.0,1.0,-1.0,0.0,0.0,1650846855055878.0
0.0,-3.0,7.0,1.0,1.0,-5.0,-2.0,2.0,1650846855056811.0
-5.0,-7.0,-5.0,-4.0,-6.0,-2.0,-1.0,-3.0,1650846855056811.0
2.0,5.0,3.0,-1.0,0.0,3.0,0.0,0.0,1650846855078092.0
-1.0,-5.0,-3.0,0.0,-2.0,-3.0,-3.0,0.0,1650846855078092.0
1.0,12.0,13.0,3.0,-1.0,-3.0,-2.0,-1.0,1650846855079017.0
2.0,8.0,-6.0,4.0,4.0,5.0,3.0,-3.0,1650846855079017.0
2.0,7.0,52.0,14.0,1.0,-6.0,-5.0,9.0,1650846855093481.0
-1.0,-7.0,-54.0,-38.0,-9.0,3.0,8.0,-4.0,1650846855093481.0
-25.0,-25.0,67.0,28.0,-6.0,-10.0,-16.0,-49.0,1650846855099789.0
-1.0,-10.0,-87.0,-41.0,-1.0,-11.0,-7.0,9.0,1650846855099789.0
18.0,10.0,68.0,27.0,-2.0,18.0,23.0,33.0,1650846855116039.0
-17.0,38.0,16.0,6.0,6.0,-4.0,-4.0,-20.0,1650846855116039.0
-7.0,-4.0,-25.0,-13.0,-2.0,-8.0,-6.0,-6.0,1650846855117040.0
-2.0,-47.0,-41.0,-44.0,-17.0,6.0,1.0,5.0,1650846855117040.0
-29.0,24.0,-43.0,4.0,-3.0,-25.0,12.0,29.0,1650846855146698.0
37.0,-22.0,75.0,21.0,8.0,26.0,-30.0,-53.0,1650846855146698.0
-5.0,6.0,-5.0,26.0,8.0,-19.0,-13.0,3.0,1650846855147704.0
21.0,36.0,20.0,6.0,1.0,-14.0,2.0,-8.0,1650846855147704.0
13.0,-34.0,-64.0,-27.0,2.0,27.0,19.0,22.0,1650846855153696.0
-54.0,-48.0,-48.0,-13.0,-8.0,-7.0,16.0,15.0,1650846855153696.0
-8.0,39.0,32.0,13.0,6.0,8.0,-10.0,-50.0,1650846855153696.0
-4.0,-48.0,51.0,23.0,-7.0,-16.0,-16.0,2.0,1650846855153696.0
-14.0,-1.0,-17.0,-20.0,-9.0,-17.0,-27.0,-53.0,1650846855175683.0
24.0,58.0,24.0,30.0,9.0,2.0,25.0,67.0,1650846855175683.0
13.0,-24.0,-70.0,-46.0,-4.0,17.0,18.0,43.0,1650846855176614.0
-7.0,16.0,54.0,54.0,12.0,3.0,-18.0,-51.0,1650846855176614.0
5.0,8.0,-30.0,-11.0,1.0,0.0,-3.0,-1.0,1650846855198681.0
8.0,31.0,72.0,9.0,-4.0,-10.0,-12.0,-11.0,1650846855198681.0
-4.0,-38.0,-72.0,-25.0,-6.0,7.0,13.0,8.0,1650846855198681.0
3.0,54.0,-1.0,-6.0,0.0,6.0,2.0,-10.0,1650846855198681.0
-10.0,-30.0,30.0,12.0,4.0,4.0,13.0,48.0,1650846855213164.0
1.0,11.0,-30.0,-9.0,6.0,1.0,-36.0,-74.0,1650846855213164.0
48.0,-92.0,10.0,14.0,2.0,3.0,-3.0,4.0,1650846855214161.0
-16.0,80.0,28.0,35.0,3.0,-2.0,3.0,-7.0,1650846855214161.0
-24.0,28.0,1.0,7.0,2.0,-1.0,-7.0,-57.0,1650846855236169.0
12.0,-36.0,-27.0,-22.0,-9.0,-11.0,13.0,62.0,1650846855236169.0
-13.0,-4.0,16.0,-2.0,0.0,13.0,8.0,0.0,1650846855236169.0
-2.0,-38.0,-47.0,-28.0,-1.0,8.0,14.0,55.0,1650846855236169.0
20.0,36.0,15.0,5.0,3.0,1.0,-19.0,-56.0,1650846855258176.0
-12.0,-13.0,-33.0,2.0,-9.0,-11.0,-4.0,-7.0,1650846855258176.0
-1.0,53.0,79.0,13.0,10.0,18.0,12.0,11.0,1650846855259145.0
12.0,-25.0,10.0,8.0,-7.0,-9.0,6.0,34.0,1650846855259145.0
-5.0,48.0,-14.0,-24.0,-20.0,-28.0,-11.0,24.0,1650846855273107.0
-17.0,-83.0,-43.0,-17.0,4.0,26.0,13.0,-18.0,1650846855273107.0
-2.0,71.0,23.0,2.0,5.0,-14.0,0.0,38.0,1650846855274104.0
3.0,-9.0,-30.0,9.0,2.0,-5.0,-19.0,-13.0,1650846855274104.0
2.0,-30.0,-13.0,-7.0,-4.0,4.0,-12.0,-38.0,1650846855296046.0
-5.0,19.0,91.0,23.0,-1.0,-5.0,-6.0,-18.0,1650846855296046.0
-6.0,-9.0,-64.0,0.0,-2.0,-11.0,13.0,39.0,1650846855297043.0
-7.0,-67.0,-4.0,-20.0,-4.0,-6.0,-22.0,-63.0,1650846855297043.0
38.0,85.0,-45.0,-10.0,9.0,26.0,10.0,31.0,1650846855318136.0
-4.0,-16.0,-17.0,2.0,-10.0,-20.0,3.0,23.0,1650846855318136.0
5.0,-3.0,-2.0,-24.0,-10.0,-7.0,-7.0,-15.0,1650846855319120.0
-27.0,-30.0,35.0,11.0,5.0,7.0,18.0,19.0,1650846855319120.0
31.0,8.0,-8.0,-12.0,0.0,0.0,-15.0,-12.0,1650846855333032.0
3.0,-49.0,9.0,5.0,-5.0,-13.0,-9.0,-10.0,1650846855333032.0
8.0,-5.0,9.0,24.0,10.0,14.0,8.0,15.0,1650846855339785.0
1.0,21.0,-14.0,-29.0,-1.0,6.0,1.0,-22.0,1650846855339785.0
-6.0,-81.0,11.0,14.0,6.0,-3.0,19.0,39.0,1650846855356152.0
8.0,112.0,13.0,-14.0,-10.0,-2.0,3.0,13.0,1650846855356152.0
-30.0,-42.0,-56.0,19.0,6.0,-4.0,-12.0,-42.0,1650846855356152.0
23.0,0.0,22.0,-1.0,19.0,19.0,27.0,65.0,1650846855356152.0
-16.0,-16.0,-8.0,-22.0,-17.0,-15.0,-24.0,-35.0,1650846855378295.0
16.0,-34.0,3.0,-20.0,-3.0,4.0,-9.0,-43.0,1650846855378295.0
-3.0,15.0,-6.0,37.0,9.0,3.0,3.0,-3.0,1650846855379265.0
4.0,17.0,24.0,19.0,-4.0,-11.0,-12.0,-10.0,1650846855379265.0
-24.0,-32.0,23.0,18.0,5.0,-4.0,33.0,85.0,1650846855392229.0
15.0,30.0,15.0,-3.0,8.0,20.0,10.0,-3.0,1650846855392229.0
7.0,21.0,24.0,-12.0,-10.0,-7.0,-2.0,35.0,1650846855400274.0
-17.0,-57.0,-39.0,-22.0,-8.0,-7.0,-22.0,-39.0,1650846855400274.0
-4.0,62.0,50.0,30.0,2.0,0.0,3.0,-39.0,1650846855416236.0
-14.0,-36.0,-80.0,-3.0,3.0,1.0,9.0,21.0,1650846855416236.0
13.0,44.0,36.0,-4.0,-4.0,-8.0,-20.0,-34.0,1650846855416236.0
1.0,3.0,32.0,7.0,-1.0,2.0,14.0,32.0,1650846855416236.0
1.0,-13.0,-75.0,-28.0,-8.0,-6.0,-13.0,-36.0,1650846855437828.0
0.0,-26.0,18.0,-1.0,1.0,-2.0,12.0,71.0,1650846855437828.0
4.0,28.0,-26.0,8.0,4.0,0.0,-4.0,-20.0,1650846855438836.0
6.0,39.0,-5.0,-23.0,-5.0,1.0,1.0,-2.0,1650846855438836.0
10.0,-34.0,21.0,28.0,5.0,2.0,-9.0,-25.0,1650846855452788.0
8.0,38.0,6.0,11.0,-1.0,-5.0,9.0,33.0,1650846855452788.0
-23.0,-57.0,-51.0,-36.0,1.0,2.0,7.0,35.0,1650846855459769.0
0.0,21.0,43.0,38.0,12.0,7.0,7.0,9.0,1650846855459769.0
-2.0,-28.0,-21.0,-9.0,-9.0,-18.0,-20.0,-42.0,1650846855475729.0
-16.0,-11.0,-2.0,2.0,0.0,9.0,0.0,-9.0,1650846855475729.0
30.0,16.0,8.0,-6.0,-7.0,-3.0,-4.0,-3.0,1650846855476733.0
-18.0,-25.0,-6.0,18.0,-3.0,-10.0,-3.0,-26.0,1650846855476733.0
8.0,21.0,-54.0,-14.0,6.0,14.0,4.0,28.0,1650846855498706.0
-10.0,-23.0,50.0,14.0,8.0,-4.0,-8.0,-18.0,1650846855498706.0
-22.0,-7.0,-15.0,-43.0,-15.0,-2.0,9.0,19.0,1650846855498706.0
17.0,22.0,-43.0,-5.0,4.0,7.0,-26.0,-49.0,1650846855498706.0
12.0,21.0,43.0,-4.0,-13.0,-12.0,3.0,41.0,1650846855512654.0
-1.0,-14.0,-16.0,-30.0,-6.0,0.0,-6.0,-34.0,1650846855512654.0
11.0,38.0,46.0,51.0,9.0,6.0,17.0,30.0,1650846855519774.0
-10.0,-67.0,-65.0,-48.0,-12.0,-6.0,17.0,51.0,1650846855519774.0
-17.0,-3.0,109.0,26.0,0.0,6.0,22.0,20.0,1650846855535824.0
1.0,18.0,-109.0,-11.0,-7.0,-8.0,-2.0,-3.0,1650846855535824.0
-23.0,-40.0,-18.0,-18.0,-5.0,-6.0,-10.0,-7.0,1650846855536814.0
2.0,16.0,35.0,-2.0,-4.0,1.0,-10.0,-64.0,1650846855536814.0
-31.0,-17.0,9.0,3.0,4.0,-1.0,-23.0,-74.0,1650846855559760.0
33.0,98.0,29.0,-8.0,-4.0,-4.0,-16.0,-54.0,1650846855559760.0
-4.0,-25.0,-43.0,-13.0,-4.0,1.0,11.0,39.0,1650846855560750.0
16.0,47.0,26.0,28.0,-1.0,-1.0,2.0,21.0,1650846855560750.0
-6.0,-33.0,-33.0,-16.0,2.0,1.0,19.0,86.0,1650846855572726.0
9.0,21.0,58.0,30.0,8.0,5.0,0.0,8.0,1650846855572726.0
-2.0,46.0,9.0,-9.0,3.0,-1.0,-11.0,-51.0,1650846855579690.0
11.0,8.0,-16.0,8.0,4.0,2.0,23.0,62.0,1650846855579690.0
-34.0,-70.0,-73.0,-13.0,1.0,2.0,-11.0,-44.0,1650846855595636.0
10.0,-3.0,52.0,24.0,8.0,15.0,9.0,20.0,1650846855595636.0
13.0,-7.0,-14.0,29.0,6.0,0.0,-5.0,-7.0,1650846855596634.0
-10.0,-23.0,-69.0,-36.0,-8.0,-5.0,11.0,47.0,1650846855596634.0
-12.0,-7.0,-38.0,22.0,-2.0,-8.0,0.0,11.0,1650846855618602.0
-9.0,-47.0,-70.0,-28.0,-8.0,-5.0,5.0,35.0,1650846855618602.0
-7.0,-15.0,26.0,-30.0,-14.0,-3.0,-12.0,-58.0,1650846855618602.0
-16.0,-3.0,30.0,-12.0,-8.0,0.0,-5.0,-44.0,1650846855618602.0
9.0,30.0,19.0,10.0,12.0,5.0,-7.0,-31.0,1650846855632537.0
-14.0,-59.0,8.0,24.0,7.0,-2.0,-1.0,-15.0,1650846855632537.0
9.0,4.0,54.0,18.0,0.0,-2.0,10.0,47.0,1650846855640516.0
9.0,28.0,-24.0,-25.0,-7.0,-1.0,-14.0,-46.0,1650846855640516.0
30.0,-24.0,66.0,-9.0,-7.0,2.0,10.0,32.0,1650846855655499.0
-15.0,25.0,-29.0,0.0,5.0,-5.0,-4.0,-13.0,1650846855655499.0
10.0,-6.0,8.0,19.0,12.0,6.0,7.0,9.0,1650846855656473.0
-13.0,9.0,23.0,-7.0,-4.0,0.0,-1.0,-7.0,1650846855656473.0
13.0,-16.0,-36.0,-10.0,0.0,1.0,2.0,-5.0,1650846855678435.0
11.0,48.0,9.0,-1.0,-4.0,-5.0,0.0,9.0,1650846855678435.0
5.0,-34.0,-27.0,-14.0,-5.0,-5.0,-11.0,-8.0,1650846855679413.0
-1.0,-7.0,35.0,17.0,2.0,-1.0,-6.0,-5.0,1650846855679413.0
4.0,-23.0,-70.0,-12.0,0.0,1.0,5.0,23.0,1650846855701114.0
-13.0,14.0,35.0,8.0,-5.0,-7.0,-12.0,-11.0,1650846855701114.0
4.0,25.0,3.0,-13.0,-5.0,2.0,-17.0,-55.0,1650846855702050.0
7.0,-17.0,4.0,8.0,3.0,1.0,6.0,8.0,1650846855702050.0
-2.0,31.0,-2.0,7.0,3.0,6.0,8.0,21.0,1650846855716051.0
6.0,8.0,35.0,23.0,2.0,1.0,-2.0,6.0,1650846855716051.0
-23.0,-9.0,-2.0,-17.0,-8.0,-6.0,1.0,-10.0,1650846855717009.0
0.0,1.0,18.0,14.0,7.0,3.0,-5.0,-17.0,1650846855717009.0
1.0,-15.0,0.0,7.0,2.0,-4.0,-10.0,-28.0,1650846855737973.0
-6.0,9.0,-42.0,-26.0,-4.0,-2.0,1.0,5.0,1650846855737973.0
-2.0,-9.0,-5.0,2.0,2.0,4.0,20.0,45.0,1650846855738951.0
4.0,-2.0,-1.0,2.0,-6.0,-2.0,-1.0,12.0,1650846855738951.0
-2.0,-23.0,5.0,-10.0,-1.0,-3.0,-2.0,5.0,1650846855760892.0
-2.0,9.0,-4.0,4.0,1.0,1.0,0.0,-1.0,1650846855760892.0
3.0,-10.0,-10.0,-4.0,1.0,1.0,11.0,47.0,1650846855761890.0
-2.0,23.0,-5.0,14.0,0.0,4.0,-1.0,-3.0,1650846855761890.0
-8.0,-73.0,-10.0,-21.0,-2.0,-3.0,-4.0,-2.0,1650846855775873.0
4.0,23.0,-6.0,1.0,-6.0,-3.0,1.0,-4.0,1650846855775873.0
7.0,54.0,11.0,2.0,7.0,1.0,-4.0,-15.0,1650846855776850.0
-5.0,-19.0,-27.0,-19.0,-4.0,-2.0,1.0,9.0,1650846855776850.0
4.0,24.0,29.0,26.0,1.0,-2.0,-5.0,-16.0,1650846855797793.0
-12.0,-23.0,2.0,-21.0,-8.0,-1.0,0.0,9.0,1650846855797793.0
-4.0,-20.0,-12.0,-1.0,-1.0,-5.0,-5.0,-13.0,1650846855798790.0
-2.0,-8.0,-9.0,-8.0,0.0,-3.0,2.0,8.0,1650846855798790.0
4.0,34.0,30.0,1.0,-5.0,-1.0,-1.0,-8.0,1650846855820772.0
-2.0,-25.0,-14.0,-3.0,4.0,0.0,1.0,6.0,1650846855820772.0
-2.0,-10.0,2.0,4.0,-3.0,0.0,-4.0,-10.0,1650846855821760.0
3.0,7.0,2.0,10.0,9.0,4.0,2.0,3.0,1650846855821760.0
2.0,17.0,14.0,-16.0,-10.0,-2.0,-2.0,-1.0,1650846855835731.0
4.0,0.0,-12.0,35.0,21.0,8.0,5.0,7.0,1650846855835731.0
-1.0,5.0,13.0,-5.0,-7.0,-4.0,-5.0,-9.0,1650846855836723.0
0.0,-19.0,6.0,-7.0,-1.0,1.0,1.0,3.0,1650846855836723.0
0.0,23.0,-20.0,8.0,1.0,-2.0,0.0,-2.0,1650846855858450.0
-1.0,-20.0,29.0,0.0,-1.0,-3.0,0.0,0.0,1650846855858450.0
5.0,5.0,-23.0,0.0,7.0,6.0,-1.0,-5.0,1650846855865474.0
-2.0,1.0,9.0,3.0,-2.0,-1.0,1.0,8.0,1650846855865474.0
-5.0,5.0,-3.0,-8.0,0.0,1.0,-1.0,-7.0,1650846855880396.0
6.0,-17.0,-6.0,-7.0,-5.0,-2.0,3.0,6.0,1650846855880396.0
2.0,21.0,-3.0,2.0,-1.0,-3.0,-4.0,-5.0,1650846855881398.0
-2.0,2.0,-4.0,-7.0,-5.0,-1.0,4.0,8.0,1650846855881398.0
1.0,-6.0,7.0,5.0,4.0,2.0,0.0,-4.0,1650846855895394.0
-8.0,-12.0,0.0,-3.0,-4.0,-3.0,-4.0,-8.0,1650846855895394.0
0.0,-17.0,-4.0,-6.0,-2.0,-3.0,-2.0,-5.0,1650846855896352.0
-3.0,20.0,2.0,7.0,2.0,-2.0,-3.0,-2.0,1650846855896352.0
1.0,12.0,13.0,-1.0,-2.0,0.0,2.0,3.0,1650846855917336.0
3.0,12.0,-6.0,-14.0,-8.0,-1.0,-3.0,-4.0,1650846855917336.0
-3.0,-26.0,-8.0,-6.0,7.0,0.0,-2.0,-1.0,1650846855925275.0
-3.0,3.0,6.0,29.0,17.0,5.0,0.0,-1.0,1650846855925275.0
1.0,0.0,10.0,20.0,15.0,3.0,1.0,-4.0,1650846855941197.0
-6.0,-3.0,-3.0,10.0,7.0,4.0,1.0,-1.0,1650846855941197.0
-1.0,-6.0,-8.0,-14.0,-11.0,-2.0,-1.0,0.0,1650846855941197.0
2.0,-5.0,-2.0,-8.0,-11.0,-5.0,0.0,-1.0,1650846855941197.0
2.0,7.0,2.0,-13.0,-7.0,-3.0,0.0,1.0,1650846855964145.0
0.0,5.0,-2.0,-1.0,1.0,0.0,1.0,4.0,1650846855964145.0
-3.0,-5.0,3.0,7.0,-4.0,-1.0,-2.0,1.0,1650846855965135.0
-2.0,4.0,-2.0,2.0,-1.0,0.0,-1.0,-4.0,1650846855965135.0
1.0,23.0,4.0,-2.0,1.0,2.0,1.0,2.0,1650846855977131.0
-3.0,-17.0,-7.0,3.0,-3.0,-3.0,-3.0,0.0,1650846855977131.0
-1.0,-2.0,-1.0,-4.0,-3.0,-3.0,0.0,-3.0,1650846855986146.0
-1.0,-5.0,-7.0,-13.0,-8.0,0.0,-3.0,-1.0,1650846855986146.0
-1.0,9.0,3.0,3.0,0.0,0.0,-2.0,-1.0,1650846856001099.0
6.0,5.0,3.0,0.0,1.0,0.0,3.0,1.0,1650846856001099.0
-3.0,-14.0,-7.0,-7.0,-1.0,-4.0,-3.0,0.0,1650846856002037.0
0.0,4.0,-2.0,7.0,1.0,0.0,1.0,1.0,1650846856002037.0
-5.0,1.0,5.0,0.0,-3.0,-1.0,-2.0,-2.0,1650846856024981.0
4.0,-17.0,-16.0,-24.0,-13.0,-6.0,-2.0,1.0,1650846856024981.0
4.0,1.0,5.0,20.0,4.0,2.0,0.0,-1.0,1650846856025972.0
-4.0,1.0,6.0,3.0,3.0,-2.0,1.0,0.0,1650846856025972.0
-3.0,-3.0,-6.0,-8.0,-5.0,1.0,-2.0,-3.0,1650846856037940.0
0.0,2.0,-1.0,-4.0,-3.0,-1.0,-2.0,-1.0,1650846856037940.0
0.0,4.0,-4.0,-7.0,-7.0,0.0,0.0,-1.0,1650846856045946.0
2.0,-4.0,-3.0,-1.0,4.0,0.0,-2.0,1.0,1650846856045946.0
-1.0,-6.0,3.0,7.0,3.0,1.0,1.0,2.0,1650846856060906.0
-2.0,3.0,-4.0,-7.0,-6.0,-6.0,-2.0,-2.0,1650846856060906.0
3.0,5.0,1.0,-3.0,-2.0,0.0,1.0,1.0,1650846856061896.0
-1.0,-7.0,-1.0,2.0,-1.0,1.0,-1.0,0.0,1650846856061896.0
0.0,1.0,-2.0,2.0,2.0,-2.0,1.0,0.0,1650846856083614.0
0.0,4.0,2.0,6.0,2.0,1.0,1.0,0.0,1650846856083614.0
-2.0,5.0,3.0,3.0,2.0,1.0,1.0,0.0,1650846856084611.0
-2.0,-5.0,-2.0,-2.0,-1.0,-2.0,-2.0,0.0,1650846856084611.0
0.0,2.0,-2.0,-5.0,-5.0,-1.0,-2.0,0.0,1650846856097577.0
1.0,-1.0,1.0,3.0,-1.0,0.0,2.0,1.0,1650846856097577.0
-1.0,-2.0,-1.0,-1.0,0.0,0.0,-2.0,-3.0,1650846856105555.0
-1.0,2.0,-1.0,-4.0,-7.0,-4.0,0.0,-2.0,1650846856105555.0
2.0,-1.0,1.0,1.0,1.0,-2.0,-1.0,-1.0,1650846856120516.0
-4.0,3.0,1.0,1.0,6.0,1.0,0.0,-2.0,1650846856120516.0
2.0,-6.0,-1.0,-2.0,-2.0,0.0,0.0,0.0,1650846856121528.0
0.0,10.0,0.0,-1.0,0.0,0.0,0.0,-3.0,1650846856121528.0
2.0,1.0,-1.0,1.0,0.0,0.0,-1.0,-2.0,1650846856143454.0
0.0,-3.0,-1.0,0.0,1.0,1.0,-1.0,0.0,1650846856143454.0
-2.0,-3.0,1.0,-1.0,-2.0,-7.0,-2.0,0.0,1650846856144451.0
-1.0,-8.0,-1.0,-2.0,0.0,2.0,-2.0,0.0,1650846856144451.0
3.0,9.0,1.0,1.0,2.0,1.0,0.0,1.0,1650846856157444.0
-3.0,2.0,-2.0,-2.0,-2.0,-4.0,-1.0,-3.0,1650846856157444.0
1.0,2.0,1.0,0.0,-1.0,0.0,0.0,0.0,1650846856165403.0
-2.0,-1.0,-3.0,-7.0,-1.0,-2.0,-2.0,-2.0,1650846856165403.0
1.0,-1.0,2.0,8.0,-1.0,-1.0,-2.0,0.0,1650846856188454.0
0.0,-1.0,0.0,4.0,0.0,1.0,0.0,0.0,1650846856188454.0
-1.0,3.0,1.0,-4.0,1.0,1.0,0.0,-1.0,1650846856189452.0
1.0,1.0,1.0,5.0,2.0,2.0,0.0,3.0,1650846856189452.0
-3.0,0.0,-1.0,-4.0,0.0,1.0,0.0,0.0,1650846856203414.0
2.0,5.0,4.0,12.0,6.0,3.0,-1.0,0.0,1650846856203414.0
-4.0,-9.0,-8.0,-11.0,-10.0,-5.0,0.0,-3.0,1650846856210395.0
0.0,-1.0,2.0,4.0,4.0,0.0,0.0,0.0,1650846856210395.0
-1.0,-1.0,-2.0,-11.0,-6.0,-2.0,-3.0,0.0,1650846856226380.0
1.0,1.0,-1.0,0.0,1.0,1.0,-1.0,-1.0,1650846856226380.0
1.0,3.0,1.0,3.0,0.0,1.0,0.0,3.0,1650846856227351.0
0.0,-3.0,-1.0,-6.0,-4.0,-1.0,-2.0,0.0,1650846856227351.0
0.0,-1.0,-1.0,3.0,-1.0,-5.0,1.0,0.0,1650846856240315.0
-1.0,-4.0,1.0,0.0,-1.0,-1.0,-1.0,0.0,1650846856240315.0
0.0,-1.0,0.0,3.0,2.0,3.0,1.0,-1.0,1650846856241313.0
0.0,0.0,-1.0,-2.0,-2.0,1.0,0.0,-2.0,1650846856241313.0
-1.0,-1.0,0.0,-1.0,0.0,-1.0,1.0,0.0,1650846856264252.0
-2.0,0.0,-3.0,-3.0,0.0,-2.0,0.0,0.0,1650846856264252.0
0.0,3.0,1.0,0.0,1.0,1.0,-1.0,0.0,1650846856264252.0
0.0,-1.0,-3.0,0.0,0.0,0.0,0.0,-1.0,1650846856264252.0
0.0,-2.0,0.0,10.0,3.0,-1.0,0.0,0.0,1650846856286193.0
-2.0,-2.0,-2.0,-9.0,-6.0,-2.0,0.0,0.0,1650846856286193.0
1.0,4.0,2.0,5.0,7.0,2.0,1.0,0.0,1650846856287190.0
1.0,2.0,-2.0,1.0,2.0,0.0,-3.0,-2.0,1650846856287190.0
-2.0,-4.0,-2.0,-2.0,0.0,0.0,-2.0,-4.0,1650846856301157.0
1.0,-4.0,0.0,-2.0,0.0,-1.0,0.0,2.0,1650846856301157.0
1.0,-4.0,0.0,-2.0,-1.0,-1.0,1.0,1.0,1650846856301157.0
0.0,9.0,1.0,0.0,-4.0,-3.0,-1.0,3.0,1650846856301157.0
1.0,0.0,-1.0,-1.0,-1.0,-1.0,1.0,1.0,1650846856324164.0
0.0,1.0,0.0,3.0,2.0,2.0,0.0,-2.0,1650846856324164.0
0.0,0.0,-2.0,-1.0,-1.0,-1.0,-3.0,-1.0,1650846856325159.0
-2.0,-3.0,-2.0,-1.0,1.0,3.0,1.0,-1.0,1650846856325159.0
-1.0,0.0,0.0,-1.0,0.0,-1.0,-3.0,0.0,1650846856346103.0
-1.0,0.0,-3.0,0.0,2.0,1.0,0.0,1.0,1650846856346103.0
-2.0,-1.0,1.0,0.0,-2.0,-4.0,0.0,-1.0,1650846856347100.0
-1.0,-5.0,-2.0,-3.0,-4.0,-2.0,-2.0,-2.0,1650846856347100.0
1.0,11.0,0.0,-1.0,-1.0,0.0,-1.0,0.0,1650846856361100.0
0.0,-3.0,-2.0,-3.0,-3.0,-1.0,1.0,-1.0,1650846856361100.0
0.0,0.0,0.0,0.0,1.0,2.0,-2.0,-2.0,1650846856361100.0
1.0,-4.0,0.0,0.0,-1.0,1.0,0.0,-1.0,1650846856361100.0
0.0,-1.0,-2.0,-2.0,-4.0,0.0,0.0,-1.0,1650846856384041.0
1.0,-1.0,1.0,4.0,3.0,-2.0,-1.0,1.0,1650846856384041.0
0.0,3.0,-1.0,0.0,-2.0,-2.0,0.0,0.0,1650846856385034.0
0.0,1.0,-1.0,-2.0,-1.0,1.0,-1.0,-3.0,1650846856385034.0
-2.0,-5.0,-3.0,-3.0,-1.0,-2.0,-1.0,-1.0,1650846856406942.0
-1.0,0.0,1.0,-2.0,-1.0,1.0,0.0,0.0,1650846856406942.0
-2.0,-1.0,0.0,-2.0,-1.0,-4.0,-3.0,-1.0,1650846856406942.0
0.0,-4.0,-1.0,-1.0,-2.0,-3.0,2.0,0.0,1650846856406942.0
0.0,1.0,0.0,-2.0,-1.0,-1.0,-2.0,-1.0,1650846856420838.0
0.0,0.0,-5.0,-6.0,-4.0,0.0,-2.0,-4.0,1650846856420838.0
-1.0,-1.0,-1.0,2.0,1.0,0.0,0.0,0.0,1650846856427809.0
0.0,4.0,2.0,-2.0,3.0,-1.0,0.0,-1.0,1650846856427809.0
-3.0,-4.0,-1.0,-3.0,0.0,-1.0,0.0,0.0,1650846856443771.0
0.0,0.0,-2.0,-8.0,-4.0,-5.0,-2.0,-1.0,1650846856443771.0
2.0,-2.0,-2.0,-2.0,-4.0,-1.0,-1.0,-1.0,1650846856444736.0
-1.0,-1.0,0.0,-1.0,-2.0,-1.0,0.0,1.0,1650846856444736.0
-1.0,-4.0,0.0,2.0,5.0,2.0,1.0,1.0,1650846856466715.0
0.0,-1.0,1.0,0.0,0.0,0.0,0.0,0.0,1650846856466715.0
-2.0,1.0,2.0,8.0,1.0,-3.0,1.0,1.0,1650846856467676.0
0.0,-2.0,-4.0,-2.0,-1.0,-2.0,-1.0,-1.0,1650846856467676.0
-2.0,-1.0,-3.0,-3.0,-3.0,-1.0,-1.0,2.0,1650846856480666.0
-1.0,-3.0,-2.0,-3.0,0.0,0.0,2.0,0.0,1650846856480666.0
-1.0,1.0,0.0,-3.0,-3.0,-1.0,0.0,-3.0,1650846856481637.0
1.0,-1.0,-1.0,-1.0,-2.0,-3.0,-3.0,-1.0,1650846856481637.0
0.0,-1.0,1.0,2.0,-1.0,3.0,1.0,-3.0,1650846856503741.0
-1.0,3.0,-1.0,2.0,0.0,0.0,-1.0,0.0,1650846856503741.0
-2.0,-2.0,-1.0,-1.0,0.0,-1.0,-1.0,0.0,1650846856504705.0
-1.0,-2.0,1.0,4.0,0.0,1.0,-1.0,0.0,1650846856504705.0
-1.0,-4.0,-2.0,-3.0,-5.0,-1.0,-1.0,-2.0,1650846856526645.0
-1.0,1.0,0.0,2.0,0.0,0.0,-1.0,-1.0,1650846856526645.0
0.0,0.0,-1.0,-2.0,-3.0,-1.0,0.0,-1.0,1650846856527642.0
-1.0,0.0,1.0,-1.0,-1.0,0.0,0.0,-2.0,1650846856527642.0
0.0,2.0,1.0,1.0,1.0,1.0,1.0,1.0,1650846856540642.0
-1.0,-1.0,-2.0,-2.0,-4.0,-1.0,-1.0,1.0,1650846856540642.0
-1.0,-1.0,0.0,3.0,9.0,4.0,1.0,0.0,1650846856541606.0
-2.0,-1.0,0.0,7.0,0.0,-1.0,0.0,1.0,1650846856541606.0
0.0,1.0,2.0,2.0,0.0,-1.0,-2.0,0.0,1650846856563580.0
0.0,0.0,-1.0,-1.0,0.0,-2.0,-2.0,-1.0,1650846856563580.0
0.0,-1.0,-1.0,-4.0,-3.0,0.0,-1.0,-1.0,1650846856564545.0
1.0,-1.0,-1.0,-2.0,0.0,2.0,0.0,0.0,1650846856564545.0
-2.0,0.0,0.0,1.0,-1.0,-2.0,-1.0,-1.0,1650846856586524.0
1.0,-1.0,1.0,3.0,2.0,0.0,0.0,1.0,1650846856586524.0
-1.0,-2.0,-1.0,0.0,-1.0,1.0,-1.0,0.0,1650846856587483.0
1.0,0.0,0.0,0.0,1.0,1.0,1.0,0.0,1650846856587483.0
2.0,1.0,-2.0,-2.0,1.0,-2.0,2.0,1.0,1650846856600487.0
-3.0,-6.0,-3.0,-1.0,-3.0,-2.0,0.0,-2.0,1650846856600487.0
0.0,-1.0,-2.0,-2.0,-2.0,-3.0,-2.0,-1.0,1650846856601446.0
0.0,-1.0,-2.0,-3.0,1.0,-2.0,-1.0,-1.0,1650846856601446.0
2.0,0.0,0.0,0.0,0.0,-1.0,0.0,0.0,1650846856623387.0
-1.0,3.0,-1.0,-1.0,1.0,0.0,1.0,1.0,1650846856623387.0
-1.0,-1.0,-2.0,-1.0,-3.0,0.0,0.0,1.0,1650846856624405.0
-1.0,-2.0,1.0,0.0,1.0,-1.0,-1.0,-1.0,1650846856624405.0
1.0,1.0,1.0,1.0,1.0,0.0,0.0,1.0,1650846856646325.0
-1.0,-1.0,-1.0,1.0,0.0,1.0,-1.0,-1.0,1650846856646325.0
-1.0,-2.0,-2.0,-1.0,-1.0,0.0,-1.0,0.0,1650846856647323.0
-1.0,5.0,-3.0,-2.0,0.0,0.0,1.0,-1.0,1650846856647323.0
1.0,-4.0,-2.0,-1.0,-1.0,-2.0,0.0,0.0,1650846856661307.0
1.0,0.0,1.0,1.0,-1.0,-2.0,-1.0,-2.0,1650846856661307.0
-1.0,-2.0,-1.0,-2.0,-2.0,-1.0,-3.0,0.0,1650846856662303.0
-1.0,-2.0,0.0,-2.0,-1.0,0.0,0.0,0.0,1650846856662303.0
0.0,0.0,-1.0,1.0,-2.0,0.0,1.0,0.0,1650846856683273.0
-2.0,0.0,0.0,2.0,-2.0,-2.0,0.0,-1.0,1650846856683273.0
1.0,1.0,0.0,2.0,1.0,4.0,2.0,0.0,1650846856684224.0
0.0,-1.0,1.0,0.0,-4.0,-1.0,-3.0,0.0,1650846856684224.0
-3.0,-1.0,-1.0,-3.0,2.0,1.0,0.0,-2.0,1650846856706164.0
1.0,0.0,-3.0,1.0,-1.0,-1.0,0.0,1.0,1650846856706164.0
-1.0,1.0,1.0,2.0,2.0,-1.0,1.0,-3.0,1650846856707162.0
-2.0,-1.0,-3.0,0.0,-1.0,-3.0,-2.0,0.0,1650846856707162.0
0.0,1.0,1.0,-1.0,0.0,1.0,1.0,-1.0,1650846856720886.0
-2.0,-1.0,1.0,-1.0,0.0,0.0,-1.0,-2.0,1650846856720886.0
0.0,-3.0,0.0,0.0,-1.0,-1.0,-2.0,0.0,1650846856721816.0
0.0,0.0,-2.0,0.0,-1.0,-1.0,1.0,0.0,1650846856721816.0
-2.0,0.0,0.0,0.0,-2.0,0.0,-3.0,-2.0,1650846856743785.0
0.0,0.0,1.0,0.0,1.0,0.0,0.0,0.0,1650846856743785.0
-1.0,1.0,0.0,-1.0,-3.0,-4.0,-1.0,0.0,1650846856744754.0
0.0,-2.0,1.0,-3.0,1.0,2.0,-2.0,1.0,1650846856744754.0
1.0,-1.0,-2.0,0.0,-2.0,1.0,1.0,2.0,1650846856766697.0
1.0,-1.0,1.0,-2.0,1.0,0.0,1.0,-2.0,1650846856766697.0
-1.0,0.0,-2.0,-1.0,-2.0,-1.0,-1.0,-1.0,1650846856767703.0
-2.0,0.0,-3.0,0.0,-2.0,-2.0,0.0,-1.0,1650846856767703.0
-1.0,-1.0,-2.0,-2.0,-2.0,-1.0,-1.0,1.0,1650846856779688.0
-2.0,0.0,1.0,-3.0,-1.0,2.0,0.0,1.0,1650846856779688.0
2.0,1.0,0.0,-1.0,0.0,1.0,-1.0,0.0,1650846856788720.0
-1.0,-4.0,-2.0,0.0,-1.0,-2.0,-1.0,-2.0,1650846856788720.0
1.0,-2.0,-2.0,-2.0,-4.0,-1.0,0.0,-4.0,1650846856802894.0
-3.0,0.0,-2.0,-1.0,-2.0,0.0,0.0,1.0,1650846856802894.0
-2.0,1.0,-1.0,-2.0,-1.0,-2.0,-1.0,1.0,1650846856803833.0
-1.0,-2.0,0.0,1.0,0.0,-2.0,1.0,1.0,1650846856803833.0
-1.0,1.0,3.0,1.0,1.0,2.0,-2.0,1.0,1650846856826760.0
0.0,0.0,-1.0,1.0,0.0,0.0,0.0,0.0,1650846856826760.0
0.0,-3.0,-2.0,0.0,1.0,-1.0,-1.0,0.0,1650846856826760.0
1.0,3.0,0.0,0.0,1.0,-1.0,0.0,-1.0,1650846856826760.0
-2.0,-4.0,-5.0,-2.0,0.0,-3.0,-2.0,-2.0,1650846856839754.0
-2.0,0.0,0.0,-1.0,-1.0,-1.0,0.0,0.0,1650846856839754.0
1.0,0.0,0.0,-3.0,0.0,-1.0,0.0,0.0,1650846856848703.0
0.0,2.0,0.0,-4.0,-2.0,0.0,-1.0,-1.0,1650846856848703.0
1.0,0.0,2.0,4.0,3.0,0.0,0.0,-1.0,1650846856863688.0
-2.0,-2.0,0.0,0.0,1.0,-1.0,0.0,0.0,1650846856863688.0
0.0,0.0,0.0,-1.0,-1.0,-2.0,1.0,-3.0,1650846856863688.0
1.0,-1.0,-1.0,1.0,0.0,1.0,-3.0,-1.0,1650846856863688.0
1.0,-2.0,-3.0,-2.0,-1.0,-2.0,1.0,0.0,1650846856886669.0
0.0,0.0,-1.0,0.0,-4.0,-1.0,0.0,0.0,1650846856886669.0
0.0,1.0,-1.0,1.0,0.0,0.0,1.0,-1.0,1650846856887618.0
-1.0,-1.0,1.0,-1.0,-3.0,0.0,1.0,-1.0,1650846856887618.0
0.0,-2.0,-1.0,1.0,3.0,0.0,-1.0,-1.0,1650846856900591.0
1.0,-1.0,-3.0,-2.0,-2.0,-3.0,-2.0,-1.0,1650846856900591.0
0.0,0.0,0.0,-1.0,-1.0,0.0,-1.0,0.0,1650846856908570.0
-1.0,0.0,-1.0,0.0,1.0,0.0,-1.0,0.0,1650846856908570.0
-2.0,-1.0,0.0,2.0,0.0,-1.0,0.0,0.0,1650846856923661.0
1.0,1.0,-1.0,-2.0,0.0,-1.0,0.0,-3.0,1650846856923661.0
-4.0,-8.0,-5.0,-1.0,-2.0,-1.0,0.0,-1.0,1650846856923661.0
-2.0,0.0,0.0,2.0,1.0,0.0,2.0,0.0,1650846856923661.0
1.0,2.0,2.0,-4.0,-2.0,2.0,-1.0,0.0,1650846856946570.0
0.0,0.0,-2.0,0.0,0.0,-1.0,0.0,0.0,1650846856946570.0
-1.0,0.0,1.0,1.0,1.0,3.0,0.0,0.0,1650846856947557.0
0.0,0.0,-1.0,-2.0,-1.0,-2.0,1.0,-1.0,1650846856947557.0
1.0,1.0,0.0,-1.0,-1.0,-2.0,-1.0,0.0,1650846856960501.0
0.0,-1.0,-2.0,-3.0,-5.0,0.0,0.0,1.0,1650846856960501.0
-1.0,1.0,1.0,-2.0,1.0,-1.0,-3.0,0.0,1650846856967721.0
0.0,-3.0,1.0,1.0,-1.0,-2.0,2.0,0.0,1650846856967721.0
0.0,6.0,0.0,-1.0,2.0,0.0,-3.0,-1.0,1650846856983692.0
-5.0,-10.0,-4.0,1.0,-1.0,0.0,-2.0,-3.0,1650846856983692.0
2.0,3.0,4.0,0.0,-4.0,-2.0,1.0,0.0,1650846856983692.0
-1.0,-2.0,1.0,2.0,2.0,1.0,0.0,0.0,1650846856983692.0
-2.0,-3.0,-7.0,3.0,-1.0,1.0,1.0,0.0,1650846857006618.0
-1.0,2.0,-8.0,-8.0,-1.0,-1.0,0.0,0.0,1650846857006618.0
-4.0,-5.0,-5.0,-5.0,-3.0,-2.0,-1.0,-3.0,1650846857007616.0
0.0,-2.0,-3.0,-5.0,-3.0,-2.0,-3.0,-1.0,1650846857007616.0
0.0,0.0,7.0,5.0,3.0,1.0,1.0,1.0,1650846857019791.0
1.0,2.0,3.0,4.0,0.0,3.0,0.0,1.0,1650846857019791.0
-1.0,-2.0,-2.0,6.0,5.0,1.0,1.0,1.0,1650846857028701.0
0.0,3.0,4.0,0.0,1.0,0.0,0.0,-1.0,1650846857028701.0
-1.0,-2.0,-4.0,-4.0,-4.0,-4.0,0.0,-2.0,1650846857043661.0
-1.0,-1.0,2.0,1.0,1.0,1.0,-2.0,0.0,1650846857043661.0
1.0,0.0,-2.0,-1.0,0.0,1.0,-3.0,0.0,1650846857043661.0
0.0,1.0,-1.0,0.0,-1.0,1.0,0.0,1.0,1650846857043661.0
0.0,1.0,-2.0,-1.0,-4.0,-1.0,2.0,0.0,1650846857066600.0
-1.0,-3.0,-1.0,2.0,1.0,-2.0,0.0,-1.0,1650846857066600.0
-2.0,-2.0,-1.0,-3.0,-1.0,0.0,-1.0,0.0,1650846857067599.0
-1.0,-4.0,-8.0,2.0,1.0,0.0,-1.0,-2.0,1650846857067599.0
3.0,1.0,-8.0,-12.0,-2.0,0.0,1.0,0.0,1650846857080589.0
2.0,4.0,11.0,8.0,1.0,0.0,0.0,0.0,1650846857080589.0
-1.0,2.0,-7.0,-1.0,0.0,0.0,0.0,-3.0,1650846857088611.0
0.0,7.0,13.0,3.0,-1.0,-4.0,0.0,1.0,1650846857088611.0
-4.0,-16.0,-17.0,-6.0,-4.0,-2.0,-4.0,-2.0,1650846857103571.0
-2.0,-4.0,2.0,-7.0,-3.0,-2.0,0.0,-1.0,1650846857103571.0
-2.0,-7.0,-5.0,-4.0,-1.0,-2.0,-1.0,0.0,1650846857104512.0
0.0,4.0,10.0,-2.0,-2.0,-2.0,-4.0,0.0,1650846857104512.0
0.0,-1.0,-4.0,-1.0,3.0,4.0,2.0,-1.0,1650846857126850.0
1.0,2.0,-5.0,-1.0,0.0,-1.0,-1.0,1.0,1650846857126850.0
-1.0,-3.0,1.0,0.0,-4.0,-4.0,0.0,-2.0,1650846857126850.0
1.0,-1.0,-3.0,-2.0,0.0,-2.0,0.0,0.0,1650846857126850.0
0.0,3.0,21.0,7.0,-5.0,-6.0,-6.0,-1.0,1650846857148885.0
0.0,-6.0,-20.0,-3.0,1.0,-3.0,-1.0,0.0,1650846857148885.0
3.0,15.0,16.0,9.0,5.0,-3.0,-7.0,-3.0,1650846857149890.0
1.0,-9.0,-8.0,-7.0,-1.0,17.0,16.0,8.0,1650846857149890.0
-4.0,0.0,-6.0,-3.0,2.0,7.0,5.0,-4.0,1650846857162874.0
-1.0,-1.0,-5.0,-5.0,-5.0,3.0,2.0,-1.0,1650846857162874.0
-2.0,-4.0,-12.0,-9.0,1.0,3.0,1.0,1.0,1650846857163844.0
-1.0,3.0,15.0,1.0,-1.0,-11.0,-10.0,-5.0,1650846857163844.0
4.0,8.0,-5.0,-3.0,-1.0,0.0,0.0,5.0,1650846857193842.0
4.0,11.0,36.0,19.0,7.0,0.0,-2.0,4.0,1650846857193842.0
-3.0,-1.0,10.0,5.0,1.0,-5.0,0.0,-2.0,1650846857194812.0
4.0,-9.0,-26.0,-10.0,-4.0,6.0,2.0,2.0,1650846857194812.0
-5.0,5.0,27.0,12.0,2.0,1.0,-1.0,-2.0,1650846857208889.0
2.0,-15.0,-31.0,-6.0,-2.0,-4.0,-4.0,4.0,1650846857208889.0
-8.0,6.0,16.0,0.0,-3.0,-1.0,2.0,-3.0,1650846857209888.0
6.0,-10.0,-43.0,-3.0,0.0,-3.0,-8.0,-17.0,1650846857209888.0
18.0,25.0,51.0,9.0,5.0,3.0,9.0,29.0,1650846857222924.0
-1.0,-8.0,-21.0,2.0,1.0,3.0,11.0,5.0,1650846857222924.0
6.0,6.0,25.0,11.0,-4.0,-2.0,-12.0,-10.0,1650846857223850.0
-6.0,-18.0,-48.0,-29.0,-3.0,4.0,7.0,17.0,1650846857223850.0
-12.0,9.0,29.0,13.0,-4.0,-6.0,-12.0,-57.0,1650846857246837.0
12.0,13.0,29.0,-8.0,2.0,6.0,12.0,48.0,1650846857246837.0
1.0,18.0,38.0,21.0,0.0,-9.0,-19.0,-62.0,1650846857246837.0
4.0,-2.0,-4.0,-4.0,3.0,19.0,24.0,66.0,1650846857246837.0
-10.0,-2.0,-32.0,-9.0,1.0,1.0,-1.0,7.0,1650846857268798.0
-17.0,-10.0,16.0,2.0,-1.0,0.0,1.0,-28.0,1650846857268798.0
6.0,-38.0,-43.0,-14.0,-4.0,-6.0,1.0,15.0,1650846857269741.0
-13.0,-1.0,10.0,10.0,-1.0,-9.0,-12.0,-25.0,1650846857269741.0
-1.0,10.0,-2.0,-2.0,0.0,-2.0,-2.0,4.0,1650846857283690.0
-8.0,-27.0,13.0,1.0,0.0,0.0,3.0,10.0,1650846857283690.0
6.0,16.0,-39.0,-13.0,-3.0,5.0,8.0,28.0,1650846857283690.0
-5.0,11.0,64.0,16.0,0.0,-9.0,-18.0,-53.0,1650846857283690.0
-1.0,-14.0,-75.0,-18.0,-3.0,2.0,1.0,1.0,1650846857306628.0
8.0,-9.0,-2.0,-2.0,2.0,2.0,-4.0,2.0,1650846857306628.0
-3.0,-35.0,-36.0,-10.0,-3.0,-1.0,3.0,6.0,1650846857307640.0
9.0,60.0,63.0,10.0,1.0,4.0,6.0,40.0,1650846857307640.0
-6.0,14.0,0.0,3.0,2.0,-1.0,-6.0,-30.0,1650846857328592.0
-3.0,12.0,-47.0,2.0,1.0,-4.0,-10.0,-17.0,1650846857328592.0
-11.0,-25.0,42.0,10.0,2.0,6.0,23.0,39.0,1650846857329590.0
1.0,21.0,-22.0,-13.0,-3.0,-2.0,-14.0,-47.0,1650846857329590.0
-1.0,-9.0,30.0,14.0,7.0,2.0,0.0,13.0,1650846857343553.0
11.0,-21.0,-48.0,-17.0,-7.0,-7.0,-1.0,18.0,1650846857343553.0
18.0,35.0,31.0,9.0,2.0,-2.0,-2.0,26.0,1650846857343553.0
-34.0,-62.0,-51.0,-8.0,-7.0,-3.0,4.0,-11.0,1650846857343553.0
-12.0,-2.0,-17.0,-21.0,-4.0,-5.0,-7.0,-15.0,1650846857366492.0
-4.0,16.0,-8.0,7.0,-2.0,-2.0,-8.0,-28.0,1650846857366492.0
-4.0,-10.0,-55.0,-27.0,-5.0,0.0,8.0,32.0,1650846857367490.0
2.0,21.0,35.0,16.0,2.0,-9.0,-8.0,-9.0,1650846857367490.0
12.0,-37.0,-40.0,-12.0,-3.0,-4.0,-4.0,11.0,1650846857389606.0
7.0,-7.0,15.0,3.0,4.0,14.0,20.0,57.0,1650846857389606.0
-9.0,27.0,24.0,6.0,-4.0,0.0,-31.0,-111.0,1650846857390610.0
-4.0,-15.0,-43.0,-14.0,-1.0,-6.0,-12.0,-8.0,1650846857390610.0
7.0,23.0,23.0,21.0,1.0,0.0,18.0,27.0,1650846857403789.0
-10.0,0.0,-7.0,-21.0,-11.0,-12.0,-10.0,-13.0,1650846857403789.0
4.0,-17.0,-1.0,15.0,5.0,4.0,1.0,9.0,1650846857403789.0
-6.0,-42.0,40.0,12.0,6.0,5.0,10.0,0.0,1650846857403789.0
9.0,38.0,-26.0,-29.0,-24.0,-11.0,-22.0,-53.0,1650846857426858.0
-11.0,-11.0,31.0,52.0,37.0,9.0,-2.0,-3.0,1650846857426858.0
7.0,-2.0,-31.0,-28.0,-3.0,3.0,4.0,-2.0,1650846857426858.0
-27.0,8.0,22.0,17.0,1.0,-2.0,1.0,-11.0,1650846857426858.0
13.0,26.0,43.0,-9.0,-2.0,1.0,11.0,40.0,1650846857449006.0
-21.0,-32.0,12.0,4.0,-12.0,-6.0,-7.0,-29.0,1650846857449006.0
6.0,41.0,9.0,9.0,5.0,4.0,0.0,-6.0,1650846857449973.0
24.0,30.0,-9.0,8.0,7.0,4.0,19.0,57.0,1650846857449973.0
6.0,-28.0,29.0,9.0,-8.0,-8.0,8.0,27.0,1650846857463776.0
4.0,0.0,10.0,-21.0,-10.0,1.0,2.0,-5.0,1650846857463776.0
-3.0,5.0,20.0,18.0,9.0,1.0,2.0,9.0,1650846857463776.0
16.0,-20.0,-43.0,-14.0,-6.0,0.0,6.0,20.0,1650846857463776.0
-15.0,-29.0,8.0,5.0,-2.0,-6.0,0.0,-2.0,1650846857486833.0
0.0,2.0,19.0,-6.0,3.0,9.0,3.0,-19.0,1650846857486833.0
15.0,44.0,24.0,-18.0,-10.0,0.0,25.0,62.0,1650846857486833.0
4.0,-38.0,-63.0,5.0,5.0,-4.0,-29.0,-49.0,1650846857486833.0
-6.0,50.0,30.0,16.0,12.0,14.0,11.0,-7.0,1650846857510515.0
2.0,68.0,39.0,28.0,21.0,8.0,-7.0,-25.0,1650846857510515.0
-9.0,-77.0,-47.0,-29.0,-5.0,8.0,9.0,30.0,1650846857512439.0
1.0,-42.0,65.0,0.0,-13.0,-7.0,-6.0,-23.0,1650846857512439.0
-10.0,-43.0,-19.0,-5.0,-4.0,-8.0,-13.0,1.0,1650846857523460.0
7.0,40.0,-46.0,-27.0,-10.0,-5.0,-5.0,-5.0,1650846857523460.0
2.0,62.0,59.0,52.0,12.0,-1.0,-2.0,3.0,1650846857524395.0
6.0,-54.0,-77.0,-32.0,-10.0,-6.0,-7.0,11.0,1650846857524395.0
9.0,9.0,-22.0,-21.0,1.0,4.0,10.0,11.0,1650846857546403.0
-3.0,-6.0,25.0,25.0,-4.0,-8.0,-23.0,-76.0,1650846857546403.0
-6.0,-49.0,-30.0,-6.0,6.0,3.0,4.0,33.0,1650846857547341.0
20.0,107.0,57.0,19.0,1.0,3.0,8.0,16.0,1650846857547341.0
-29.0,-99.0,-51.0,6.0,-3.0,-19.0,-14.0,5.0,1650846857569298.0
7.0,9.0,3.0,-33.0,-7.0,17.0,9.0,16.0,1650846857569298.0
-19.0,-17.0,1.0,5.0,6.0,5.0,-3.0,-42.0,1650846857569298.0
4.0,26.0,-5.0,24.0,1.0,-3.0,0.0,21.0,1650846857569298.0
8.0,-6.0,-12.0,-18.0,-6.0,5.0,12.0,34.0,1650846857583263.0
4.0,17.0,46.0,0.0,-4.0,-8.0,3.0,24.0,1650846857583263.0
-4.0,-20.0,-59.0,-10.0,-11.0,-10.0,-21.0,-31.0,1650846857584260.0
-18.0,-14.0,-9.0,-18.0,1.0,4.0,-5.0,-53.0,1650846857584260.0
-5.0,7.0,14.0,-2.0,-11.0,-12.0,-12.0,-17.0,1650846857606269.0
-3.0,21.0,-41.0,-8.0,-9.0,-8.0,3.0,41.0,1650846857606269.0
15.0,-28.0,56.0,16.0,12.0,7.0,10.0,6.0,1650846857607199.0
4.0,13.0,-10.0,-9.0,-1.0,-3.0,1.0,11.0,1650846857607199.0
6.0,24.0,-11.0,-14.0,-3.0,3.0,5.0,3.0,1650846857629207.0
-14.0,-39.0,-33.0,26.0,1.0,-4.0,-12.0,-58.0,1650846857629207.0
1.0,20.0,10.0,-17.0,-12.0,-5.0,-3.0,-18.0,1650846857630138.0
-4.0,-9.0,-5.0,-16.0,-4.0,3.0,0.0,7.0,1650846857630138.0
-2.0,11.0,29.0,28.0,15.0,6.0,10.0,42.0,1650846857643250.0
1.0,-84.0,-10.0,-31.0,-20.0,-5.0,6.0,2.0,1650846857643250.0
-16.0,44.0,17.0,5.0,3.0,5.0,0.0,-9.0,1650846857644249.0
-14.0,-59.0,-37.0,-5.0,0.0,-4.0,0.0,-27.0,1650846857644249.0
7.0,80.0,30.0,16.0,2.0,6.0,-9.0,-23.0,1650846857666837.0
37.0,35.0,-5.0,12.0,11.0,3.0,27.0,93.0,1650846857666837.0
-29.0,-12.0,-6.0,-9.0,-11.0,-21.0,-50.0,-106.0,1650846857667834.0
0.0,-55.0,-28.0,-23.0,2.0,17.0,8.0,4.0,1650846857667834.0
11.0,-22.0,46.0,21.0,12.0,6.0,2.0,-13.0,1650846857688778.0
-6.0,-18.0,-36.0,-4.0,8.0,0.0,5.0,9.0,1650846857688778.0
2.0,-2.0,-64.0,-17.0,-19.0,-17.0,-8.0,2.0,1650846857689775.0
-6.0,29.0,49.0,10.0,0.0,3.0,17.0,44.0,1650846857689775.0
1.0,-13.0,-17.0,-8.0,-1.0,1.0,-11.0,-25.0,1650846857702805.0
-10.0,-6.0,-26.0,-13.0,-9.0,-6.0,-6.0,-2.0,1650846857702805.0
-6.0,-67.0,7.0,7.0,8.0,5.0,14.0,11.0,1650846857710718.0
-13.0,32.0,-5.0,5.0,2.0,-2.0,1.0,-17.0,1650846857710718.0
4.0,-9.0,-44.0,-31.0,-8.0,2.0,3.0,2.0,1650846857726675.0
-22.0,-29.0,41.0,16.0,-4.0,-1.0,-5.0,-1.0,1650846857726675.0
7.0,18.0,-23.0,-24.0,1.0,2.0,-21.0,-39.0,1650846857727676.0
18.0,95.0,14.0,1.0,-6.0,-6.0,5.0,35.0,1650846857727676.0
-5.0,-42.0,11.0,11.0,5.0,-1.0,-5.0,-1.0,1650846857749353.0
-14.0,5.0,-2.0,-3.0,-10.0,-3.0,6.0,9.0,1650846857749353.0
1.0,-22.0,-25.0,-2.0,20.0,13.0,11.0,12.0,1650846857749758.0
8.0,-9.0,37.0,15.0,4.0,4.0,1.0,8.0,1650846857749758.0
2.0,6.0,-13.0,5.0,0.0,-2.0,0.0,-5.0,1650846857762793.0
-3.0,0.0,-18.0,-13.0,1.0,-14.0,-17.0,15.0,1650846857762793.0
1.0,30.0,21.0,-10.0,-11.0,25.0,46.0,67.0,1650846857770819.0
9.0,-13.0,-25.0,-16.0,-1.0,-4.0,-31.0,-99.0,1650846857770819.0
7.0,28.0,53.0,28.0,7.0,3.0,6.0,9.0,1650846857786876.0
1.0,5.0,21.0,0.0,-8.0,-9.0,-16.0,-38.0,1650846857786876.0
-3.0,-45.0,-19.0,-15.0,-7.0,-9.0,13.0,72.0,1650846857787806.0
5.0,7.0,15.0,15.0,1.0,-7.0,0.0,12.0,1650846857787806.0
-9.0,-15.0,-15.0,-28.0,-9.0,-1.0,-3.0,-6.0,1650846857809814.0
-2.0,7.0,17.0,8.0,10.0,7.0,-3.0,-28.0,1650846857809814.0
13.0,43.0,15.0,11.0,-3.0,-7.0,0.0,7.0,1650846857810757.0
-12.0,-28.0,-34.0,-27.0,-10.0,0.0,12.0,48.0,1650846857810757.0
8.0,67.0,25.0,27.0,4.0,-4.0,-12.0,-21.0,1650846857822776.0
-2.0,-36.0,-64.0,-14.0,3.0,2.0,2.0,19.0,1650846857822776.0
-10.0,-9.0,72.0,22.0,-3.0,-8.0,3.0,18.0,1650846857831693.0
-8.0,-27.0,-19.0,10.0,-2.0,-9.0,-30.0,-49.0,1650846857831693.0
17.0,53.0,-12.0,-20.0,-7.0,-4.0,2.0,4.0,1650846857846716.0
7.0,33.0,0.0,-5.0,-4.0,1.0,0.0,-7.0,1650846857846716.0
2.0,-27.0,41.0,19.0,10.0,8.0,2.0,-18.0,1650846857847646.0
6.0,20.0,5.0,8.0,0.0,0.0,11.0,28.0,1650846857847646.0
-15.0,-36.0,-20.0,-3.0,-2.0,-4.0,1.0,0.0,1650846857868591.0
0.0,-18.0,-5.0,-9.0,-5.0,-2.0,-6.0,-26.0,1650846857868591.0
7.0,14.0,-8.0,-16.0,-8.0,-6.0,-6.0,-9.0,1650846857870585.0
-7.0,-11.0,19.0,1.0,-2.0,-2.0,-5.0,-10.0,1650846857870585.0
-15.0,-36.0,-53.0,19.0,8.0,7.0,26.0,46.0,1650846857882580.0
17.0,101.0,76.0,29.0,8.0,2.0,-1.0,15.0,1650846857882580.0
-6.0,-23.0,-51.0,-23.0,-10.0,-6.0,-5.0,-19.0,1650846857891528.0
-6.0,-19.0,-24.0,-13.0,-7.0,-3.0,19.0,53.0,1650846857891528.0
10.0,-32.0,-2.0,3.0,1.0,-7.0,-42.0,-68.0,1650846857905561.0
-27.0,13.0,26.0,7.0,3.0,4.0,1.0,-49.0,1650846857905561.0
1.0,-57.0,-13.0,13.0,1.0,2.0,4.0,24.0,1650846857914156.0
3.0,36.0,46.0,20.0,10.0,2.0,-1.0,-4.0,1650846857914156.0
-2.0,22.0,-3.0,-8.0,-2.0,-2.0,-4.0,-5.0,1650846857929139.0
8.0,-23.0,-14.0,-2.0,2.0,6.0,10.0,18.0,1650846857929139.0
7.0,8.0,-7.0,-4.0,-3.0,-4.0,-11.0,-24.0,1650846857930109.0
1.0,21.0,47.0,5.0,3.0,0.0,3.0,16.0,1650846857930109.0
-9.0,-39.0,9.0,-7.0,-3.0,1.0,-1.0,-4.0,1650846857942097.0
17.0,20.0,-11.0,-7.0,-5.0,-4.0,-4.0,-4.0,1650846857942097.0
-5.0,28.0,3.0,-8.0,4.0,4.0,2.0,5.0,1650846857952060.0
4.0,-24.0,4.0,15.0,-4.0,-6.0,1.0,9.0,1650846857952060.0
2.0,-8.0,-41.0,-32.0,12.0,10.0,9.0,6.0,1650846857965015.0
2.0,20.0,76.0,27.0,-9.0,-2.0,-1.0,7.0,1650846857965015.0
6.0,34.0,8.0,13.0,10.0,0.0,-9.0,-17.0,1650846857973995.0
-3.0,-60.0,-31.0,-13.0,-5.0,0.0,9.0,33.0,1650846857973995.0
-1.0,8.0,28.0,15.0,-4.0,-4.0,-15.0,-68.0,1650846857988972.0
-3.0,-36.0,-61.0,-39.0,-8.0,-2.0,11.0,38.0,1650846857988972.0
0.0,64.0,20.0,14.0,3.0,0.0,-4.0,-35.0,1650846857990946.0
-1.0,-28.0,-3.0,3.0,5.0,7.0,-1.0,-13.0,1650846857990946.0
1.0,-5.0,-21.0,-24.0,-12.0,-3.0,10.0,15.0,1650846858002934.0
4.0,24.0,53.0,28.0,9.0,0.0,-4.0,10.0,1650846858002934.0
-22.0,-107.0,-39.0,-5.0,-4.0,0.0,0.0,-13.0,1650846858011891.0
10.0,105.0,-19.0,-6.0,3.0,0.0,-9.0,-13.0,1650846858011891.0
-4.0,-20.0,-29.0,-7.0,-5.0,3.0,11.0,39.0,1650846858026906.0
-2.0,-26.0,-23.0,-17.0,-4.0,-4.0,-4.0,3.0,1650846858026906.0
5.0,-1.0,8.0,28.0,15.0,7.0,7.0,26.0,1650846858027848.0
-13.0,-1.0,-8.0,-2.0,-4.0,-3.0,-8.0,-2.0,1650846858027848.0
-16.0,6.0,7.0,-10.0,-8.0,-3.0,-4.0,-36.0,1650846858048983.0
4.0,-6.0,-15.0,3.0,0.0,-2.0,-4.0,-4.0,1650846858048983.0
3.0,-40.0,-17.0,-7.0,-6.0,-1.0,3.0,20.0,1650846858051002.0
-11.0,43.0,22.0,-29.0,-5.0,4.0,12.0,2.0,1650846858051002.0
7.0,19.0,4.0,32.0,6.0,-2.0,-13.0,-20.0,1650846858063015.0
-12.0,-56.0,-10.0,-4.0,2.0,-1.0,0.0,-7.0,1650846858063015.0
10.0,79.0,22.0,-3.0,-11.0,-6.0,-3.0,1.0,1650846858071894.0
7.0,-47.0,-17.0,5.0,2.0,1.0,2.0,2.0,1650846858071894.0
-9.0,-26.0,-3.0,-28.0,-5.0,0.0,-2.0,14.0,1650846858086904.0
-3.0,-27.0,11.0,13.0,15.0,9.0,1.0,-26.0,1650846858086904.0
14.0,39.0,-19.0,1.0,1.0,-4.0,-16.0,3.0,1650846858087852.0
-2.0,-8.0,2.0,4.0,-1.0,3.0,19.0,35.0,1650846858087852.0
3.0,-22.0,-3.0,-8.0,-1.0,0.0,-8.0,2.0,1650846858108984.0
-5.0,10.0,8.0,3.0,-2.0,0.0,1.0,-6.0,1650846858108984.0
11.0,19.0,10.0,-1.0,-1.0,-5.0,-3.0,5.0,1650846858110913.0
4.0,12.0,-9.0,-14.0,-3.0,-1.0,-3.0,-4.0,1650846858110913.0
-11.0,-40.0,8.0,33.0,11.0,0.0,0.0,6.0,1650846858131326.0
19.0,71.0,28.0,4.0,0.0,1.0,4.0,-8.0,1650846858131326.0
-2.0,-13.0,-7.0,-3.0,0.0,3.0,7.0,17.0,1650846858133294.0
-7.0,-20.0,18.0,5.0,2.0,-2.0,-13.0,-27.0,1650846858133294.0
10.0,4.0,45.0,20.0,7.0,5.0,7.0,9.0,1650846858145333.0
-12.0,10.0,-34.0,-12.0,-3.0,-1.0,-6.0,-15.0,1650846858145333.0
0.0,21.0,-37.0,-11.0,-6.0,-3.0,5.0,5.0,1650846858154237.0
17.0,-26.0,23.0,8.0,5.0,4.0,-14.0,-27.0,1650846858154237.0
-8.0,41.0,4.0,9.0,3.0,-7.0,-3.0,-11.0,1650846858169198.0
-9.0,-10.0,-19.0,7.0,3.0,2.0,25.0,72.0,1650846858169198.0
0.0,-44.0,17.0,-12.0,-4.0,2.0,-9.0,-28.0,1650846858170195.0
1.0,38.0,-18.0,-7.0,-10.0,-3.0,-1.0,-1.0,1650846858170195.0
8.0,12.0,0.0,19.0,19.0,8.0,8.0,18.0,1650846858191249.0
8.0,40.0,4.0,9.0,1.0,-3.0,-5.0,-2.0,1650846858191249.0
-14.0,-44.0,-14.0,-10.0,-5.0,-1.0,-1.0,4.0,1650846858193222.0
-3.0,-1.0,-6.0,-5.0,-7.0,-7.0,-9.0,-22.0,1650846858193222.0
2.0,-25.0,28.0,3.0,-6.0,1.0,12.0,40.0,1650846858206256.0
5.0,26.0,-17.0,3.0,7.0,0.0,-12.0,4.0,1650846858206256.0
-5.0,-9.0,8.0,-4.0,-3.0,-2.0,2.0,-4.0,1650846858208181.0
8.0,35.0,2.0,-6.0,-1.0,-1.0,-3.0,-9.0,1650846858208181.0
-2.0,19.0,22.0,31.0,3.0,-3.0,-1.0,-1.0,1650846858229153.0
2.0,-106.0,-25.0,-25.0,-10.0,-7.0,-23.0,-45.0,1650846858229153.0
-5.0,39.0,9.0,-5.0,-4.0,-5.0,-3.0,-1.0,1650846858230123.0
3.0,-1.0,28.0,12.0,6.0,1.0,1.0,13.0,1650846858230123.0
-15.0,0.0,-28.0,-24.0,-12.0,-4.0,-12.0,-63.0,1650846858251163.0
10.0,-60.0,7.0,-4.0,-3.0,2.0,9.0,18.0,1650846858251163.0
5.0,76.0,5.0,11.0,9.0,0.0,-1.0,-6.0,1650846858253152.0
-11.0,-78.0,-28.0,-1.0,0.0,-4.0,-11.0,-15.0,1650846858253152.0
5.0,47.0,-1.0,-5.0,-3.0,0.0,-1.0,5.0,1650846858266140.0
-4.0,31.0,16.0,-9.0,-10.0,-6.0,-2.0,-4.0,1650846858266140.0
-6.0,-56.0,-24.0,-14.0,-4.0,0.0,1.0,-2.0,1650846858273137.0
-9.0,-44.0,21.0,19.0,12.0,7.0,3.0,11.0,1650846858273137.0
11.0,53.0,-5.0,-18.0,-9.0,-3.0,4.0,27.0,1650846858289206.0
-12.0,-48.0,-30.0,14.0,6.0,-1.0,0.0,0.0,1650846858289206.0
0.0,34.0,19.0,5.0,6.0,3.0,8.0,16.0,1650846858291133.0
16.0,29.0,-15.0,19.0,0.0,-4.0,-24.0,-59.0,1650846858291133.0
-14.0,6.0,36.0,-11.0,-9.0,-3.0,-1.0,-3.0,1650846858311889.0
-7.0,3.0,-53.0,-3.0,-4.0,-6.0,-1.0,-1.0,1650846858311889.0
1.0,-10.0,7.0,-5.0,1.0,-2.0,3.0,2.0,1650846858312820.0
-8.0,31.0,7.0,14.0,4.0,0.0,-5.0,-19.0,1650846858312820.0
6.0,-38.0,-13.0,-9.0,0.0,0.0,7.0,24.0,1650846858325856.0
1.0,12.0,24.0,-3.0,-4.0,1.0,0.0,-5.0,1650846858325856.0
0.0,46.0,0.0,4.0,-5.0,1.0,-6.0,-8.0,1650846858332795.0
-2.0,0.0,1.0,-8.0,2.0,1.0,6.0,15.0,1650846858332795.0
4.0,-12.0,4.0,8.0,-1.0,2.0,6.0,16.0,1650846858348723.0
-4.0,-4.0,7.0,-9.0,5.0,2.0,4.0,7.0,1650846858348723.0
-2.0,-38.0,-10.0,-1.0,-4.0,1.0,-2.0,-7.0,1650846858350719.0
1.0,16.0,7.0,-16.0,-11.0,-5.0,0.0,9.0,1650846858350719.0
4.0,-5.0,3.0,16.0,11.0,4.0,8.0,22.0,1650846858371777.0
18.0,45.0,26.0,-1.0,-1.0,3.0,1.0,-2.0,1650846858371777.0
-10.0,-17.0,-5.0,9.0,3.0,2.0,-1.0,-5.0,1650846858372781.0
3.0,-1.0,5.0,4.0,1.0,0.0,0.0,-2.0,1650846858372781.0
-7.0,-30.0,-25.0,-14.0,-2.0,-1.0,-1.0,-6.0,1650846858385743.0
1.0,62.0,22.0,3.0,-1.0,-1.0,-12.0,-33.0,1650846858385743.0
1.0,-66.0,-9.0,-4.0,-5.0,-4.0,-1.0,5.0,1650846858392753.0
6.0,75.0,-10.0,-2.0,1.0,-1.0,9.0,19.0,1650846858392753.0
3.0,-1.0,4.0,0.0,-6.0,-2.0,-7.0,-14.0,1650846858408709.0
-2.0,-8.0,2.0,-7.0,-2.0,1.0,2.0,6.0,1650846858408709.0
4.0,16.0,8.0,23.0,4.0,0.0,-1.0,2.0,1650846858410676.0
-11.0,-53.0,-35.0,-17.0,-7.0,-5.0,1.0,1.0,1650846858410676.0
1.0,12.0,2.0,-10.0,-5.0,-1.0,-1.0,2.0,1650846858431619.0
-7.0,-1.0,-2.0,-11.0,-9.0,-6.0,-4.0,-2.0,1650846858431619.0
-2.0,-13.0,14.0,1.0,2.0,2.0,1.0,-4.0,1650846858432616.0
6.0,-19.0,-12.0,-2.0,3.0,2.0,6.0,16.0,1650846858432616.0
-2.0,20.0,10.0,2.0,-3.0,-3.0,-6.0,-7.0,1650846858445610.0
-5.0,-39.0,-2.0,2.0,0.0,2.0,2.0,4.0,1650846858445610.0
1.0,18.0,-12.0,-6.0,-9.0,-4.0,-4.0,-3.0,1650846858452564.0
-6.0,-7.0,19.0,2.0,2.0,1.0,1.0,1.0,1650846858452564.0
1.0,-17.0,-16.0,-9.0,-3.0,-1.0,-2.0,-4.0,1650846858468520.0
2.0,0.0,5.0,1.0,1.0,1.0,3.0,3.0,1650846858468520.0
4.0,16.0,1.0,13.0,7.0,0.0,1.0,5.0,1650846858470516.0
-2.0,-1.0,1.0,-14.0,-4.0,0.0,1.0,1.0,1650846858470516.0
0.0,-13.0,-5.0,22.0,12.0,5.0,0.0,-2.0,1650846858491488.0
-1.0,11.0,-4.0,-10.0,-5.0,-2.0,0.0,5.0,1650846858491488.0
0.0,6.0,1.0,-6.0,-7.0,-4.0,-2.0,-2.0,1650846858493475.0
-1.0,-4.0,1.0,-3.0,-3.0,0.0,1.0,3.0,1650846858493475.0
-2.0,-24.0,-1.0,8.0,4.0,2.0,2.0,-2.0,1650846858505424.0
2.0,11.0,-7.0,-11.0,-4.0,-4.0,1.0,2.0,1650846858505424.0
1.0,5.0,9.0,7.0,1.0,-1.0,-1.0,0.0,1650846858512433.0
0.0,-6.0,-1.0,5.0,-3.0,-3.0,1.0,-1.0,1650846858512433.0
-3.0,-9.0,-9.0,-23.0,-13.0,-6.0,-1.0,-2.0,1650846858528388.0
3.0,16.0,8.0,10.0,6.0,1.0,0.0,-1.0,1650846858528388.0
-2.0,11.0,-9.0,-13.0,-3.0,-1.0,-3.0,-1.0,1650846858536339.0
3.0,15.0,4.0,-4.0,-4.0,-2.0,1.0,1.0,1650846858536339.0
-2.0,-8.0,-18.0,-7.0,-1.0,0.0,-3.0,-2.0,1650846858553305.0
1.0,0.0,0.0,0.0,2.0,1.0,1.0,2.0,1650846858553305.0
-5.0,-5.0,12.0,-8.0,-5.0,-1.0,-1.0,-4.0,1650846858554292.0
-1.0,-8.0,-8.0,11.0,3.0,2.0,0.0,-1.0,1650846858554292.0
1.0,16.0,7.0,-6.0,-1.0,1.0,0.0,2.0,1650846858565292.0
-1.0,-11.0,-4.0,5.0,1.0,3.0,-3.0,-5.0,1650846858565292.0
1.0,-11.0,-2.0,1.0,3.0,1.0,4.0,5.0,1650846858574245.0
1.0,-1.0,-2.0,4.0,0.0,-1.0,-1.0,4.0,1650846858574245.0
0.0,1.0,0.0,-3.0,-8.0,-3.0,-1.0,-2.0,1650846858589406.0
0.0,-1.0,2.0,0.0,3.0,4.0,2.0,3.0,1650846858589406.0
1.0,6.0,4.0,17.0,11.0,5.0,2.0,-1.0,1650846858590764.0
-2.0,3.0,6.0,6.0,15.0,4.0,1.0,-2.0,1650846858590764.0
1.0,-1.0,2.0,1.0,-1.0,-2.0,-1.0,-2.0,1650846858611708.0
-4.0,1.0,4.0,-1.0,-11.0,-3.0,-1.0,2.0,1650846858611708.0
2.0,5.0,-7.0,-1.0,2.0,1.0,-2.0,0.0,1650846858612710.0
-5.0,-12.0,-3.0,-11.0,-6.0,0.0,-1.0,-1.0,1650846858612710.0
0.0,17.0,2.0,7.0,1.0,1.0,-1.0,0.0,1650846858624700.0
-3.0,-33.0,-6.0,6.0,4.0,-1.0,0.0,1.0,1650846858624700.0
-2.0,-3.0,-2.0,-4.0,-1.0,-2.0,-2.0,-1.0,1650846858633677.0
0.0,7.0,4.0,-1.0,-4.0,-1.0,-1.0,0.0,1650846858633677.0
0.0,-2.0,2.0,2.0,5.0,-1.0,-2.0,-2.0,1650846858648636.0
-2.0,4.0,-2.0,-3.0,-2.0,-3.0,2.0,1.0,1650846858648636.0
-3.0,-3.0,-3.0,-3.0,0.0,-3.0,-1.0,0.0,1650846858650604.0
0.0,-1.0,3.0,-4.0,-2.0,-1.0,0.0,0.0,1650846858650604.0
-2.0,-4.0,-2.0,7.0,4.0,2.0,0.0,-1.0,1650846858671568.0
1.0,3.0,1.0,10.0,3.0,0.0,0.0,1.0,1650846858671568.0
1.0,3.0,-1.0,-3.0,-5.0,-1.0,1.0,-3.0,1650846858672545.0
-1.0,-1.0,1.0,10.0,8.0,3.0,3.0,-1.0,1650846858672545.0
-4.0,-11.0,-5.0,-13.0,-6.0,-2.0,-2.0,-2.0,1650846858685510.0
3.0,6.0,3.0,13.0,7.0,0.0,0.0,1.0,1650846858685510.0
-1.0,13.0,-3.0,-13.0,-8.0,-2.0,-2.0,1.0,1650846858694487.0
1.0,-15.0,-3.0,10.0,-1.0,1.0,1.0,1.0,1650846858694487.0
-1.0,0.0,-4.0,-6.0,7.0,2.0,1.0,-1.0,1650846858708448.0
-1.0,1.0,7.0,12.0,-2.0,0.0,0.0,-1.0,1650846858708448.0
0.0,3.0,-2.0,-10.0,-4.0,0.0,0.0,-1.0,1650846858710454.0
-3.0,14.0,3.0,1.0,-2.0,-1.0,-1.0,-1.0,1650846858710454.0
-1.0,-37.0,-7.0,0.0,-2.0,0.0,-1.0,-1.0,1650846858731504.0
3.0,18.0,-3.0,-8.0,-1.0,-1.0,0.0,0.0,1650846858731504.0
-1.0,-3.0,-1.0,-4.0,-1.0,-1.0,-2.0,-1.0,1650846858733536.0
-1.0,2.0,-1.0,-7.0,-2.0,0.0,-1.0,0.0,1650846858733536.0
-1.0,4.0,1.0,0.0,-4.0,-3.0,-1.0,1.0,1650846858745534.0
-2.0,-3.0,-4.0,-14.0,-3.0,1.0,-2.0,0.0,1650846858745534.0
1.0,-2.0,1.0,9.0,1.0,-1.0,1.0,-3.0,1650846858754445.0
-2.0,-5.0,-4.0,-12.0,-4.0,-4.0,0.0,-1.0,1650846858754445.0
0.0,7.0,-2.0,4.0,2.0,1.0,0.0,1.0,1650846858768859.0
-1.0,4.0,2.0,-7.0,1.0,-1.0,-1.0,2.0,1650846858768859.0
3.0,4.0,0.0,8.0,1.0,-1.0,0.0,1.0,1650846858770853.0
1.0,1.0,4.0,8.0,4.0,-1.0,0.0,1.0,1650846858770853.0
0.0,3.0,-2.0,-4.0,-5.0,-3.0,1.0,-2.0,1650846858791770.0
-1.0,1.0,-2.0,-4.0,1.0,2.0,0.0,1.0,1650846858791770.0
-4.0,-6.0,-1.0,-4.0,-1.0,-1.0,-2.0,-2.0,1650846858792772.0
-2.0,-3.0,2.0,0.0,-2.0,0.0,0.0,0.0,1650846858792772.0
2.0,8.0,1.0,8.0,2.0,1.0,1.0,1.0,1650846858804799.0
0.0,-10.0,-3.0,-4.0,-1.0,-1.0,-1.0,-3.0,1650846858804799.0
2.0,11.0,0.0,-1.0,0.0,-1.0,-2.0,2.0,1650846858813784.0
1.0,-17.0,-2.0,2.0,-2.0,-3.0,0.0,0.0,1650846858813784.0
0.0,6.0,-1.0,-6.0,2.0,1.0,1.0,-2.0,1650846858829406.0
-1.0,-3.0,1.0,2.0,-1.0,-1.0,-1.0,1.0,1650846858829406.0
0.0,-6.0,-1.0,0.0,-2.0,-2.0,-1.0,-1.0,1650846858830755.0
0.0,14.0,1.0,-1.0,-2.0,-3.0,-1.0,-2.0,1650846858830755.0
-1.0,-3.0,1.0,-1.0,-3.0,-1.0,-2.0,0.0,1650846858851766.0
-3.0,-4.0,-2.0,2.0,2.0,2.0,-2.0,0.0,1650846858851766.0
-2.0,-2.0,1.0,2.0,2.0,1.0,0.0,-1.0,1650846858852697.0
1.0,-4.0,-3.0,-3.0,-2.0,1.0,1.0,0.0,1650846858852697.0
-3.0,-3.0,-1.0,0.0,0.0,-2.0,1.0,-3.0,1650846858864727.0
2.0,1.0,0.0,-1.0,-2.0,-1.0,1.0,1.0,1650846858864727.0
-2.0,-2.0,2.0,-3.0,1.0,0.0,-1.0,-1.0,1650846858873734.0
-2.0,-2.0,-4.0,-4.0,0.0,-1.0,-3.0,-2.0,1650846858873734.0
1.0,2.0,1.0,3.0,0.0,0.0,-1.0,1.0,1650846858888874.0
-1.0,-3.0,-4.0,-1.0,-2.0,-1.0,-1.0,0.0,1650846858888874.0
2.0,2.0,-1.0,-2.0,-3.0,0.0,-1.0,2.0,1650846858890830.0
0.0,3.0,2.0,-2.0,-2.0,-2.0,1.0,-1.0,1650846858890830.0
-2.0,-4.0,0.0,-1.0,2.0,1.0,0.0,-2.0,1650846858911906.0
-3.0,-2.0,-2.0,0.0,-1.0,-1.0,-2.0,-1.0,1650846858911906.0
-1.0,0.0,-1.0,-1.0,-1.0,-2.0,1.0,0.0,1650846858912824.0
-2.0,1.0,0.0,-4.0,-2.0,-1.0,-2.0,0.0,1650846858912824.0
0.0,0.0,0.0,4.0,-4.0,-2.0,-1.0,2.0,1650846858924847.0
1.0,-2.0,0.0,5.0,2.0,-1.0,0.0,-2.0,1650846858924847.0
0.0,-1.0,0.0,-2.0,2.0,2.0,0.0,-1.0,1650846858933783.0
0.0,-2.0,-2.0,-2.0,-1.0,0.0,-3.0,-3.0,1650846858933783.0
2.0,4.0,-2.0,-6.0,-3.0,-2.0,0.0,1.0,1650846858948743.0
0.0,-3.0,2.0,2.0,1.0,1.0,0.0,-2.0,1650846858948743.0
-1.0,-1.0,-1.0,-4.0,-2.0,-1.0,1.0,2.0,1650846858950710.0
-4.0,-7.0,-1.0,2.0,1.0,1.0,-1.0,0.0,1650846858950710.0
0.0,0.0,0.0,-1.0,1.0,0.0,-2.0,-1.0,1650846858971901.0
1.0,-4.0,-2.0,-1.0,-3.0,-1.0,-1.0,-2.0,1650846858971901.0
1.0,0.0,-4.0,0.0,4.0,-1.0,0.0,0.0,1650846858972910.0
0.0,0.0,0.0,0.0,-3.0,-1.0,-2.0,0.0,1650846858972910.0
-2.0,1.0,1.0,-1.0,-1.0,0.0,-2.0,-2.0,1650846858984897.0
-1.0,-2.0,-1.0,-5.0,-1.0,-2.0,1.0,0.0,1650846858984897.0
-1.0,-6.0,1.0,-2.0,-5.0,-2.0,-1.0,-1.0,1650846858993857.0
1.0,1.0,0.0,1.0,0.0,2.0,2.0,0.0,1650846858993857.0
0.0,0.0,-4.0,-2.0,1.0,0.0,-1.0,-1.0,1650846859009098.0
0.0,2.0,0.0,0.0,-2.0,-1.0,-3.0,1.0,1650846859009098.0
-2.0,0.0,0.0,-3.0,0.0,-2.0,-1.0,0.0,1650846859011047.0
0.0,6.0,2.0,2.0,1.0,1.0,-1.0,1.0,1650846859011047.0
0.0,-1.0,-1.0,-4.0,-1.0,-1.0,0.0,0.0,1650846859031981.0
-1.0,4.0,-1.0,-2.0,-2.0,0.0,1.0,0.0,1650846859031981.0
0.0,12.0,0.0,-3.0,-3.0,-2.0,0.0,-2.0,1650846859032967.0
-3.0,-23.0,-2.0,16.0,10.0,3.0,1.0,-1.0,1650846859032967.0
1.0,7.0,2.0,3.0,1.0,0.0,2.0,0.0,1650846859053944.0
-3.0,-10.0,-5.0,-4.0,2.0,-1.0,0.0,-3.0,1650846859053944.0
2.0,17.0,0.0,-2.0,-4.0,1.0,0.0,0.0,1650846859055917.0
-1.0,8.0,-1.0,-2.0,-1.0,-2.0,-3.0,1.0,1650846859055917.0
2.0,-8.0,-2.0,-4.0,-5.0,0.0,1.0,2.0,1650846859068871.0
2.0,14.0,6.0,9.0,8.0,1.0,0.0,0.0,1650846859068871.0
-3.0,-19.0,-4.0,0.0,3.0,-2.0,1.0,-3.0,1650846859070867.0
-1.0,3.0,0.0,-5.0,-6.0,-4.0,-1.0,-1.0,1650846859070867.0
1.0,8.0,-1.0,0.0,-1.0,1.0,0.0,0.0,1650846859091364.0
-1.0,-2.0,-2.0,-3.0,-4.0,-2.0,-3.0,1.0,1650846859091364.0
1.0,-12.0,-3.0,3.0,2.0,0.0,-2.0,-2.0,1650846859093313.0
0.0,3.0,-3.0,-4.0,-2.0,-1.0,-2.0,-1.0,1650846859093313.0
-2.0,11.0,4.0,0.0,0.0,-2.0,-1.0,0.0,1650846859113864.0
-4.0,-34.0,-8.0,-3.0,-4.0,-1.0,0.0,0.0,1650846859113864.0
-1.0,-1.0,1.0,3.0,3.0,0.0,-1.0,0.0,1650846859115850.0
0.0,-4.0,-1.0,-3.0,-3.0,-2.0,-1.0,-1.0,1650846859115850.0
0.0,1.0,1.0,0.0,0.0,-1.0,-2.0,0.0,1650846859128932.0
-2.0,3.0,1.0,0.0,-1.0,0.0,0.0,0.0,1650846859128932.0
0.0,-3.0,-3.0,-5.0,-6.0,-2.0,2.0,0.0,1650846859130919.0
2.0,-1.0,2.0,-2.0,0.0,2.0,2.0,-1.0,1650846859130919.0
-3.0,-5.0,1.0,2.0,3.0,-1.0,-2.0,-2.0,1650846859151842.0
1.0,0.0,0.0,0.0,-2.0,1.0,-1.0,2.0,1650846859151842.0
-1.0,-4.0,1.0,1.0,-3.0,-2.0,-2.0,-1.0,1650846859152840.0
1.0,9.0,2.0,-1.0,-4.0,-1.0,1.0,-1.0,1650846859152840.0
-1.0,-1.0,-1.0,1.0,2.0,2.0,-2.0,1.0,1650846859173851.0
-2.0,11.0,1.0,-1.0,0.0,-1.0,-1.0,0.0,1650846859173851.0
-2.0,-4.0,-2.0,-1.0,-4.0,0.0,-1.0,0.0,1650846859175808.0
-2.0,-5.0,-3.0,-3.0,-2.0,-3.0,-2.0,-1.0,1650846859175808.0
1.0,3.0,1.0,0.0,-4.0,-1.0,0.0,0.0,1650846859188754.0
1.0,3.0,1.0,0.0,-1.0,-2.0,1.0,-2.0,1650846859188754.0
-1.0,-1.0,-1.0,2.0,4.0,1.0,1.0,2.0,1650846859194757.0
0.0,1.0,1.0,1.0,3.0,1.0,0.0,2.0,1650846859194757.0
-2.0,4.0,-2.0,-3.0,-1.0,0.0,1.0,-1.0,1650846859211682.0
-2.0,-26.0,-5.0,-2.0,-2.0,-2.0,1.0,-3.0,1650846859211682.0
0.0,0.0,1.0,-2.0,-2.0,-1.0,-1.0,-1.0,1650846859212687.0
1.0,2.0,2.0,2.0,1.0,0.0,0.0,1.0,1650846859212687.0
-1.0,1.0,-1.0,1.0,0.0,1.0,1.0,0.0,1650846859241688.0
0.0,6.0,-1.0,0.0,0.0,-1.0,-2.0,0.0,1650846859241688.0
-4.0,2.0,0.0,-3.0,-2.0,2.0,0.0,-2.0,1650846859242694.0
-4.0,-10.0,-4.0,-1.0,-1.0,-1.0,-1.0,0.0,1650846859242694.0
-1.0,-8.0,-3.0,-1.0,0.0,1.0,-1.0,-1.0,1650846859248675.0
3.0,21.0,3.0,0.0,0.0,-2.0,1.0,-1.0,1650846859248675.0
-1.0,-4.0,-2.0,0.0,2.0,-1.0,-1.0,-1.0,1650846859254654.0
-1.0,3.0,-1.0,-3.0,-2.0,-1.0,0.0,0.0,1650846859254654.0
-1.0,-2.0,0.0,-1.0,1.0,0.0,-1.0,-2.0,1650846859271674.0
-1.0,-3.0,-2.0,-2.0,-2.0,-1.0,1.0,-1.0,1650846859271674.0
0.0,1.0,0.0,0.0,-1.0,-2.0,-2.0,0.0,1650846859272606.0
-1.0,-5.0,-1.0,-1.0,-3.0,2.0,0.0,-1.0,1650846859272606.0
0.0,12.0,1.0,1.0,3.0,-2.0,-1.0,-2.0,1650846859293700.0
0.0,-8.0,-3.0,-1.0,-1.0,0.0,-1.0,-3.0,1650846859293700.0
0.0,-1.0,-1.0,1.0,2.0,-2.0,-1.0,1.0,1650846859295664.0
-1.0,2.0,-1.0,-6.0,-2.0,-2.0,0.0,-2.0,1650846859295664.0
-1.0,-4.0,0.0,-1.0,-3.0,1.0,0.0,0.0,1650846859308754.0
1.0,5.0,3.0,-1.0,1.0,1.0,-2.0,1.0,1650846859308754.0
-2.0,0.0,-4.0,-1.0,0.0,2.0,1.0,-1.0,1650846859314763.0
0.0,5.0,2.0,3.0,-2.0,1.0,1.0,-3.0,1650846859314763.0
-2.0,-5.0,-2.0,-1.0,0.0,-2.0,1.0,0.0,1650846859331718.0
-2.0,-17.0,-5.0,-3.0,-2.0,0.0,-2.0,1.0,1650846859331718.0
3.0,17.0,5.0,1.0,-1.0,0.0,2.0,1.0,1650846859332689.0
-2.0,-9.0,-2.0,-2.0,0.0,1.0,-2.0,-2.0,1650846859332689.0
-1.0,-8.0,-4.0,-2.0,-2.0,-2.0,2.0,-1.0,1650846859353633.0
0.0,9.0,2.0,1.0,1.0,-2.0,-1.0,1.0,1650846859353633.0
-1.0,-4.0,-1.0,-1.0,0.0,-2.0,-1.0,-2.0,1650846859355627.0
1.0,-1.0,-3.0,-2.0,-2.0,-3.0,-1.0,0.0,1650846859355627.0
0.0,2.0,3.0,2.0,-1.0,1.0,0.0,0.0,1650846859368591.0
-1.0,-1.0,0.0,1.0,2.0,1.0,1.0,2.0,1650846859368591.0
1.0,-2.0,0.0,-3.0,-2.0,-1.0,-1.0,0.0,1650846859374645.0
1.0,-2.0,-1.0,1.0,-2.0,-3.0,0.0,4.0,1650846859374645.0
0.0,-7.0,-4.0,1.0,2.0,0.0,0.0,-2.0,1650846859391598.0
0.0,2.0,-1.0,0.0,-2.0,-2.0,-3.0,-1.0,1650846859391598.0
-2.0,-4.0,3.0,0.0,-4.0,1.0,1.0,-1.0,1650846859393525.0
0.0,10.0,4.0,0.0,2.0,1.0,0.0,-2.0,1650846859393525.0
0.0,-7.0,-1.0,1.0,-1.0,-2.0,-1.0,-1.0,1650846859413472.0
-2.0,-1.0,-4.0,1.0,0.0,2.0,2.0,-3.0,1650846859413472.0
1.0,17.0,1.0,-1.0,-1.0,-1.0,1.0,0.0,1650846859415467.0
1.0,-6.0,-1.0,0.0,3.0,1.0,-1.0,1.0,1650846859415467.0
0.0,4.0,3.0,-2.0,-1.0,-2.0,-1.0,0.0,1650846859428431.0
-1.0,-4.0,-2.0,-2.0,1.0,-2.0,-2.0,-2.0,1650846859428431.0
0.0,4.0,0.0,0.0,-1.0,0.0,-1.0,0.0,1650846859435412.0
1.0,3.0,1.0,-2.0,-4.0,-2.0,0.0,1.0,1650846859435412.0
-3.0,-11.0,-2.0,0.0,-1.0,0.0,0.0,0.0,1650846859451400.0
-1.0,2.0,5.0,2.0,-1.0,2.0,1.0,0.0,1650846859451400.0
-2.0,-10.0,-4.0,0.0,1.0,0.0,1.0,-1.0,1650846859453365.0
0.0,0.0,-4.0,1.0,2.0,-1.0,0.0,-1.0,1650846859453365.0
0.0,-6.0,-2.0,-3.0,-3.0,-2.0,-2.0,-1.0,1650846859473499.0
0.0,6.0,-4.0,-5.0,-1.0,-1.0,-1.0,-2.0,1650846859473499.0
-2.0,-7.0,-2.0,1.0,0.0,-1.0,-3.0,-3.0,1650846859475432.0
-1.0,-4.0,0.0,0.0,-2.0,-1.0,0.0,-1.0,1650846859475432.0
2.0,4.0,2.0,-1.0,-2.0,-2.0,0.0,-2.0,1650846859488392.0
0.0,-1.0,-2.0,2.0,1.0,2.0,-1.0,0.0,1650846859488392.0
1.0,-5.0,0.0,-1.0,1.0,-2.0,1.0,2.0,1650846859495400.0
-4.0,4.0,-4.0,-3.0,1.0,-1.0,-2.0,-4.0,1650846859495400.0
0.0,-3.0,-5.0,-3.0,-2.0,0.0,1.0,3.0,1650846859511350.0
0.0,-1.0,2.0,1.0,-2.0,-4.0,1.0,-1.0,1650846859511350.0
0.0,4.0,2.0,0.0,-1.0,0.0,-1.0,-1.0,1650846859513344.0
-2.0,-9.0,2.0,3.0,-1.0,1.0,0.0,-1.0,1650846859513344.0
0.0,-31.0,-6.0,0.0,-2.0,-2.0,1.0,0.0,1650846859534268.0
2.0,18.0,1.0,-2.0,-1.0,0.0,-3.0,-3.0,1650846859534268.0
-4.0,-5.0,-1.0,-1.0,-1.0,0.0,-1.0,2.0,1650846859535268.0
0.0,0.0,0.0,-1.0,0.0,1.0,-2.0,-2.0,1650846859535268.0
-2.0,3.0,-2.0,0.0,0.0,0.0,-1.0,-2.0,1650846859547261.0
-1.0,-3.0,-1.0,0.0,-2.0,-1.0,0.0,-1.0,1650846859547261.0
1.0,-6.0,-3.0,5.0,1.0,0.0,0.0,-3.0,1650846859556234.0
-2.0,1.0,-6.0,-4.0,-5.0,-3.0,0.0,-2.0,1650846859556234.0
1.0,4.0,0.0,-4.0,-3.0,-3.0,1.0,1.0,1650846859570173.0
1.0,3.0,5.0,4.0,0.0,1.0,0.0,0.0,1650846859570173.0
0.0,0.0,-1.0,-1.0,-1.0,-1.0,1.0,1.0,1650846859579149.0
-1.0,-3.0,0.0,-1.0,1.0,-1.0,0.0,2.0,1650846859579149.0
0.0,9.0,1.0,0.0,0.0,2.0,-2.0,-2.0,1650846859594107.0
-4.0,-7.0,-3.0,-1.0,-1.0,-1.0,-2.0,-1.0,1650846859594107.0
1.0,-5.0,-1.0,-4.0,-4.0,0.0,-1.0,-1.0,1650846859595105.0
2.0,1.0,-1.0,0.0,-1.0,1.0,-1.0,0.0,1650846859595105.0
0.0,3.0,0.0,1.0,0.0,0.0,-1.0,1.0,1650846859607960.0
-2.0,0.0,-1.0,-2.0,-2.0,-1.0,0.0,2.0,1650846859607960.0
-3.0,-3.0,-2.0,-1.0,-2.0,0.0,0.0,-1.0,1650846859616965.0
2.0,5.0,0.0,0.0,1.0,0.0,0.0,1.0,1650846859616965.0
-1.0,1.0,2.0,2.0,-2.0,-1.0,-3.0,-1.0,1650846859630929.0
2.0,2.0,3.0,5.0,-1.0,-1.0,1.0,0.0,1650846859630929.0
-1.0,-2.0,-7.0,-6.0,0.0,1.0,0.0,0.0,1650846859632895.0
0.0,4.0,2.0,1.0,-1.0,0.0,0.0,0.0,1650846859632895.0
-2.0,0.0,-1.0,2.0,1.0,0.0,-1.0,-1.0,1650846859653851.0
-1.0,-1.0,0.0,-1.0,-1.0,0.0,0.0,-1.0,1650846859653851.0
-1.0,-1.0,1.0,1.0,-1.0,-1.0,0.0,-1.0,1650846859655834.0
-1.0,-1.0,-2.0,1.0,-2.0,-1.0,-1.0,0.0,1650846859655834.0
-2.0,3.0,-1.0,-1.0,0.0,0.0,-1.0,1.0,1650846859667829.0
-2.0,-2.0,-1.0,0.0,-2.0,0.0,0.0,0.0,1650846859667829.0
1.0,2.0,-2.0,-1.0,-3.0,-1.0,-1.0,-2.0,1650846859676778.0
-1.0,-3.0,-1.0,0.0,1.0,1.0,1.0,0.0,1650846859676778.0
0.0,2.0,3.0,2.0,0.0,1.0,1.0,0.0,1650846859691889.0
-1.0,-3.0,-6.0,-6.0,-1.0,-3.0,-1.0,-2.0,1650846859691889.0
0.0,-9.0,-4.0,-3.0,-2.0,-3.0,-2.0,-2.0,1650846859692820.0
-2.0,-1.0,4.0,0.0,-1.0,0.0,-1.0,-2.0,1650846859692820.0
3.0,7.0,1.0,-1.0,-1.0,0.0,0.0,-2.0,1650846859713790.0
0.0,-4.0,-2.0,-3.0,-2.0,-2.0,0.0,0.0,1650846859713790.0
-2.0,0.0,1.0,2.0,2.0,-1.0,-2.0,0.0,1650846859715757.0
-1.0,1.0,0.0,2.0,0.0,1.0,1.0,1.0,1650846859715757.0
-2.0,-7.0,-1.0,1.0,-2.0,-1.0,0.0,-1.0,1650846859727756.0
0.0,-3.0,-2.0,-2.0,0.0,-1.0,2.0,2.0,1650846859727756.0
0.0,2.0,0.0,1.0,2.0,-1.0,0.0,0.0,1650846859736722.0
-1.0,-1.0,-1.0,-1.0,-1.0,-1.0,-1.0,-1.0,1650846859736722.0
0.0,0.0,-2.0,-1.0,0.0,1.0,-2.0,0.0,1650846859751688.0
-1.0,-2.0,1.0,0.0,-1.0,-1.0,-1.0,0.0,1650846859751688.0
1.0,-1.0,-1.0,-3.0,-1.0,-3.0,-1.0,1.0,1650846859752688.0
0.0,2.0,0.0,2.0,2.0,-1.0,1.0,0.0,1650846859752688.0
-2.0,-7.0,-4.0,-2.0,1.0,0.0,0.0,0.0,1650846859773670.0
-2.0,-2.0,-4.0,-1.0,-2.0,-2.0,-1.0,-1.0,1650846859773670.0
0.0,-3.0,-3.0,-3.0,-1.0,-1.0,-2.0,0.0,1650846859775624.0
1.0,2.0,2.0,-1.0,-3.0,-3.0,1.0,-3.0,1650846859775624.0
-2.0,0.0,-3.0,0.0,-2.0,-1.0,-1.0,-2.0,1650846859787566.0
-1.0,-2.0,-2.0,3.0,4.0,3.0,1.0,-2.0,1650846859787566.0
0.0,0.0,4.0,-2.0,-2.0,0.0,0.0,-1.0,1650846859796585.0
1.0,4.0,0.0,1.0,0.0,-1.0,-1.0,0.0,1650846859796585.0
1.0,-4.0,-16.0,0.0,-1.0,1.0,0.0,0.0,1650846859811530.0
2.0,6.0,6.0,-4.0,-2.0,1.0,-1.0,1.0,1650846859811530.0
-5.0,-15.0,3.0,2.0,-3.0,-1.0,-2.0,-3.0,1650846859812519.0
-4.0,2.0,0.0,-9.0,-5.0,-4.0,-2.0,-4.0,1650846859812519.0
0.0,3.0,10.0,3.0,-1.0,-2.0,0.0,-1.0,1650846859833658.0
-2.0,-3.0,-9.0,4.0,2.0,1.0,1.0,-1.0,1650846859833658.0
1.0,3.0,-2.0,-5.0,3.0,3.0,1.0,1.0,1650846859835589.0
2.0,2.0,11.0,7.0,3.0,1.0,-1.0,2.0,1650846859835589.0
-4.0,-8.0,-8.0,-4.0,-5.0,-3.0,-1.0,-3.0,1650846859847621.0
0.0,1.0,-3.0,3.0,0.0,1.0,0.0,2.0,1650846859847621.0
-1.0,5.0,13.0,7.0,1.0,1.0,0.0,-1.0,1650846859856533.0
-2.0,-9.0,-13.0,-4.0,0.0,0.0,-1.0,1.0,1650846859856533.0
0.0,0.0,-3.0,-6.0,-2.0,-3.0,-3.0,-3.0,1650846859871504.0
1.0,-1.0,-2.0,1.0,-2.0,-1.0,-1.0,1.0,1650846859871504.0
-1.0,3.0,-5.0,-3.0,-3.0,-2.0,-1.0,1.0,1650846859873509.0
2.0,1.0,3.0,0.0,0.0,1.0,0.0,-1.0,1650846859873509.0
0.0,0.0,-2.0,-2.0,1.0,2.0,0.0,-1.0,1650846859893845.0
-4.0,-7.0,0.0,-6.0,-4.0,-7.0,-2.0,-3.0,1650846859893845.0
0.0,0.0,-1.0,1.0,-1.0,-1.0,0.0,-1.0,1650846859895842.0
-2.0,-7.0,-15.0,-3.0,0.0,2.0,2.0,0.0,1650846859895842.0
2.0,8.0,28.0,8.0,-1.0,0.0,0.0,0.0,1650846859907930.0
-1.0,-1.0,9.0,4.0,0.0,1.0,0.0,-1.0,1650846859907930.0
-1.0,0.0,-14.0,-7.0,-1.0,-2.0,0.0,1.0,1650846859916908.0
0.0,-1.0,-7.0,-10.0,-4.0,-2.0,1.0,-1.0,1650846859916908.0
0.0,0.0,8.0,3.0,1.0,1.0,0.0,1.0,1650846859931900.0
-1.0,-4.0,-14.0,-3.0,1.0,1.0,1.0,-1.0,1650846859931900.0
0.0,2.0,8.0,8.0,3.0,-1.0,-1.0,-2.0,1650846859932870.0
1.0,2.0,-1.0,-3.0,-2.0,-1.0,0.0,1.0,1650846859932870.0
-1.0,0.0,0.0,-4.0,-3.0,-2.0,-4.0,-3.0,1650846859953809.0
-1.0,2.0,4.0,3.0,1.0,3.0,3.0,6.0,1650846859953809.0
1.0,0.0,-4.0,3.0,3.0,-1.0,1.0,-1.0,1650846859955805.0
0.0,1.0,13.0,11.0,4.0,0.0,-1.0,-1.0,1650846859955805.0
1.0,9.0,-4.0,-5.0,-2.0,-1.0,-2.0,0.0,1650846859976776.0
-3.0,-2.0,4.0,-2.0,-1.0,-1.0,-2.0,-4.0,1650846859976776.0
2.0,2.0,0.0,1.0,0.0,-1.0,-1.0,-1.0,1650846859977745.0
-2.0,-4.0,3.0,0.0,-4.0,-3.0,2.0,-1.0,1650846859977745.0
0.0,-5.0,-8.0,6.0,8.0,3.0,3.0,1.0,1650846859991708.0
1.0,1.0,2.0,-3.0,-1.0,-3.0,-3.0,0.0,1650846859991708.0
3.0,5.0,5.0,0.0,-3.0,-1.0,1.0,0.0,1650846859992710.0
2.0,5.0,11.0,1.0,2.0,1.0,-4.0,-2.0,1650846859992710.0
-3.0,-3.0,-9.0,-6.0,-3.0,-1.0,0.0,1.0,1650846860013676.0
-2.0,-5.0,3.0,-4.0,-4.0,-2.0,-3.0,0.0,1650846860013676.0
1.0,2.0,-34.0,-12.0,-3.0,1.0,1.0,2.0,1650846860015665.0
0.0,-2.0,15.0,5.0,0.0,-2.0,-2.0,-1.0,1650846860015665.0
-4.0,-4.0,-3.0,5.0,1.0,1.0,4.0,-1.0,1650846860036638.0
-2.0,-13.0,4.0,-2.0,0.0,2.0,1.0,-1.0,1650846860036638.0
4.0,20.0,29.0,17.0,8.0,2.0,-4.0,-4.0,1650846860038607.0
0.0,-7.0,-16.0,-13.0,-4.0,0.0,3.0,5.0,1650846860038607.0
2.0,2.0,-3.0,4.0,2.0,-1.0,2.0,2.0,1650846860051599.0
2.0,3.0,7.0,6.0,0.0,-1.0,-2.0,-2.0,1650846860051599.0
-5.0,-7.0,-4.0,-1.0,-2.0,3.0,1.0,0.0,1650846860052568.0
-1.0,-1.0,-1.0,6.0,4.0,0.0,0.0,-3.0,1650846860052568.0
2.0,-2.0,1.0,-12.0,-1.0,-2.0,-1.0,-1.0,1650846860073580.0
1.0,3.0,-9.0,1.0,0.0,0.0,0.0,2.0,1650846860073580.0
-3.0,-8.0,-6.0,-8.0,-4.0,-2.0,0.0,0.0,1650846860075508.0
-2.0,1.0,8.0,17.0,3.0,1.0,-3.0,-3.0,1650846860075508.0
-1.0,-5.0,-2.0,-11.0,-8.0,1.0,2.0,1.0,1650846860096479.0
-2.0,-1.0,-4.0,3.0,0.0,-4.0,-3.0,-2.0,1650846860096479.0
1.0,14.0,15.0,1.0,1.0,-1.0,-1.0,-5.0,1650846860098466.0
-2.0,-27.0,-35.0,-7.0,-3.0,-2.0,1.0,-1.0,1650846860098466.0
0.0,3.0,6.0,2.0,1.0,0.0,-1.0,7.0,1650846860111525.0
4.0,16.0,-6.0,-2.0,-2.0,1.0,-2.0,-2.0,1650846860111525.0
-2.0,-30.0,15.0,5.0,-1.0,1.0,0.0,7.0,1650846860113492.0
-7.0,24.0,3.0,-19.0,-8.0,-1.0,1.0,-27.0,1650846860113492.0
3.0,3.0,-11.0,-1.0,-2.0,-3.0,-1.0,11.0,1650846860133465.0
6.0,-35.0,-12.0,2.0,4.0,1.0,0.0,-3.0,1650846860133465.0
-3.0,20.0,6.0,4.0,-4.0,-4.0,-1.0,0.0,1650846860135433.0
3.0,0.0,-10.0,-8.0,-2.0,-1.0,-3.0,7.0,1650846860135433.0
-6.0,9.0,9.0,2.0,3.0,0.0,0.0,-9.0,1650846860156378.0
-2.0,-9.0,4.0,-3.0,-3.0,-1.0,-1.0,1.0,1650846860156378.0
1.0,-5.0,-27.0,-19.0,-5.0,-1.0,-1.0,-3.0,1650846860158372.0
-8.0,2.0,-2.0,4.0,1.0,-2.0,3.0,8.0,1650846860158372.0
7.0,-5.0,-3.0,-1.0,-1.0,-1.0,-8.0,-12.0,1650846860170339.0
-10.0,-5.0,12.0,4.0,1.0,0.0,-1.0,14.0,1650846860170339.0
-6.0,-10.0,-1.0,7.0,0.0,-2.0,0.0,-17.0,1650846860177348.0
10.0,46.0,21.0,1.0,1.0,0.0,-1.0,5.0,1650846860177348.0
-14.0,-49.0,-25.0,-14.0,-2.0,1.0,5.0,-27.0,1650846860193346.0
17.0,25.0,12.0,2.0,0.0,2.0,7.0,44.0,1650846860193346.0
-26.0,-1.0,-37.0,-26.0,-10.0,-9.0,-2.0,-15.0,1650846860200259.0
18.0,3.0,20.0,20.0,7.0,7.0,4.0,16.0,1650846860200259.0
3.0,23.0,12.0,4.0,2.0,-1.0,-13.0,-22.0,1650846860216825.0
-6.0,-3.0,-15.0,-1.0,3.0,1.0,1.0,-11.0,1650846860216825.0
10.0,-10.0,4.0,-1.0,1.0,3.0,7.0,23.0,1650846860217795.0
-6.0,6.0,-31.0,2.0,-3.0,-5.0,0.0,12.0,1650846860217795.0
1.0,-7.0,7.0,5.0,2.0,1.0,3.0,10.0,1650846860230850.0
15.0,-9.0,5.0,-1.0,-1.0,0.0,-1.0,-10.0,1650846860230850.0
-4.0,35.0,12.0,9.0,5.0,2.0,-2.0,-5.0,1650846860237790.0
-5.0,0.0,7.0,1.0,0.0,0.0,0.0,-5.0,1650846860237790.0
4.0,0.0,10.0,-5.0,-7.0,-3.0,2.0,29.0,1650846860253870.0
-7.0,3.0,26.0,-4.0,-7.0,-6.0,-6.0,-16.0,1650846860253870.0
16.0,10.0,19.0,22.0,3.0,1.0,-3.0,-4.0,1650846860255836.0
-6.0,-37.0,-43.0,-31.0,-2.0,1.0,-1.0,-6.0,1650846860255836.0
-1.0,-7.0,-33.0,-9.0,-10.0,-5.0,12.0,30.0,1650846860276846.0
-2.0,7.0,14.0,3.0,5.0,0.0,-4.0,-27.0,1650846860276846.0
5.0,43.0,-13.0,-20.0,-3.0,3.0,0.0,18.0,1650846860278774.0
3.0,-28.0,27.0,10.0,-2.0,-1.0,1.0,8.0,1650846860278774.0
5.0,14.0,-1.0,0.0,7.0,2.0,5.0,26.0,1650846860290808.0
1.0,34.0,2.0,-4.0,-4.0,-3.0,-1.0,-9.0,1650846860290808.0
-14.0,-26.0,9.0,9.0,5.0,3.0,-2.0,-14.0,1650846860297722.0
3.0,-30.0,-45.0,-3.0,0.0,0.0,4.0,29.0,1650846860297722.0
6.0,48.0,39.0,-1.0,-4.0,-4.0,-7.0,-11.0,1650846860313795.0
-6.0,-33.0,14.0,6.0,-2.0,-2.0,-1.0,-10.0,1650846860313795.0
8.0,-51.0,-40.0,-6.0,3.0,2.0,1.0,9.0,1650846860315782.0
1.0,12.0,9.0,1.0,0.0,-1.0,-6.0,-17.0,1650846860315782.0
-1.0,26.0,11.0,7.0,-1.0,-4.0,-4.0,1.0,1650846860336767.0
3.0,8.0,-24.0,-5.0,-2.0,0.0,11.0,10.0,1650846860336767.0
-6.0,-18.0,-9.0,-15.0,-6.0,-2.0,-4.0,-9.0,1650846860337737.0
4.0,10.0,47.0,14.0,-7.0,-3.0,0.0,5.0,1650846860337737.0
-2.0,-47.0,-16.0,-4.0,14.0,8.0,-2.0,2.0,1650846860350730.0
4.0,58.0,12.0,4.0,4.0,0.0,3.0,21.0,1650846860350730.0
-1.0,2.0,-11.0,4.0,-3.0,-2.0,-5.0,-39.0,1650846860357960.0
-4.0,-18.0,3.0,4.0,-3.0,-4.0,2.0,18.0,1650846860357960.0
-10.0,10.0,-8.0,-3.0,-4.0,0.0,-4.0,-15.0,1650846860373964.0
-13.0,-17.0,-41.0,-27.0,-9.0,-4.0,-9.0,-19.0,1650846860373964.0
21.0,-6.0,55.0,13.0,1.0,-2.0,1.0,12.0,1650846860375942.0
11.0,62.0,18.0,-2.0,4.0,1.0,-8.0,-17.0,1650846860375942.0
5.0,-62.0,-22.0,15.0,5.0,1.0,3.0,-10.0,1650846860396871.0
10.0,18.0,23.0,0.0,-3.0,0.0,13.0,61.0,1650846860396871.0
-23.0,-15.0,-52.0,-20.0,-13.0,-9.0,-15.0,-29.0,1650846860397856.0
-10.0,-27.0,29.0,8.0,1.0,-3.0,-2.0,0.0,1650846860397856.0
19.0,36.0,13.0,17.0,4.0,4.0,3.0,3.0,1650846860410891.0
-7.0,-30.0,-20.0,-18.0,-2.0,4.0,-1.0,-21.0,1650846860410891.0
18.0,72.0,60.0,32.0,21.0,6.0,10.0,35.0,1650846860417832.0
-16.0,-36.0,-59.0,-21.0,-10.0,-3.0,-1.0,-25.0,1650846860417832.0
-8.0,-3.0,-2.0,3.0,-6.0,-10.0,-6.0,0.0,1650846860433896.0
-2.0,-11.0,2.0,0.0,1.0,3.0,-8.0,-23.0,1650846860433896.0
9.0,-45.0,-6.0,-7.0,-6.0,0.0,6.0,12.0,1650846860435911.0
1.0,71.0,-4.0,1.0,3.0,-1.0,-12.0,-34.0,1650846860435911.0
-9.0,34.0,29.0,9.0,-1.0,-4.0,36.0,90.0,1650846860456835.0
3.0,-10.0,-17.0,8.0,4.0,6.0,-11.0,-65.0,1650846860456835.0
-37.0,-39.0,-14.0,-14.0,-8.0,-10.0,-6.0,3.0,1650846860457833.0
6.0,19.0,56.0,20.0,2.0,2.0,2.0,6.0,1650846860457833.0
-11.0,-8.0,-29.0,-14.0,-2.0,3.0,-8.0,-32.0,1650846860469828.0
26.0,-17.0,-25.0,-18.0,-7.0,0.0,13.0,81.0,1650846860469828.0
-26.0,-1.0,17.0,4.0,-2.0,0.0,-6.0,-34.0,1650846860478901.0
11.0,26.0,-36.0,-55.0,-14.0,-1.0,-5.0,-11.0,1650846860478901.0
12.0,36.0,60.0,81.0,20.0,7.0,4.0,-13.0,1650846860495834.0
-9.0,-101.0,-53.0,-7.0,1.0,-9.0,-7.0,-13.0,1650846860495834.0
23.0,97.0,59.0,17.0,-4.0,0.0,-12.0,-23.0,1650846860496832.0
-21.0,-61.0,-59.0,-17.0,-10.0,-8.0,-7.0,1.0,1650846860496832.0
11.0,-17.0,-7.0,-28.0,1.0,6.0,-1.0,-19.0,1650846860516806.0
-6.0,49.0,24.0,18.0,-2.0,-3.0,-25.0,-71.0,1650846860516806.0
3.0,-24.0,-34.0,0.0,10.0,6.0,5.0,22.0,1650846860517776.0
-8.0,-7.0,-30.0,-25.0,-14.0,-6.0,7.0,0.0,1650846860517776.0
-12.0,-60.0,-4.0,-4.0,-7.0,-9.0,-17.0,-8.0,1650846860529794.0
5.0,78.0,45.0,19.0,3.0,-3.0,10.0,2.0,1650846860529794.0
-6.0,-71.0,-49.0,-37.0,-15.0,-7.0,0.0,3.0,1650846860538745.0
2.0,-16.0,-2.0,20.0,10.0,3.0,20.0,68.0,1650846860538745.0
13.0,39.0,13.0,-19.0,2.0,13.0,-1.0,-42.0,1650846860553733.0
-4.0,-40.0,-23.0,0.0,-1.0,-1.0,3.0,15.0,1650846860553733.0
-13.0,-2.0,0.0,-6.0,-5.0,-1.0,9.0,-5.0,1650846860555710.0
-16.0,-14.0,16.0,28.0,7.0,-7.0,-13.0,-40.0,1650846860555710.0
10.0,30.0,2.0,-12.0,-6.0,-3.0,5.0,32.0,1650846860576709.0
-4.0,-38.0,-11.0,-14.0,-14.0,-7.0,-2.0,3.0,1650846860576709.0
0.0,46.0,-4.0,-19.0,-2.0,1.0,1.0,3.0,1650846860577657.0
11.0,-1.0,27.0,16.0,1.0,-1.0,-7.0,-9.0,1650846860577657.0
-12.0,6.0,-17.0,-3.0,-7.0,-4.0,-4.0,-14.0,1650846860590605.0
-1.0,11.0,22.0,31.0,43.0,17.0,3.0,2.0,1650846860590605.0
1.0,-82.0,-49.0,-8.0,-14.0,-7.0,4.0,20.0,1650846860598582.0
8.0,21.0,67.0,3.0,12.0,10.0,7.0,1.0,1650846860598582.0
3.0,46.0,-26.0,-30.0,-19.0,-14.0,-14.0,7.0,1650846860613563.0
-4.0,12.0,-8.0,-7.0,-10.0,-6.0,2.0,9.0,1650846860613563.0
0.0,5.0,14.0,17.0,4.0,-3.0,-6.0,3.0,1650846860615538.0
-2.0,-7.0,18.0,-4.0,0.0,2.0,2.0,6.0,1650846860615538.0
8.0,-40.0,3.0,12.0,11.0,1.0,-16.0,-36.0,1650846860636501.0
-18.0,44.0,41.0,4.0,1.0,0.0,5.0,13.0,1650846860636501.0
21.0,-45.0,-30.0,4.0,8.0,7.0,24.0,62.0,1650846860638486.0
1.0,46.0,-9.0,-15.0,-10.0,-9.0,-25.0,-58.0,1650846860638486.0
-12.0,-34.0,-18.0,-1.0,2.0,1.0,3.0,14.0,1650846860650445.0
1.0,29.0,13.0,-1.0,-7.0,-2.0,0.0,-2.0,1650846860650445.0
8.0,30.0,24.0,8.0,2.0,-2.0,4.0,16.0,1650846860659420.0
-1.0,-30.0,-26.0,-11.0,-5.0,1.0,5.0,15.0,1650846860659420.0
-22.0,-52.0,-48.0,-12.0,-6.0,-10.0,-5.0,-12.0,1650846860674382.0
0.0,-10.0,-35.0,-13.0,-9.0,-1.0,11.0,42.0,1650846860674382.0
5.0,9.0,38.0,18.0,7.0,-1.0,-35.0,-97.0,1650846860675378.0
-8.0,4.0,7.0,15.0,9.0,4.0,15.0,20.0,1650846860675378.0
-21.0,29.0,-14.0,-17.0,-10.0,-7.0,-3.0,3.0,1650846860697343.0
-2.0,-35.0,-7.0,-11.0,-8.0,-3.0,-7.0,-38.0,1650846860697343.0
4.0,32.0,-2.0,2.0,0.0,0.0,2.0,16.0,1650846860698316.0
-1.0,11.0,-18.0,3.0,9.0,5.0,-1.0,-24.0,1650846860698316.0
9.0,-20.0,34.0,7.0,0.0,1.0,3.0,17.0,1650846860710403.0
-3.0,1.0,5.0,-9.0,-4.0,-2.0,1.0,3.0,1650846860710403.0
-1.0,-5.0,-41.0,1.0,12.0,6.0,0.0,0.0,1650846860719357.0
4.0,1.0,10.0,-5.0,-3.0,0.0,6.0,-1.0,1650846860719357.0
1.0,-37.0,8.0,4.0,1.0,1.0,14.0,29.0,1650846860733541.0
-1.0,0.0,-12.0,-3.0,4.0,1.0,-3.0,-3.0,1650846860733541.0
-1.0,19.0,22.0,12.0,0.0,2.0,0.0,1.0,1650846860735469.0
10.0,-25.0,-26.0,-15.0,-3.0,-3.0,-9.0,11.0,1650846860735469.0
2.0,-1.0,4.0,-2.0,-4.0,-5.0,-7.0,-10.0,1650846860756888.0
10.0,62.0,12.0,3.0,-2.0,-7.0,-13.0,-32.0,1650846860756888.0
-11.0,-15.0,-20.0,3.0,1.0,0.0,8.0,15.0,1650846860757828.0
-9.0,-36.0,26.0,28.0,8.0,3.0,-2.0,-4.0,1650846860757828.0
18.0,93.0,43.0,2.0,-6.0,-2.0,-6.0,-11.0,1650846860770371.0
-4.0,-50.0,-16.0,12.0,5.0,-1.0,0.0,14.0,1650846860770371.0
2.0,53.0,15.0,-26.0,-8.0,-2.0,-1.0,-4.0,1650846860778753.0
5.0,-5.0,12.0,14.0,4.0,0.0,-7.0,1.0,1650846860778753.0
-6.0,6.0,-29.0,0.0,8.0,1.0,3.0,3.0,1650846860793849.0
-7.0,1.0,-3.0,11.0,0.0,2.0,8.0,17.0,1650846860793849.0
-2.0,-5.0,16.0,-7.0,-5.0,-3.0,4.0,-5.0,1650846860795777.0
4.0,-9.0,32.0,4.0,-3.0,4.0,-1.0,-3.0,1650846860795777.0
-3.0,-26.0,-9.0,-2.0,-1.0,2.0,10.0,22.0,1650846860816778.0
-11.0,-25.0,-29.0,-18.0,5.0,0.0,-1.0,-6.0,1650846860816778.0
-1.0,-32.0,-16.0,-7.0,-5.0,0.0,2.0,4.0,1650846860817743.0
-15.0,-35.0,-35.0,8.0,1.0,-5.0,-4.0,4.0,1650846860817743.0
4.0,37.0,22.0,8.0,12.0,4.0,10.0,32.0,1650846860829851.0
0.0,-27.0,-1.0,-7.0,-7.0,-6.0,-7.0,-10.0,1650846860829851.0
5.0,-5.0,15.0,7.0,3.0,2.0,0.0,11.0,1650846860838781.0
17.0,44.0,51.0,14.0,1.0,-2.0,2.0,8.0,1650846860838781.0
-5.0,-25.0,-31.0,-17.0,-9.0,1.0,-10.0,-29.0,1650846860853844.0
2.0,-25.0,-4.0,22.0,5.0,0.0,2.0,8.0,1650846860853844.0
2.0,32.0,22.0,16.0,6.0,2.0,-3.0,-3.0,1650846860855841.0
-1.0,-34.0,-39.0,-15.0,2.0,3.0,0.0,-1.0,1650846860855841.0
-4.0,-2.0,15.0,3.0,4.0,3.0,12.0,14.0,1650846860876876.0
-11.0,-19.0,-8.0,-18.0,-9.0,-3.0,-8.0,-48.0,1650846860876876.0
-1.0,38.0,9.0,5.0,-4.0,-4.0,-5.0,-7.0,1650846860877806.0
-16.0,-74.0,-40.0,-20.0,-5.0,-2.0,1.0,-2.0,1650846860877806.0
8.0,37.0,10.0,5.0,-3.0,1.0,0.0,2.0,1650846860889774.0
4.0,21.0,20.0,13.0,4.0,0.0,2.0,22.0,1650846860889774.0
3.0,6.0,6.0,-10.0,-6.0,-5.0,-9.0,-14.0,1650846860898751.0
-6.0,-27.0,-35.0,5.0,6.0,11.0,28.0,64.0,1650846860898751.0
5.0,-9.0,-18.0,-9.0,-3.0,-7.0,-28.0,-75.0,1650846860913737.0
-2.0,-10.0,5.0,-15.0,-9.0,-6.0,-1.0,8.0,1650846860913737.0
0.0,1.0,6.0,-5.0,0.0,-1.0,2.0,-3.0,1650846860915725.0
6.0,76.0,7.0,-15.0,-10.0,-2.0,1.0,7.0,1650846860915725.0
-5.0,-17.0,14.0,21.0,7.0,2.0,6.0,21.0,1650846860936838.0
-5.0,1.0,-13.0,-6.0,-5.0,-1.0,10.0,34.0,1650846860936838.0
2.0,4.0,20.0,20.0,3.0,-1.0,-1.0,-1.0,1650846860937835.0
-1.0,-12.0,-17.0,-23.0,-6.0,-4.0,-14.0,3.0,1650846860937835.0
-19.0,10.0,19.0,-9.0,-9.0,-2.0,5.0,-10.0,1650846860959204.0
4.0,33.0,-19.0,-13.0,-10.0,-6.0,-7.0,-8.0,1650846860959204.0
-11.0,-67.0,-29.0,-26.0,-13.0,-5.0,4.0,10.0,1650846860965256.0
12.0,57.0,33.0,42.0,15.0,3.0,-4.0,-8.0,1650846860965256.0
-6.0,-44.0,-42.0,-28.0,-13.0,-3.0,1.0,10.0,1650846860974166.0
0.0,-10.0,45.0,40.0,20.0,7.0,4.0,17.0,1650846860974166.0
6.0,16.0,-14.0,-4.0,-4.0,-2.0,-5.0,-18.0,1650846860975186.0
-5.0,-3.0,3.0,-12.0,-4.0,-4.0,-6.0,-11.0,1650846860975186.0
7.0,18.0,19.0,33.0,15.0,3.0,-1.0,-9.0,1650846860996289.0
8.0,17.0,5.0,-19.0,-10.0,0.0,1.0,-10.0,1650846860996289.0
-8.0,-3.0,-17.0,7.0,8.0,0.0,1.0,6.0,1650846860998216.0
1.0,10.0,-7.0,-13.0,-3.0,-3.0,-8.0,-32.0,1650846860998216.0
2.0,10.0,17.0,14.0,0.0,1.0,-3.0,0.0,1650846861019160.0
-5.0,-13.0,-33.0,-15.0,-6.0,-3.0,-4.0,-17.0,1650846861019160.0
1.0,10.0,25.0,14.0,3.0,3.0,7.0,19.0,1650846861020161.0
11.0,-11.0,9.0,13.0,6.0,3.0,-12.0,-37.0,1650846861020161.0
5.0,-19.0,-10.0,5.0,4.0,-2.0,-3.0,13.0,1650846861034119.0
-4.0,-35.0,-21.0,5.0,0.0,-2.0,-2.0,-12.0,1650846861034119.0
-9.0,16.0,-16.0,-23.0,-8.0,-2.0,-6.0,-4.0,1650846861035119.0
8.0,44.0,-18.0,-6.0,-5.0,-3.0,5.0,11.0,1650846861035119.0
7.0,29.0,13.0,-1.0,2.0,1.0,-3.0,-8.0,1650846861057060.0
-4.0,-9.0,13.0,10.0,3.0,3.0,-10.0,-16.0,1650846861057060.0
9.0,11.0,1.0,-12.0,-2.0,-1.0,5.0,15.0,1650846861058058.0
-6.0,-11.0,-5.0,-4.0,-5.0,-4.0,-1.0,-3.0,1650846861058058.0
-8.0,-32.0,1.0,-3.0,0.0,0.0,3.0,-3.0,1650846861079009.0
8.0,73.0,7.0,-9.0,-5.0,0.0,-3.0,-4.0,1650846861079009.0
-6.0,-49.0,-9.0,-6.0,-4.0,-4.0,-1.0,-13.0,1650846861080994.0
2.0,31.0,5.0,-1.0,7.0,3.0,9.0,31.0,1650846861080994.0
2.0,4.0,-1.0,11.0,3.0,0.0,-1.0,10.0,1650846861092962.0
-7.0,-74.0,-1.0,0.0,-1.0,3.0,2.0,7.0,1650846861092962.0
15.0,46.0,32.0,8.0,3.0,5.0,16.0,44.0,1650846861099945.0
-6.0,-35.0,-39.0,-27.0,-9.0,-7.0,-12.0,-26.0,1650846861099945.0
-3.0,5.0,-5.0,11.0,4.0,1.0,0.0,-5.0,1650846861116900.0
4.0,29.0,26.0,1.0,3.0,1.0,-2.0,-2.0,1650846861116900.0
-6.0,-28.0,-11.0,3.0,2.0,4.0,4.0,15.0,1650846861117897.0
-1.0,-13.0,2.0,0.0,-5.0,-4.0,4.0,13.0,1650846861117897.0
0.0,14.0,-5.0,-22.0,-8.0,-5.0,-5.0,-10.0,1650846861139347.0
-10.0,-26.0,-26.0,-1.0,0.0,-5.0,-2.0,-6.0,1650846861139347.0
2.0,10.0,6.0,10.0,0.0,-1.0,-7.0,-30.0,1650846861140345.0
-13.0,8.0,12.0,-6.0,-2.0,1.0,12.0,14.0,1650846861140345.0
2.0,-34.0,-3.0,10.0,-4.0,-1.0,-8.0,-18.0,1650846861153309.0
6.0,20.0,11.0,7.0,7.0,0.0,1.0,10.0,1650846861153309.0
-7.0,2.0,-5.0,-4.0,-2.0,-3.0,-7.0,-14.0,1650846861160324.0
0.0,14.0,-3.0,-4.0,1.0,2.0,4.0,2.0,1650846861160324.0
-10.0,-55.0,-11.0,-10.0,-6.0,-1.0,-1.0,-20.0,1650846861176281.0
11.0,57.0,14.0,-8.0,-5.0,-3.0,4.0,6.0,1650846861176281.0
-1.0,-27.0,-5.0,22.0,5.0,0.0,-4.0,-8.0,1650846861178264.0
0.0,-10.0,-7.0,-9.0,-4.0,-3.0,-4.0,-5.0,1650846861178264.0
3.0,39.0,-4.0,-12.0,-5.0,-1.0,6.0,13.0,1650846861199221.0
-7.0,-58.0,-33.0,6.0,2.0,0.0,0.0,-5.0,1650846861199221.0
3.0,-9.0,17.0,6.0,0.0,-5.0,-8.0,-21.0,1650846861200184.0
5.0,3.0,8.0,-2.0,-3.0,-2.0,-7.0,-20.0,1650846861200184.0
-1.0,-3.0,-19.0,-9.0,-1.0,3.0,13.0,28.0,1650846861213150.0
4.0,18.0,2.0,-1.0,1.0,0.0,-16.0,-34.0,1650846861213150.0
-5.0,-25.0,-15.0,-14.0,-6.0,0.0,0.0,-1.0,1650846861220152.0
-1.0,-2.0,7.0,18.0,3.0,-3.0,-5.0,-4.0,1650846861220152.0
5.0,-2.0,4.0,-10.0,-3.0,-2.0,0.0,6.0,1650846861237086.0
2.0,38.0,22.0,4.0,-1.0,2.0,5.0,10.0,1650846861237086.0
2.0,-32.0,-24.0,-8.0,5.0,1.0,4.0,10.0,1650846861242073.0
2.0,32.0,18.0,5.0,-4.0,1.0,6.0,2.0,1650846861242073.0
0.0,-35.0,-11.0,4.0,3.0,-1.0,-3.0,12.0,1650846861259027.0
0.0,10.0,8.0,-11.0,-8.0,-4.0,3.0,8.0,1650846861259027.0
0.0,13.0,0.0,8.0,10.0,8.0,-1.0,-3.0,1650846861261022.0
-4.0,-3.0,-4.0,4.0,0.0,2.0,5.0,11.0,1650846861261022.0
-8.0,-37.0,-4.0,2.0,3.0,-1.0,-3.0,-12.0,1650846861272990.0
12.0,78.0,19.0,-3.0,-3.0,-1.0,5.0,11.0,1650846861272990.0
-5.0,-16.0,-11.0,10.0,-3.0,-5.0,-4.0,19.0,1650846861287980.0
-2.0,-10.0,9.0,8.0,6.0,3.0,-3.0,-11.0,1650846861287980.0
0.0,6.0,-2.0,-12.0,-3.0,2.0,-3.0,-11.0,1650846861296927.0
-1.0,-16.0,1.0,14.0,5.0,1.0,4.0,8.0,1650846861296927.0
0.0,13.0,2.0,-4.0,-4.0,-2.0,0.0,-6.0,1650846861297924.0
-2.0,-10.0,-5.0,0.0,-4.0,-1.0,-3.0,-1.0,1650846861297924.0
-5.0,8.0,8.0,1.0,1.0,-2.0,-5.0,-12.0,1650846861318775.0
-2.0,-24.0,-12.0,-11.0,-5.0,-1.0,-3.0,1.0,1650846861318775.0
0.0,4.0,1.0,-3.0,2.0,-1.0,-1.0,-4.0,1650846861320805.0
2.0,17.0,1.0,0.0,-9.0,-3.0,-1.0,4.0,1650846861320805.0
-1.0,1.0,-2.0,-1.0,14.0,6.0,0.0,-4.0,1650846861333243.0
2.0,-4.0,-4.0,-9.0,0.0,0.0,1.0,3.0,1650846861333243.0
-2.0,-1.0,10.0,5.0,-2.0,-4.0,-6.0,-10.0,1650846861340225.0
-2.0,-21.0,-8.0,-13.0,0.0,-2.0,0.0,2.0,1650846861340225.0
1.0,7.0,-1.0,-12.0,-10.0,-1.0,0.0,-2.0,1650846861356183.0
-2.0,-4.0,8.0,34.0,19.0,5.0,1.0,2.0,1650846861356183.0
-1.0,15.0,5.0,8.0,1.0,2.0,-1.0,-1.0,1650846861358178.0
-2.0,-38.0,-9.0,5.0,-1.0,-1.0,1.0,1.0,1650846861358178.0
-4.0,4.0,-4.0,-13.0,-9.0,-5.0,-3.0,-3.0,1650846861379153.0
0.0,-2.0,3.0,1.0,-4.0,-1.0,1.0,2.0,1650846861379153.0
-3.0,2.0,-11.0,-9.0,-4.0,-2.0,-2.0,-8.0,1650846861385105.0
1.0,6.0,1.0,-2.0,2.0,2.0,2.0,2.0,1650846861385105.0
6.0,31.0,-1.0,6.0,2.0,2.0,0.0,0.0,1650846861393104.0
-4.0,-29.0,-7.0,-9.0,-5.0,-3.0,-3.0,0.0,1650846861393104.0
2.0,6.0,1.0,-3.0,1.0,3.0,1.0,-3.0,1650846861400085.0
-2.0,-6.0,-4.0,-5.0,-1.0,-4.0,-1.0,-4.0,1650846861400085.0
1.0,6.0,-1.0,-12.0,-8.0,-3.0,-1.0,2.0,1650846861416043.0
-2.0,-2.0,3.0,-4.0,0.0,-4.0,-1.0,-2.0,1650846861416043.0
2.0,3.0,-3.0,-4.0,-4.0,-2.0,0.0,0.0,1650846861418018.0
-2.0,-9.0,8.0,29.0,11.0,5.0,0.0,-1.0,1650846861418018.0
1.0,3.0,7.0,8.0,9.0,3.0,0.0,-1.0,1650846861440732.0
-8.0,-18.0,-4.0,6.0,-3.0,-2.0,0.0,-2.0,1650846861440732.0
4.0,5.0,-12.0,-11.0,-5.0,-3.0,-2.0,1.0,1650846861441730.0
0.0,16.0,7.0,-7.0,0.0,-1.0,-3.0,0.0,1650846861441730.0
1.0,-2.0,7.0,21.0,10.0,0.0,-1.0,-1.0,1650846861452700.0
-2.0,7.0,-2.0,0.0,0.0,2.0,-2.0,0.0,1650846861452700.0
-8.0,-26.0,-6.0,-14.0,-5.0,-5.0,-3.0,-3.0,1650846861461661.0
-1.0,3.0,-5.0,-2.0,-4.0,-1.0,-8.0,-10.0,1650846861461661.0
-2.0,2.0,4.0,-7.0,-6.0,-3.0,-1.0,-1.0,1650846861476621.0
-1.0,-6.0,-1.0,14.0,5.0,2.0,1.0,0.0,1650846861476621.0
2.0,-1.0,-1.0,-5.0,-3.0,-1.0,2.0,0.0,1650846861477619.0
0.0,6.0,0.0,-9.0,-4.0,0.0,1.0,-1.0,1650846861477619.0
2.0,-5.0,3.0,7.0,-2.0,-1.0,0.0,0.0,1650846861498562.0
0.0,4.0,-4.0,-10.0,-4.0,-4.0,-1.0,-1.0,1650846861498562.0
-1.0,13.0,6.0,0.0,4.0,0.0,1.0,-1.0,1650846861500558.0
0.0,-26.0,-1.0,21.0,10.0,5.0,1.0,3.0,1650846861500558.0
-1.0,0.0,-6.0,-11.0,-6.0,-3.0,-2.0,-2.0,1650846861512525.0
0.0,-1.0,-2.0,-12.0,-4.0,0.0,1.0,1.0,1650846861512525.0
4.0,23.0,9.0,10.0,7.0,1.0,1.0,0.0,1650846861521501.0
-3.0,-28.0,-10.0,-12.0,-6.0,-3.0,1.0,1.0,1650846861521501.0
-1.0,2.0,5.0,16.0,8.0,3.0,0.0,-1.0,1650846861536461.0
1.0,8.0,-4.0,-9.0,1.0,0.0,-1.0,0.0,1650846861536461.0
-2.0,-9.0,-2.0,2.0,-2.0,-1.0,-2.0,-1.0,1650846861538455.0
0.0,3.0,2.0,-4.0,-6.0,-2.0,0.0,-1.0,1650846861538455.0
1.0,11.0,-2.0,-2.0,-3.0,-2.0,0.0,-1.0,1650846861558403.0
1.0,11.0,4.0,2.0,-1.0,-1.0,0.0,0.0,1650846861558403.0
3.0,-25.0,-10.0,-8.0,-5.0,-2.0,-1.0,2.0,1650846861560398.0
0.0,27.0,6.0,1.0,-2.0,1.0,-1.0,-1.0,1650846861560398.0
-4.0,-17.0,-5.0,-2.0,-1.0,-1.0,-1.0,-1.0,1650846861572366.0
2.0,1.0,-3.0,-12.0,-2.0,-2.0,1.0,2.0,1650846861572366.0
0.0,21.0,5.0,5.0,0.0,1.0,0.0,-2.0,1650846861581341.0
-1.0,-1.0,7.0,2.0,2.0,-4.0,-1.0,0.0,1650846861581341.0
0.0,-3.0,-2.0,0.0,0.0,-1.0,0.0,0.0,1650846861596301.0
1.0,0.0,-2.0,-1.0,-3.0,2.0,-1.0,-1.0,1650846861596301.0
-2.0,-16.0,-8.0,-7.0,1.0,2.0,1.0,-1.0,1650846861598296.0
-1.0,7.0,-3.0,-1.0,0.0,-2.0,1.0,-1.0,1650846861598296.0
-2.0,-6.0,-4.0,-2.0,-4.0,-3.0,-1.0,0.0,1650846861619239.0
-1.0,5.0,3.0,-3.0,-1.0,0.0,1.0,0.0,1650846861619239.0
0.0,3.0,5.0,6.0,7.0,1.0,0.0,0.0,1650846861620238.0
-3.0,-5.0,-1.0,1.0,-1.0,-2.0,1.0,-1.0,1650846861620238.0
0.0,3.0,1.0,-3.0,-2.0,1.0,-1.0,-3.0,1650846861632205.0
-1.0,-11.0,-3.0,1.0,-3.0,-1.0,-1.0,0.0,1650846861632205.0
-3.0,-5.0,-1.0,1.0,1.0,0.0,-1.0,0.0,1650846861641181.0
1.0,-2.0,1.0,0.0,0.0,1.0,-1.0,1.0,1650846861641181.0
3.0,9.0,-1.0,-4.0,-4.0,-3.0,2.0,-1.0,1650846861656141.0
-4.0,-12.0,-3.0,-1.0,-1.0,-2.0,-1.0,-1.0,1650846861656141.0
0.0,5.0,1.0,2.0,-1.0,0.0,-2.0,1.0,1650846861658137.0
-2.0,-1.0,-2.0,-1.0,-1.0,-2.0,0.0,1.0,1650846861658137.0
0.0,-4.0,-1.0,-1.0,0.0,2.0,0.0,2.0,1650846861679079.0
-1.0,-12.0,-5.0,3.0,1.0,0.0,-2.0,-1.0,1650846861679079.0
2.0,14.0,6.0,2.0,0.0,0.0,2.0,0.0,1650846861680077.0
-3.0,4.0,-1.0,-2.0,-1.0,1.0,-2.0,-1.0,1650846861680077.0
-2.0,-11.0,-3.0,1.0,0.0,-1.0,0.0,-1.0,1650846861692045.0
3.0,8.0,2.0,1.0,0.0,-1.0,1.0,0.0,1650846861692045.0
-3.0,-6.0,-1.0,-3.0,-4.0,-5.0,-3.0,-2.0,1650846861702018.0
0.0,-6.0,-1.0,2.0,0.0,-2.0,-1.0,1.0,1650846861702018.0
1.0,4.0,3.0,3.0,3.0,0.0,-1.0,0.0,1650846861715982.0
1.0,1.0,1.0,-2.0,0.0,-1.0,2.0,-2.0,1650846861715982.0
-1.0,-3.0,-3.0,-1.0,-2.0,-1.0,-3.0,-1.0,1650846861717976.0
0.0,7.0,0.0,-2.0,1.0,-1.0,-1.0,-1.0,1650846861717976.0
-2.0,-7.0,-3.0,-1.0,-3.0,1.0,-2.0,0.0,1650846861738920.0
0.0,-2.0,-4.0,-2.0,-1.0,-1.0,-1.0,-1.0,1650846861738920.0
0.0,2.0,0.0,0.0,1.0,1.0,0.0,0.0,1650846861740914.0
-2.0,-1.0,0.0,-3.0,1.0,-2.0,-1.0,-1.0,1650846861740914.0
-1.0,-1.0,0.0,0.0,-2.0,-2.0,0.0,-4.0,1650846861752890.0
0.0,-2.0,0.0,1.0,1.0,1.0,-1.0,1.0,1650846861752890.0
-1.0,0.0,-1.0,2.0,0.0,0.0,0.0,-1.0,1650846861761859.0
1.0,-2.0,-1.0,-1.0,-3.0,0.0,-3.0,0.0,1650846861761859.0
-2.0,-3.0,-2.0,0.0,2.0,-3.0,-1.0,-2.0,1650846861776820.0
-2.0,-1.0,0.0,1.0,-3.0,-2.0,0.0,-1.0,1650846861776820.0
-1.0,-4.0,-2.0,-2.0,-2.0,-1.0,-2.0,1.0,1650846861777816.0
1.0,3.0,0.0,1.0,1.0,2.0,-1.0,0.0,1650846861777816.0
-3.0,3.0,0.0,1.0,-1.0,1.0,-1.0,-1.0,1650846861798737.0
-1.0,-2.0,2.0,2.0,2.0,0.0,-2.0,1.0,1650846861798737.0
-2.0,-4.0,-4.0,-1.0,0.0,-1.0,-1.0,0.0,1650846861800733.0
1.0,3.0,-1.0,-1.0,-2.0,-4.0,0.0,-1.0,1650846861800733.0
-1.0,2.0,1.0,-2.0,-4.0,-1.0,-1.0,0.0,1650846861812700.0
-1.0,-15.0,-4.0,-1.0,-2.0,-1.0,-3.0,-1.0,1650846861812700.0
-2.0,4.0,0.0,-1.0,2.0,2.0,1.0,0.0,1650846861821676.0
3.0,5.0,2.0,3.0,2.0,1.0,1.0,0.0,1650846861821676.0
0.0,0.0,0.0,1.0,5.0,2.0,-2.0,1.0,1650846861836635.0
-2.0,-6.0,-1.0,-2.0,-1.0,-2.0,0.0,0.0,1650846861836635.0
-2.0,1.0,0.0,-1.0,-3.0,-1.0,1.0,-1.0,1650846861837634.0
-1.0,4.0,-3.0,-6.0,-3.0,-2.0,0.0,-2.0,1650846861837634.0
-1.0,13.0,3.0,-6.0,-1.0,1.0,-2.0,-1.0,1650846861858761.0
0.0,-19.0,-5.0,3.0,0.0,-1.0,-1.0,1.0,1650846861858761.0
-1.0,-6.0,-2.0,-3.0,-1.0,1.0,0.0,0.0,1650846861860756.0
-3.0,-10.0,-4.0,2.0,1.0,-1.0,1.0,-2.0,1650846861860756.0
2.0,3.0,-1.0,-6.0,-3.0,-1.0,2.0,0.0,1650846861881700.0
1.0,9.0,1.0,3.0,0.0,0.0,0.0,0.0,1650846861881700.0
0.0,-1.0,2.0,0.0,0.0,0.0,0.0,0.0,1650846861882697.0
-1.0,-3.0,-4.0,-1.0,-2.0,0.0,2.0,0.0,1650846861882697.0
-3.0,-4.0,3.0,3.0,1.0,-1.0,-1.0,-1.0,1650846861896660.0
0.0,2.0,-7.0,-2.0,0.0,-1.0,-1.0,-2.0,1650846861896660.0
1.0,-7.0,-2.0,1.0,-3.0,-2.0,-1.0,1.0,1650846861897658.0
2.0,8.0,2.0,-1.0,-2.0,1.0,-2.0,-1.0,1650846861897658.0
-1.0,-7.0,0.0,5.0,2.0,1.0,0.0,1.0,1650846861918560.0
-1.0,4.0,-1.0,-4.0,-3.0,-1.0,-1.0,-1.0,1650846861918560.0
2.0,10.0,2.0,-1.0,2.0,1.0,0.0,0.0,1650846861920560.0
0.0,6.0,0.0,-3.0,-4.0,-2.0,-1.0,2.0,1650846861920560.0
2.0,-7.0,0.0,2.0,-1.0,1.0,1.0,-1.0,1650846861941794.0
0.0,8.0,2.0,-2.0,-1.0,-1.0,-2.0,-1.0,1650846861941794.0
0.0,-8.0,-2.0,0.0,0.0,-3.0,-1.0,0.0,1650846861942779.0
0.0,9.0,1.0,0.0,-1.0,-1.0,2.0,-1.0,1650846861942779.0
1.0,-3.0,-4.0,0.0,-1.0,1.0,1.0,3.0,1650846861956369.0
0.0,1.0,0.0,1.0,-1.0,0.0,0.0,1.0,1650846861956369.0
1.0,6.0,1.0,2.0,0.0,0.0,-3.0,0.0,1650846861958298.0
-2.0,-14.0,-1.0,0.0,1.0,-1.0,-2.0,-3.0,1650846861958298.0
-1.0,0.0,-3.0,-5.0,-4.0,-3.0,-1.0,-2.0,1650846861979403.0
-1.0,-8.0,-1.0,-2.0,-3.0,-1.0,-1.0,0.0,1650846861979403.0
-2.0,4.0,0.0,3.0,2.0,0.0,-1.0,-2.0,1650846861980403.0
-1.0,-2.0,-1.0,-1.0,2.0,0.0,-1.0,0.0,1650846861980403.0
-2.0,-7.0,-3.0,-1.0,-2.0,-3.0,-1.0,-1.0,1650846862001928.0
-1.0,6.0,2.0,-4.0,-1.0,0.0,0.0,-1.0,1650846862001928.0
-2.0,-9.0,-3.0,-1.0,-4.0,0.0,0.0,0.0,1650846862002853.0
-1.0,2.0,-1.0,0.0,2.0,1.0,0.0,1.0,1650846862002853.0
2.0,30.0,7.0,3.0,1.0,-3.0,-1.0,0.0,1650846862015877.0
0.0,-50.0,-14.0,-12.0,-5.0,-3.0,0.0,1.0,1650846862015877.0
1.0,9.0,2.0,7.0,0.0,-2.0,-2.0,-1.0,1650846862022857.0
0.0,-4.0,-3.0,-3.0,-1.0,-1.0,-1.0,-1.0,1650846862022857.0
-1.0,2.0,1.0,1.0,0.0,2.0,1.0,-1.0,1650846862038814.0
0.0,7.0,1.0,-1.0,1.0,1.0,1.0,-3.0,1650846862038814.0
-1.0,-6.0,-3.0,-3.0,-1.0,-1.0,0.0,-1.0,1650846862040742.0
-1.0,-1.0,0.0,3.0,0.0,-1.0,-1.0,-1.0,1650846862040742.0
-1.0,-9.0,-2.0,-1.0,-1.0,-1.0,2.0,-2.0,1650846862061754.0
-3.0,10.0,6.0,4.0,2.0,-2.0,-3.0,0.0,1650846862061754.0
0.0,-5.0,-4.0,-2.0,-2.0,-1.0,-1.0,-1.0,1650846862062695.0
-1.0,6.0,0.0,2.0,0.0,0.0,0.0,1.0,1650846862062695.0
3.0,-3.0,-3.0,-3.0,0.0,-1.0,-3.0,-2.0,1650846862075657.0
1.0,4.0,2.0,5.0,1.0,0.0,1.0,0.0,1650846862075657.0
0.0,4.0,0.0,-3.0,-1.0,1.0,0.0,0.0,1650846862082630.0
0.0,-4.0,-1.0,-1.0,-1.0,-1.0,0.0,-3.0,1650846862082630.0
-1.0,-8.0,-5.0,0.0,1.0,0.0,-2.0,-1.0,1650846862098838.0
-2.0,2.0,0.0,-1.0,-3.0,-1.0,0.0,1.0,1650846862098838.0
-2.0,-7.0,0.0,-1.0,-1.0,1.0,0.0,1.0,1650846862100795.0
4.0,13.0,4.0,1.0,0.0,1.0,0.0,0.0,1650846862100795.0
-3.0,-10.0,-2.0,-3.0,-5.0,-5.0,0.0,0.0,1650846862120897.0
1.0,13.0,2.0,5.0,2.0,1.0,1.0,-2.0,1650846862120897.0
-1.0,-2.0,-2.0,-2.0,-3.0,-2.0,0.0,0.0,1650846862122892.0
-3.0,2.0,0.0,1.0,1.0,3.0,-2.0,-1.0,1650846862122892.0
1.0,2.0,-2.0,2.0,0.0,0.0,-2.0,-2.0,1650846862135858.0
0.0,-3.0,-1.0,-4.0,-2.0,-2.0,-3.0,0.0,1650846862135858.0
0.0,3.0,-1.0,-1.0,-1.0,-4.0,-1.0,1.0,1650846862143843.0
0.0,-2.0,-1.0,0.0,-3.0,-1.0,-1.0,-1.0,1650846862143843.0
-1.0,1.0,1.0,0.0,0.0,0.0,0.0,0.0,1650846862158796.0
-1.0,-1.0,0.0,-1.0,0.0,0.0,-1.0,-1.0,1650846862158796.0
1.0,-2.0,-3.0,-2.0,0.0,-4.0,0.0,-2.0,1650846862160791.0
-1.0,-6.0,0.0,0.0,0.0,0.0,-1.0,-1.0,1650846862160791.0
-2.0,-9.0,-3.0,-5.0,0.0,-1.0,-1.0,0.0,1650846862181770.0
2.0,13.0,4.0,3.0,1.0,2.0,-1.0,0.0,1650846862181770.0
0.0,0.0,6.0,2.0,2.0,0.0,0.0,-1.0,1650846862182804.0
-1.0,-8.0,-4.0,-5.0,-4.0,-2.0,-1.0,3.0,1650846862182804.0
-1.0,-5.0,4.0,5.0,-1.0,-1.0,-1.0,-1.0,1650846862195763.0
0.0,-2.0,-3.0,1.0,-1.0,1.0,1.0,-1.0,1650846862195763.0
0.0,0.0,-2.0,1.0,1.0,0.0,0.0,-1.0,1650846862202707.0
0.0,-6.0,-1.0,-1.0,-2.0,-4.0,-1.0,1.0,1650846862202707.0
-2.0,-2.0,-3.0,-2.0,0.0,2.0,0.0,1.0,1650846862218910.0
0.0,3.0,2.0,0.0,0.0,0.0,0.0,0.0,1650846862218910.0
0.0,-2.0,-1.0,-2.0,-2.0,-2.0,-3.0,1.0,1650846862220847.0
0.0,-1.0,1.0,2.0,0.0,-1.0,-1.0,0.0,1650846862220847.0
0.0,-2.0,-4.0,-1.0,-1.0,-1.0,0.0,-2.0,1650846862241771.0
-2.0,-2.0,-3.0,-4.0,0.0,0.0,1.0,0.0,1650846862241771.0
-1.0,-1.0,0.0,-1.0,-2.0,0.0,1.0,0.0,1650846862242782.0
-1.0,1.0,-1.0,0.0,-3.0,-1.0,-2.0,0.0,1650846862242782.0
1.0,3.0,0.0,2.0,-1.0,-1.0,1.0,-2.0,1650846862255733.0
1.0,1.0,0.0,2.0,2.0,0.0,0.0,0.0,1650846862255733.0
-1.0,0.0,-3.0,-2.0,2.0,1.0,1.0,-2.0,1650846862263018.0
-3.0,-1.0,-2.0,-1.0,-2.0,-2.0,-2.0,-2.0,1650846862263018.0
0.0,2.0,0.0,-2.0,-2.0,0.0,-1.0,0.0,1650846862278788.0
-1.0,-2.0,-3.0,-1.0,-1.0,-1.0,0.0,-1.0,1650846862278788.0
-1.0,1.0,1.0,0.0,0.0,1.0,0.0,1.0,1650846862280745.0
0.0,3.0,0.0,3.0,-1.0,1.0,2.0,-2.0,1650846862280745.0
0.0,0.0,1.0,0.0,0.0,-1.0,0.0,0.0,1650846862301823.0
-2.0,1.0,-1.0,1.0,-2.0,0.0,0.0,-1.0,1650846862301823.0
2.0,0.0,-1.0,-3.0,-1.0,0.0,-2.0,1.0,1650846862302820.0
0.0,-3.0,-1.0,-3.0,1.0,-2.0,-1.0,0.0,1650846862302820.0
-1.0,0.0,0.0,2.0,-1.0,-2.0,-3.0,-4.0,1650846862315813.0
-1.0,4.0,2.0,-2.0,-2.0,-1.0,-1.0,-1.0,1650846862315813.0
-3.0,-7.0,-4.0,-3.0,-4.0,-1.0,-1.0,-3.0,1650846862322794.0
0.0,-1.0,-1.0,0.0,2.0,1.0,1.0,1.0,1650846862322794.0
0.0,0.0,-4.0,-3.0,-2.0,-1.0,0.0,0.0,1650846862338752.0
-1.0,-3.0,1.0,3.0,1.0,-1.0,-2.0,-1.0,1650846862338752.0
-2.0,-7.0,-2.0,1.0,-5.0,-1.0,0.0,-2.0,1650846862340720.0
0.0,3.0,-2.0,-2.0,0.0,1.0,-2.0,0.0,1650846862340720.0
0.0,-2.0,1.0,-1.0,0.0,0.0,-1.0,1.0,1650846862361665.0
0.0,-1.0,-1.0,-1.0,-2.0,-3.0,0.0,-1.0,1650846862361665.0
1.0,0.0,-1.0,-2.0,0.0,1.0,-1.0,0.0,1650846862362660.0
-2.0,-5.0,-1.0,0.0,0.0,0.0,1.0,-2.0,1650846862362660.0
0.0,2.0,-3.0,0.0,0.0,-2.0,-1.0,1.0,1650846862374656.0
0.0,-4.0,-3.0,-2.0,-2.0,-2.0,-1.0,-2.0,1650846862374656.0
1.0,7.0,1.0,-2.0,1.0,0.0,2.0,1.0,1650846862383604.0
0.0,-2.0,-2.0,-1.0,0.0,0.0,-1.0,-1.0,1650846862383604.0
1.0,0.0,0.0,-1.0,-2.0,1.0,0.0,1.0,1650846862398735.0
0.0,-1.0,0.0,-3.0,-1.0,-3.0,-2.0,-2.0,1650846862398735.0
0.0,2.0,-1.0,1.0,-2.0,0.0,-2.0,0.0,1650846862400731.0
0.0,-2.0,-2.0,-1.0,0.0,-1.0,1.0,0.0,1650846862400731.0
-2.0,-5.0,0.0,0.0,-1.0,-2.0,0.0,-2.0,1650846862421674.0
-1.0,-1.0,1.0,3.0,-3.0,0.0,-1.0,-1.0,1650846862421674.0
1.0,1.0,2.0,3.0,5.0,3.0,2.0,1.0,1650846862422680.0
1.0,-4.0,-1.0,0.0,-1.0,-1.0,-2.0,1.0,1650846862422680.0
4.0,7.0,1.0,1.0,-3.0,-1.0,0.0,0.0,1650846862434667.0
-3.0,-8.0,-3.0,-4.0,-1.0,1.0,0.0,0.0,1650846862434667.0
-1.0,11.0,-1.0,-3.0,0.0,-3.0,-2.0,-2.0,1650846862443616.0
0.0,-4.0,0.0,1.0,-2.0,0.0,1.0,-2.0,1650846862443616.0
0.0,-1.0,-2.0,-1.0,0.0,-3.0,0.0,-2.0,1650846862458604.0
1.0,6.0,1.0,0.0,0.0,-1.0,1.0,1.0,1650846862458604.0
-1.0,-8.0,-1.0,1.0,0.0,0.0,-1.0,-1.0,1650846862460571.0
0.0,1.0,-2.0,-1.0,0.0,1.0,0.0,1.0,1650846862460571.0
-4.0,-4.0,0.0,0.0,-1.0,1.0,0.0,0.0,1650846862481624.0
-1.0,3.0,-1.0,-1.0,-1.0,-3.0,-1.0,-2.0,1650846862481624.0
0.0,-4.0,0.0,0.0,-3.0,-3.0,-2.0,0.0,1650846862482612.0
0.0,2.0,0.0,-2.0,-2.0,-2.0,1.0,0.0,1650846862482612.0
0.0,-3.0,-2.0,2.0,0.0,0.0,-2.0,-1.0,1650846862495556.0
-2.0,-3.0,-1.0,-1.0,1.0,1.0,0.0,1.0,1650846862495556.0
1.0,4.0,0.0,-1.0,-2.0,0.0,0.0,-1.0,1650846862504534.0
-1.0,1.0,1.0,2.0,-2.0,-1.0,2.0,0.0,1650846862504534.0
-2.0,-3.0,0.0,0.0,2.0,2.0,0.0,0.0,1650846862518496.0
0.0,3.0,1.0,2.0,1.0,2.0,1.0,0.0,1650846862518496.0
-3.0,-5.0,-3.0,-1.0,0.0,-1.0,-1.0,-1.0,1650846862526475.0
-1.0,-5.0,-3.0,-5.0,-2.0,-2.0,-1.0,-3.0,1650846862526475.0
-1.0,3.0,2.0,0.0,-2.0,-2.0,0.0,-2.0,1650846862541433.0
1.0,-1.0,-2.0,1.0,0.0,-1.0,-1.0,1.0,1650846862541433.0
1.0,0.0,-2.0,1.0,-2.0,-2.0,0.0,0.0,1650846862543430.0
-2.0,1.0,1.0,1.0,1.0,2.0,0.0,-2.0,1650846862543430.0
-3.0,-1.0,-1.0,-2.0,-1.0,0.0,-1.0,0.0,1650846862555423.0
1.0,-1.0,0.0,0.0,0.0,-1.0,0.0,-1.0,1650846862555423.0
2.0,3.0,-1.0,0.0,0.0,-1.0,-1.0,-1.0,1650846862563783.0
-3.0,-5.0,-1.0,-3.0,-3.0,1.0,0.0,0.0,1650846862563783.0
0.0,1.0,-1.0,-2.0,-2.0,-1.0,-2.0,0.0,1650846862578813.0
0.0,1.0,3.0,-2.0,1.0,-1.0,0.0,-1.0,1650846862578813.0
-2.0,-4.0,-1.0,1.0,-1.0,0.0,0.0,0.0,1650846862580768.0
2.0,0.0,-2.0,0.0,0.0,-1.0,-2.0,1.0,1650846862580768.0
0.0,-2.0,2.0,-1.0,1.0,1.0,-1.0,-2.0,1650846862601715.0
1.0,0.0,-1.0,0.0,-3.0,-1.0,0.0,0.0,1650846862601715.0
-1.0,0.0,-1.0,0.0,-2.0,-2.0,0.0,-2.0,1650846862602681.0
1.0,2.0,0.0,2.0,2.0,0.0,-1.0,0.0,1650846862602681.0
0.0,-1.0,-3.0,1.0,0.0,-2.0,0.0,0.0,1650846862614715.0
0.0,-3.0,-2.0,-1.0,-1.0,-2.0,0.0,-2.0,1650846862614715.0
0.0,0.0,1.0,0.0,-1.0,0.0,1.0,1.0,1650846862623626.0
1.0,-2.0,-2.0,0.0,-2.0,0.0,-1.0,0.0,1650846862623626.0
1.0,2.0,0.0,-3.0,1.0,3.0,1.0,2.0,1650846862638613.0
-1.0,-3.0,-3.0,-3.0,-1.0,0.0,0.0,-2.0,1650846862638613.0
-2.0,-3.0,0.0,-2.0,0.0,-1.0,-1.0,1.0,1650846862640580.0
-1.0,-1.0,2.0,-1.0,0.0,-2.0,-1.0,-2.0,1650846862640580.0
1.0,-1.0,-1.0,-1.0,-4.0,-1.0,-2.0,0.0,1650846862661593.0
0.0,-3.0,0.0,1.0,0.0,-1.0,0.0,-1.0,1650846862661593.0
0.0,7.0,-1.0,1.0,4.0,1.0,0.0,-1.0,1650846862663520.0
1.0,0.0,1.0,-3.0,-1.0,-3.0,1.0,0.0,1650846862663520.0
-1.0,-2.0,-1.0,0.0,0.0,-1.0,-1.0,-2.0,1650846862675509.0
-1.0,1.0,0.0,1.0,-1.0,1.0,-1.0,2.0,1650846862675509.0
-3.0,-6.0,-2.0,-3.0,-1.0,-2.0,-1.0,0.0,1650846862684490.0
1.0,2.0,0.0,-2.0,-1.0,-1.0,1.0,-1.0,1650846862684490.0
0.0,-1.0,-1.0,-1.0,0.0,-2.0,1.0,-1.0,1650846862698453.0
1.0,2.0,-3.0,-2.0,1.0,1.0,0.0,1.0,1650846862698453.0
-2.0,-3.0,0.0,1.0,-2.0,0.0,-1.0,-1.0,1650846862700421.0
-1.0,3.0,-2.0,-1.0,-1.0,-2.0,-1.0,0.0,1650846862700421.0
0.0,2.0,1.0,-1.0,-3.0,-2.0,0.0,-1.0,1650846862721392.0
1.0,0.0,-2.0,-1.0,-1.0,0.0,0.0,-1.0,1650846862721392.0
2.0,0.0,-2.0,-1.0,0.0,2.0,0.0,-1.0,1650846862723359.0
-1.0,-2.0,-1.0,1.0,0.0,0.0,-2.0,1.0,1650846862723359.0
1.0,2.0,-1.0,0.0,2.0,2.0,-2.0,0.0,1650846862735357.0
-2.0,0.0,0.0,0.0,0.0,-2.0,-4.0,-2.0,1650846862735357.0
-1.0,-6.0,0.0,-1.0,-4.0,-2.0,0.0,0.0,1650846862744304.0
0.0,-1.0,-1.0,0.0,-1.0,1.0,1.0,-1.0,1650846862744304.0
-1.0,0.0,-1.0,-1.0,1.0,-2.0,-2.0,0.0,1650846862759262.0
-1.0,-2.0,-1.0,-1.0,-2.0,0.0,1.0,-1.0,1650846862759262.0
0.0,1.0,2.0,1.0,3.0,1.0,0.0,-1.0,1650846862760261.0
-1.0,-5.0,-4.0,-2.0,-3.0,0.0,-1.0,-1.0,1650846862760261.0
-1.0,-2.0,-1.0,3.0,1.0,0.0,0.0,0.0,1650846862781876.0
0.0,-2.0,-1.0,-2.0,-2.0,-2.0,-1.0,-2.0,1650846862781876.0
-2.0,1.0,0.0,-2.0,-1.0,-2.0,2.0,0.0,1650846862782821.0
-1.0,1.0,2.0,3.0,3.0,2.0,-1.0,0.0,1650846862782821.0
0.0,-3.0,-1.0,-3.0,-1.0,-1.0,0.0,-2.0,1650846862803968.0
-1.0,1.0,0.0,0.0,-1.0,2.0,0.0,0.0,1650846862803968.0
0.0,0.0,-2.0,0.0,-1.0,-2.0,0.0,0.0,1650846862805933.0
1.0,2.0,2.0,0.0,-1.0,0.0,-1.0,1.0,1650846862805933.0
-1.0,-2.0,0.0,0.0,2.0,1.0,0.0,-1.0,1650846862818897.0
-1.0,-1.0,0.0,0.0,-2.0,-1.0,0.0,0.0,1650846862818897.0
1.0,-3.0,0.0,-1.0,-4.0,-2.0,-1.0,1.0,1650846862820893.0
-1.0,-2.0,0.0,1.0,-1.0,-1.0,-1.0,-1.0,1650846862820893.0
0.0,0.0,-3.0,-4.0,-3.0,1.0,1.0,2.0,1650846862841836.0
1.0,1.0,2.0,1.0,2.0,-1.0,-1.0,-1.0,1650846862841836.0
0.0,-1.0,-2.0,0.0,-2.0,-2.0,-1.0,-1.0,1650846862842834.0
-1.0,-1.0,6.0,2.0,2.0,0.0,-1.0,-3.0,1650846862842834.0
-1.0,2.0,0.0,1.0,-1.0,-1.0,-2.0,-2.0,1650846862863845.0
-1.0,0.0,-2.0,-5.0,-3.0,-2.0,0.0,2.0,1650846862863845.0
0.0,-1.0,-4.0,-1.0,0.0,1.0,0.0,-1.0,1650846862865800.0
-2.0,1.0,-3.0,-1.0,-1.0,0.0,0.0,-1.0,1650846862865800.0
0.0,4.0,4.0,-3.0,-1.0,-2.0,-1.0,-1.0,1650846862878805.0
-4.0,-9.0,-2.0,3.0,3.0,1.0,0.0,-1.0,1650846862878805.0
0.0,2.0,5.0,2.0,-1.0,-2.0,-2.0,-1.0,1650846862880733.0
0.0,-3.0,-5.0,0.0,-1.0,1.0,2.0,0.0,1650846862880733.0
1.0,5.0,3.0,8.0,1.0,1.0,-1.0,1.0,1650846862901875.0
1.0,0.0,-1.0,-4.0,-2.0,-1.0,-1.0,-2.0,1650846862901875.0
-1.0,0.0,5.0,2.0,-1.0,1.0,1.0,2.0,1650846862902804.0
0.0,0.0,1.0,1.0,-2.0,-2.0,-2.0,-1.0,1650846862902804.0
-3.0,-5.0,-3.0,2.0,2.0,2.0,2.0,1.0,1650846862923929.0
7.0,10.0,-1.0,0.0,4.0,1.0,1.0,2.0,1650846862923929.0
-9.0,-20.0,-5.0,-6.0,-3.0,-4.0,-3.0,-4.0,1650846862925897.0
1.0,8.0,1.0,-3.0,-2.0,0.0,-2.0,-2.0,1650846862925897.0
-2.0,-2.0,4.0,1.0,-4.0,-2.0,2.0,4.0,1650846862938862.0
-3.0,0.0,-7.0,1.0,2.0,1.0,1.0,-1.0,1650846862938862.0
0.0,5.0,3.0,0.0,3.0,3.0,-2.0,2.0,1650846862940857.0
-1.0,-4.0,-2.0,-7.0,-4.0,1.0,-1.0,0.0,1650846862940857.0
1.0,-4.0,-5.0,1.0,0.0,0.0,-2.0,-3.0,1650846862961801.0
-3.0,1.0,9.0,0.0,-3.0,-2.0,-1.0,3.0,1650846862961801.0
8.0,14.0,-3.0,1.0,2.0,1.0,1.0,1.0,1650846862962811.0
-13.0,-20.0,9.0,2.0,-6.0,-7.0,-3.0,-4.0,1650846862962811.0
4.0,7.0,3.0,-3.0,2.0,-1.0,-1.0,0.0,1650846862983742.0
-4.0,-19.0,-49.0,-17.0,-5.0,-4.0,0.0,-2.0,1650846862983742.0
2.0,14.0,29.0,12.0,4.0,2.0,1.0,4.0,1650846862985736.0
-1.0,-7.0,5.0,-4.0,-7.0,-3.0,1.0,4.0,1650846862985736.0
1.0,0.0,-13.0,-9.0,1.0,-1.0,-2.0,-1.0,1650846862998749.0
-1.0,-2.0,5.0,8.0,2.0,0.0,1.0,-2.0,1650846862998749.0
1.0,6.0,-2.0,-1.0,1.0,3.0,2.0,3.0,1650846863004762.0
2.0,-1.0,-6.0,3.0,0.0,-1.0,-5.0,-7.0,1650846863004762.0
-2.0,-7.0,7.0,1.0,-3.0,0.0,1.0,1.0,1650846863021717.0
6.0,12.0,19.0,16.0,1.0,-3.0,-2.0,-4.0,1650846863021717.0
-8.0,-18.0,-13.0,-16.0,-5.0,1.0,1.0,0.0,1650846863022688.0
7.0,10.0,8.0,10.0,5.0,3.0,2.0,1.0,1650846863022688.0
6.0,8.0,11.0,1.0,2.0,1.0,3.0,13.0,1650846863043658.0
-11.0,-6.0,-15.0,-11.0,-6.0,-2.0,-6.0,-22.0,1650846863043658.0
-5.0,-16.0,-9.0,-8.0,-6.0,-8.0,-3.0,-4.0,1650846863045626.0
1.0,5.0,-7.0,-5.0,1.0,2.0,1.0,3.0,1650846863045626.0
-3.0,13.0,27.0,13.0,5.0,-3.0,-3.0,-5.0,1650846863058618.0
-2.0,-14.0,-11.0,-5.0,-5.0,-3.0,-1.0,4.0,1650846863058618.0
0.0,-8.0,-13.0,-11.0,-4.0,0.0,0.0,-4.0,1650846863065593.0
4.0,5.0,10.0,7.0,3.0,3.0,6.0,5.0,1650846863065593.0
-3.0,-9.0,-18.0,-7.0,-4.0,-1.0,-4.0,-7.0,1650846863081596.0
1.0,5.0,22.0,17.0,4.0,1.0,-3.0,1.0,1650846863081596.0
-2.0,-4.0,-12.0,-8.0,-5.0,-5.0,-3.0,-2.0,1650846863082527.0
-1.0,6.0,0.0,1.0,3.0,-1.0,-2.0,5.0,1650846863082527.0
-1.0,-2.0,-7.0,-1.0,-1.0,1.0,3.0,-2.0,1650846863103499.0
4.0,7.0,7.0,1.0,2.0,1.0,1.0,3.0,1650846863103499.0
-1.0,-2.0,-5.0,-3.0,-1.0,1.0,1.0,0.0,1650846863105466.0
4.0,18.0,12.0,10.0,3.0,0.0,1.0,1.0,1650846863105466.0
-11.0,-17.0,-28.0,-21.0,-11.0,-7.0,-4.0,-7.0,1650846863118430.0
-1.0,-2.0,-2.0,-6.0,-2.0,0.0,3.0,9.0,1650846863118430.0
3.0,-17.0,-13.0,-5.0,0.0,-1.0,-5.0,-6.0,1650846863125440.0
-3.0,-1.0,-16.0,-22.0,-5.0,-2.0,-1.0,-5.0,1650846863125440.0
2.0,-8.0,-2.0,7.0,0.0,0.0,-2.0,0.0,1650846863141369.0
3.0,18.0,19.0,16.0,3.0,-1.0,0.0,-5.0,1650846863141369.0
-3.0,-3.0,-19.0,-14.0,-5.0,-4.0,0.0,26.0,1650846863143365.0
-6.0,-17.0,28.0,1.0,-2.0,-2.0,-4.0,-8.0,1650846863143365.0
-2.0,10.0,-27.0,-4.0,-1.0,-1.0,-1.0,-1.0,1650846863163841.0
2.0,-15.0,3.0,-1.0,0.0,0.0,-4.0,-7.0,1650846863163841.0
3.0,9.0,12.0,8.0,2.0,-1.0,-2.0,-4.0,1650846863165867.0
7.0,31.0,-8.0,-1.0,2.0,0.0,-2.0,0.0,1650846863165867.0
2.0,-15.0,14.0,6.0,3.0,2.0,3.0,2.0,1650846863177806.0
-7.0,9.0,1.0,-3.0,0.0,4.0,7.0,11.0,1650846863177806.0
-7.0,7.0,14.0,12.0,1.0,-1.0,-8.0,-16.0,1650846863184787.0
3.0,5.0,-20.0,-15.0,-6.0,-3.0,2.0,4.0,1650846863184787.0
0.0,-7.0,18.0,9.0,-3.0,-3.0,-1.0,-3.0,1650846863201769.0
1.0,12.0,-4.0,-9.0,-1.0,0.0,-2.0,2.0,1650846863201769.0
1.0,0.0,22.0,10.0,5.0,3.0,3.0,-1.0,1650846863202739.0
-7.0,-15.0,-32.0,-8.0,-4.0,-6.0,-11.0,-13.0,1650846863202739.0
-6.0,-2.0,-6.0,-8.0,-3.0,2.0,-4.0,-1.0,1650846863223711.0
-2.0,-13.0,-2.0,1.0,-1.0,0.0,-1.0,2.0,1650846863223711.0
7.0,25.0,9.0,-5.0,1.0,2.0,3.0,1.0,1650846863225678.0
-6.0,-42.0,-5.0,11.0,5.0,0.0,-1.0,-5.0,1650846863225678.0
0.0,11.0,1.0,-3.0,-2.0,-2.0,0.0,-2.0,1650846863238152.0
-7.0,-4.0,2.0,-5.0,-4.0,-1.0,-5.0,-22.0,1650846863238152.0
3.0,-7.0,-11.0,1.0,2.0,5.0,7.0,17.0,1650846863245178.0
1.0,22.0,12.0,7.0,0.0,0.0,0.0,-2.0,1650846863245178.0
-3.0,-18.0,-8.0,2.0,1.0,-2.0,-3.0,0.0,1650846863261092.0
2.0,10.0,21.0,-1.0,-3.0,-2.0,2.0,8.0,1650846863261092.0
1.0,8.0,0.0,3.0,-4.0,-5.0,-2.0,-2.0,1650846863263114.0
-7.0,-23.0,-25.0,-10.0,-4.0,2.0,1.0,-9.0,1650846863263114.0
10.0,38.0,26.0,-3.0,-5.0,-2.0,1.0,5.0,1650846863284060.0
-7.0,-37.0,-30.0,-10.0,-1.0,-3.0,-4.0,6.0,1650846863284060.0
0.0,25.0,9.0,8.0,6.0,1.0,0.0,-10.0,1650846863285027.0
-2.0,-13.0,-15.0,-19.0,-4.0,1.0,-1.0,14.0,1650846863285027.0
8.0,15.0,30.0,22.0,7.0,3.0,9.0,16.0,1650846863298079.0
3.0,14.0,-16.0,-14.0,7.0,6.0,-8.0,-37.0,1650846863298079.0
0.0,-26.0,22.0,0.0,-9.0,-5.0,4.0,8.0,1650846863306997.0
-6.0,2.0,-18.0,-15.0,-6.0,-6.0,-5.0,-5.0,1650846863306997.0
2.0,11.0,-2.0,2.0,2.0,-2.0,0.0,10.0,1650846863321075.0
2.0,-11.0,5.0,-2.0,-1.0,1.0,-1.0,-7.0,1650846863321075.0
-12.0,-25.0,-28.0,6.0,5.0,3.0,5.0,16.0,1650846863323080.0
3.0,50.0,38.0,31.0,8.0,3.0,0.0,4.0,1650846863323080.0
-16.0,-61.0,-33.0,-26.0,-9.0,-6.0,-7.0,-21.0,1650846863344046.0
5.0,43.0,18.0,3.0,-5.0,-6.0,2.0,16.0,1650846863344046.0
-6.0,10.0,-8.0,-8.0,1.0,-1.0,4.0,8.0,1650846863345062.0
8.0,-42.0,10.0,8.0,1.0,-1.0,-22.0,-55.0,1650846863345062.0
-1.0,18.0,-19.0,-3.0,-1.0,2.0,-4.0,0.0,1650846863358007.0
2.0,-31.0,9.0,14.0,2.0,4.0,7.0,10.0,1650846863358007.0
-8.0,-2.0,18.0,4.0,1.0,-1.0,2.0,-5.0,1650846863367053.0
5.0,61.0,0.0,-9.0,0.0,4.0,9.0,11.0,1650846863367053.0
-10.0,-56.0,-5.0,6.0,-3.0,-5.0,0.0,2.0,1650846863381949.0
9.0,26.0,-4.0,-12.0,-5.0,-1.0,-4.0,-4.0,1650846863381949.0
-2.0,-13.0,-17.0,4.0,2.0,0.0,-4.0,-12.0,1650846863382951.0
-8.0,-53.0,-38.0,-8.0,-3.0,-2.0,3.0,13.0,1650846863382951.0
6.0,55.0,28.0,-1.0,6.0,9.0,10.0,-15.0,1650846863403912.0
13.0,-11.0,5.0,-2.0,-6.0,-7.0,-2.0,19.0,1650846863403912.0
-14.0,-47.0,-20.0,-3.0,4.0,3.0,0.0,-8.0,1650846863405879.0
0.0,30.0,-15.0,-9.0,-4.0,-5.0,1.0,9.0,1650846863405879.0
2.0,27.0,21.0,8.0,3.0,3.0,8.0,26.0,1650846863426855.0
15.0,7.0,14.0,9.0,7.0,7.0,9.0,13.0,1650846863426855.0
10.0,34.0,24.0,7.0,2.0,0.0,-6.0,-12.0,1650846863427821.0
-2.0,-35.0,-10.0,2.0,0.0,-2.0,-1.0,4.0,1650846863427821.0
2.0,11.0,-9.0,-6.0,-2.0,0.0,1.0,3.0,1650846863441811.0
-11.0,3.0,3.0,2.0,1.0,-1.0,-6.0,-18.0,1650846863441811.0
10.0,-9.0,2.0,1.0,-1.0,2.0,4.0,16.0,1650846863442782.0
-5.0,1.0,2.0,2.0,5.0,3.0,7.0,13.0,1650846863442782.0
10.0,27.0,40.0,9.0,-1.0,-3.0,-8.0,-12.0,1650846863463792.0
-9.0,-1.0,-15.0,-13.0,-7.0,-6.0,0.0,-4.0,1650846863463792.0
-6.0,-19.0,-17.0,-21.0,-9.0,-2.0,-7.0,-33.0,1650846863465720.0
12.0,11.0,-4.0,-7.0,1.0,6.0,17.0,54.0,1650846863465720.0
-16.0,-42.0,-35.0,4.0,4.0,1.0,-9.0,-36.0,1650846863477729.0
4.0,32.0,16.0,11.0,2.0,-1.0,-4.0,-2.0,1650846863477729.0
-4.0,3.0,16.0,-3.0,-7.0,-5.0,-4.0,0.0,1650846863486663.0
-2.0,27.0,-3.0,-5.0,-1.0,-2.0,0.0,1.0,1650846863486663.0
-3.0,-42.0,-15.0,-13.0,-3.0,-3.0,1.0,9.0,1650846863501623.0
-3.0,9.0,-9.0,-7.0,-3.0,3.0,4.0,10.0,1650846863501623.0
7.0,28.0,8.0,9.0,2.0,1.0,-4.0,-2.0,1650846863502620.0
-4.0,-21.0,-4.0,-7.0,-4.0,-3.0,-1.0,9.0,1650846863502620.0
0.0,0.0,13.0,16.0,3.0,-1.0,-1.0,-5.0,1650846863523594.0
0.0,14.0,-2.0,0.0,-1.0,-3.0,-5.0,-6.0,1650846863523594.0
3.0,-7.0,-2.0,0.0,0.0,-1.0,0.0,7.0,1650846863525559.0
3.0,10.0,16.0,2.0,3.0,1.0,-1.0,-16.0,1650846863525559.0
-2.0,-27.0,-32.0,-18.0,-5.0,-1.0,1.0,7.0,1650846863537527.0
-5.0,1.0,11.0,11.0,1.0,0.0,2.0,10.0,1650846863537527.0
-1.0,-9.0,-14.0,-8.0,-4.0,-5.0,-5.0,-9.0,1650846863546513.0
-1.0,4.0,22.0,13.0,2.0,1.0,-2.0,-10.0,1650846863546513.0
-2.0,1.0,-6.0,-8.0,-8.0,-7.0,-3.0,2.0,1650846863561463.0
-10.0,-57.0,-10.0,-2.0,3.0,0.0,-5.0,7.0,1650846863561463.0
5.0,36.0,-11.0,-4.0,0.0,0.0,-1.0,0.0,1650846863563506.0
-6.0,11.0,24.0,5.0,-6.0,-6.0,-6.0,-22.0,1650846863563506.0
-8.0,-40.0,-36.0,-19.0,-9.0,-7.0,-4.0,1.0,1650846863584401.0
-7.0,-16.0,-6.0,4.0,0.0,-1.0,6.0,9.0,1650846863584401.0
14.0,18.0,8.0,6.0,2.0,2.0,1.0,11.0,1650846863585399.0
-8.0,3.0,12.0,10.0,6.0,2.0,4.0,2.0,1650846863585399.0
13.0,40.0,15.0,8.0,2.0,2.0,1.0,6.0,1650846863598081.0
-12.0,-54.0,-16.0,-1.0,-1.0,-5.0,-17.0,-40.0,1650846863598081.0
-2.0,4.0,-6.0,-3.0,-4.0,-2.0,0.0,5.0,1650846863607058.0
3.0,-15.0,6.0,2.0,0.0,1.0,0.0,0.0,1650846863607058.0
1.0,11.0,3.0,1.0,1.0,-2.0,-8.0,-3.0,1650846863621021.0
1.0,19.0,-5.0,-6.0,-1.0,2.0,7.0,12.0,1650846863621021.0
0.0,-4.0,-4.0,-3.0,-4.0,-3.0,0.0,-6.0,1650846863623032.0
-7.0,-9.0,-7.0,2.0,-1.0,-1.0,-6.0,-6.0,1650846863623032.0
-4.0,6.0,9.0,-3.0,1.0,2.0,4.0,0.0,1650846863644088.0
2.0,-28.0,0.0,3.0,0.0,-3.0,-2.0,3.0,1650846863644088.0
-2.0,13.0,6.0,3.0,0.0,1.0,-1.0,-5.0,1650846863645057.0
3.0,-13.0,-19.0,-7.0,-3.0,0.0,1.0,-3.0,1650846863645057.0
2.0,10.0,1.0,5.0,1.0,-2.0,-6.0,-9.0,1650846863658022.0
1.0,18.0,7.0,-1.0,-1.0,-2.0,3.0,4.0,1650846863658022.0
-1.0,-4.0,0.0,-2.0,2.0,3.0,-2.0,-19.0,1650846863667052.0
1.0,-15.0,15.0,3.0,-1.0,1.0,-6.0,-18.0,1650846863667052.0
13.0,33.0,12.0,7.0,2.0,5.0,15.0,27.0,1650846863681028.0
-7.0,-27.0,-12.0,-8.0,-1.0,-1.0,-2.0,-5.0,1650846863681028.0
-5.0,-8.0,-3.0,-1.0,-2.0,-1.0,0.0,1.0,1650846863682955.0
-3.0,-9.0,-18.0,-7.0,-1.0,-1.0,-1.0,-1.0,1650846863682955.0
5.0,41.0,42.0,11.0,3.0,1.0,-1.0,-5.0,1650846863703966.0
-8.0,-19.0,-29.0,-10.0,-4.0,-3.0,0.0,-9.0,1650846863703966.0
4.0,4.0,7.0,12.0,6.0,3.0,5.0,17.0,1650846863705894.0
2.0,1.0,1.0,0.0,-1.0,-1.0,3.0,2.0,1650846863705894.0
-6.0,-14.0,-9.0,-3.0,-2.0,0.0,-1.0,-1.0,1650846863725959.0
9.0,31.0,20.0,0.0,-2.0,-1.0,2.0,0.0,1650846863725959.0
-3.0,-39.0,-39.0,-10.0,0.0,-3.0,-8.0,-9.0,1650846863727924.0
6.0,-10.0,19.0,10.0,1.0,2.0,1.0,4.0,1650846863727924.0
-5.0,-12.0,-5.0,2.0,3.0,2.0,-3.0,-6.0,1650846863741917.0
0.0,10.0,2.0,-3.0,-2.0,0.0,0.0,4.0,1650846863741917.0
3.0,16.0,-7.0,2.0,-1.0,0.0,-2.0,-10.0,1650846863742915.0
9.0,29.0,21.0,-5.0,-2.0,4.0,13.0,40.0,1650846863742915.0
-3.0,17.0,-16.0,-6.0,-2.0,0.0,2.0,-2.0,1650846863763927.0
-7.0,-13.0,11.0,9.0,2.0,-2.0,-3.0,-3.0,1650846863763927.0
7.0,17.0,6.0,-4.0,-1.0,0.0,3.0,7.0,1650846863765853.0
-2.0,-35.0,-18.0,-5.0,1.0,1.0,1.0,2.0,1650846863765853.0
-1.0,-2.0,6.0,2.0,-1.0,-2.0,-5.0,6.0,1650846863786797.0
-2.0,15.0,-6.0,-3.0,1.0,1.0,-6.0,-16.0,1650846863786797.0
-4.0,-3.0,13.0,3.0,0.0,0.0,9.0,26.0,1650846863787807.0
-3.0,15.0,-5.0,-4.0,0.0,-3.0,-3.0,-6.0,1650846863787807.0
-4.0,-35.0,-12.0,-8.0,-5.0,-2.0,-4.0,-7.0,1650846863800876.0
6.0,16.0,-3.0,3.0,0.0,1.0,3.0,1.0,1650846863800876.0
-2.0,28.0,19.0,-6.0,-4.0,-3.0,-3.0,-2.0,1650846863808831.0
-6.0,-53.0,-13.0,1.0,-2.0,-3.0,-4.0,-11.0,1650846863808831.0
8.0,23.0,-9.0,-2.0,4.0,4.0,2.0,1.0,1650846863823990.0
-5.0,-7.0,43.0,22.0,3.0,0.0,-2.0,4.0,1650846863823990.0
2.0,-12.0,-5.0,-5.0,1.0,1.0,0.0,1.0,1650846863825958.0
-8.0,23.0,0.0,-3.0,-6.0,-4.0,-7.0,-6.0,1650846863825958.0
1.0,-6.0,3.0,2.0,-3.0,-1.0,0.0,-6.0,1650846863845905.0
7.0,11.0,-16.0,-6.0,-3.0,0.0,2.0,5.0,1650846863845905.0
-4.0,-6.0,8.0,3.0,2.0,-2.0,-5.0,-3.0,1650846863847902.0
0.0,-2.0,-4.0,-1.0,5.0,4.0,-1.0,-9.0,1650846863847902.0
2.0,0.0,12.0,4.0,0.0,-1.0,-2.0,3.0,1650846863860892.0
0.0,4.0,-10.0,-7.0,-1.0,1.0,0.0,4.0,1650846863860892.0
-1.0,9.0,4.0,2.0,-1.0,-2.0,1.0,-6.0,1650846863867913.0
4.0,11.0,-5.0,-1.0,-1.0,0.0,-1.0,-1.0,1650846863867913.0
-3.0,-8.0,-4.0,-3.0,-1.0,0.0,2.0,0.0,1650846863883803.0
-6.0,-2.0,4.0,-5.0,-3.0,-5.0,-7.0,-5.0,1650846863883803.0
4.0,7.0,-9.0,-4.0,-5.0,1.0,3.0,5.0,1650846863885798.0
-4.0,-23.0,-4.0,-2.0,-3.0,-3.0,-5.0,-14.0,1650846863885798.0
0.0,-10.0,-7.0,-2.0,0.0,0.0,1.0,3.0,1650846863906853.0
0.0,-14.0,-4.0,3.0,2.0,1.0,2.0,-3.0,1650846863906853.0
-6.0,-20.0,-6.0,-2.0,-2.0,-1.0,-2.0,-3.0,1650846863907807.0
-2.0,18.0,4.0,-1.0,1.0,1.0,2.0,-2.0,1650846863907807.0
-2.0,-21.0,-10.0,-4.0,-3.0,-5.0,-4.0,-5.0,1650846863920800.0
0.0,17.0,2.0,0.0,1.0,0.0,2.0,5.0,1650846863920800.0
2.0,4.0,5.0,0.0,2.0,0.0,-1.0,-7.0,1650846863927781.0
2.0,-4.0,3.0,4.0,2.0,-1.0,2.0,7.0,1650846863927781.0
-2.0,10.0,1.0,-2.0,-2.0,-2.0,-3.0,-5.0,1650846863943738.0
3.0,4.0,-14.0,-4.0,0.0,2.0,2.0,7.0,1650846863943738.0
-5.0,-14.0,-6.0,1.0,-4.0,-3.0,-6.0,-3.0,1650846863945707.0
1.0,3.0,14.0,4.0,1.0,2.0,-1.0,-2.0,1650846863945707.0
0.0,-5.0,-3.0,-4.0,0.0,-1.0,0.0,1.0,1650846863966718.0
1.0,4.0,-4.0,1.0,1.0,-2.0,-1.0,-1.0,1650846863966718.0
-4.0,-3.0,-4.0,-1.0,0.0,0.0,-2.0,-13.0,1650846863967647.0
5.0,0.0,-1.0,-1.0,-4.0,-1.0,4.0,17.0,1650846863967647.0
4.0,35.0,6.0,0.0,-2.0,-3.0,-2.0,0.0,1650846863980680.0
-4.0,-39.0,-1.0,-3.0,0.0,0.0,0.0,2.0,1650846863980680.0
-2.0,-4.0,-3.0,2.0,4.0,0.0,-3.0,-2.0,1650846863987621.0
2.0,16.0,6.0,0.0,-1.0,-1.0,0.0,-2.0,1650846863987621.0
-3.0,-8.0,-7.0,4.0,5.0,2.0,2.0,-2.0,1650846864003580.0
4.0,40.0,-2.0,-11.0,-6.0,0.0,0.0,2.0,1650846864003580.0
0.0,-6.0,1.0,0.0,0.0,0.0,0.0,4.0,1650846864005546.0
-2.0,-7.0,-11.0,-3.0,-1.0,-1.0,-3.0,-4.0,1650846864005546.0
2.0,-6.0,11.0,-2.0,-4.0,0.0,3.0,2.0,1650846864026489.0
-1.0,-3.0,-3.0,-2.0,0.0,1.0,2.0,0.0,1650846864026489.0
1.0,1.0,8.0,7.0,2.0,0.0,-1.0,0.0,1650846864028484.0
-2.0,8.0,2.0,-1.0,-1.0,-3.0,0.0,-3.0,1650846864028484.0
-4.0,-33.0,-17.0,-8.0,-1.0,-2.0,-2.0,0.0,1650846864041045.0
2.0,14.0,23.0,14.0,5.0,-1.0,0.0,0.0,1650846864041045.0
0.0,-4.0,-16.0,-10.0,-6.0,0.0,-3.0,0.0,1650846864048030.0
-4.0,-3.0,2.0,0.0,-2.0,0.0,-2.0,-3.0,1650846864048030.0
-1.0,0.0,-9.0,-1.0,0.0,0.0,2.0,0.0,1650846864063984.0
-2.0,-15.0,-5.0,5.0,1.0,1.0,0.0,3.0,1650846864063984.0
3.0,18.0,0.0,-4.0,2.0,4.0,1.0,3.0,1650846864065979.0
3.0,12.0,11.0,8.0,2.0,0.0,2.0,-1.0,1650846864065979.0
-5.0,-16.0,4.0,0.0,-3.0,0.0,0.0,-5.0,1650846864086930.0
1.0,26.0,-2.0,1.0,0.0,2.0,2.0,3.0,1650846864086930.0
0.0,-6.0,-2.0,-3.0,-3.0,-4.0,0.0,1.0,1650846864087932.0
3.0,2.0,-9.0,0.0,0.0,0.0,-1.0,1.0,1650846864087932.0
1.0,-1.0,-2.0,-6.0,1.0,-2.0,-2.0,-2.0,1650846864100840.0
-1.0,-7.0,8.0,6.0,0.0,-1.0,0.0,-1.0,1650846864100840.0
1.0,12.0,8.0,10.0,2.0,0.0,2.0,-1.0,1650846864107803.0
-2.0,-7.0,-14.0,-9.0,-1.0,-1.0,1.0,-2.0,1650846864107803.0
1.0,1.0,17.0,11.0,1.0,1.0,0.0,0.0,1650846864123739.0
-4.0,-3.0,-13.0,-10.0,-4.0,1.0,-2.0,-4.0,1650846864123739.0
0.0,-3.0,9.0,2.0,0.0,-2.0,1.0,6.0,1650846864125755.0
-4.0,-4.0,-4.0,-1.0,-1.0,-2.0,-3.0,-3.0,1650846864125755.0
4.0,0.0,-2.0,5.0,2.0,2.0,-1.0,-1.0,1650846864146733.0
0.0,-6.0,-1.0,-5.0,-5.0,-2.0,4.0,5.0,1650846864146733.0
-2.0,-1.0,-5.0,-1.0,1.0,0.0,-2.0,-16.0,1650846864147723.0
2.0,-1.0,-6.0,-2.0,-1.0,2.0,2.0,6.0,1650846864147723.0
3.0,0.0,26.0,12.0,0.0,1.0,7.0,30.0,1650846864160674.0
-5.0,-4.0,-9.0,-4.0,-1.0,0.0,0.0,-8.0,1650846864160674.0
0.0,-4.0,2.0,-1.0,0.0,0.0,-3.0,-4.0,1650846864167689.0
6.0,21.0,0.0,-3.0,-4.0,-3.0,-2.0,-5.0,1650846864167689.0
-3.0,10.0,-12.0,-3.0,1.0,-1.0,-2.0,-3.0,1650846864183655.0
0.0,-12.0,-2.0,0.0,-2.0,0.0,-1.0,-3.0,1650846864183655.0
-4.0,-7.0,1.0,2.0,1.0,0.0,1.0,5.0,1650846864185608.0
1.0,6.0,8.0,0.0,0.0,0.0,0.0,0.0,1650846864185608.0
0.0,6.0,6.0,6.0,0.0,1.0,0.0,-6.0,1650846864206586.0
0.0,-2.0,-3.0,-1.0,1.0,-2.0,-1.0,1.0,1650846864206586.0
2.0,6.0,-7.0,-4.0,-4.0,-2.0,0.0,0.0,1650846864207549.0
0.0,-2.0,6.0,2.0,3.0,1.0,6.0,7.0,1650846864207549.0
-1.0,6.0,-5.0,-3.0,0.0,-1.0,-1.0,-7.0,1650846864220535.0
2.0,-13.0,-3.0,-2.0,-3.0,-3.0,-3.0,-2.0,1650846864220535.0
-3.0,8.0,5.0,2.0,-1.0,0.0,-3.0,-7.0,1650846864227495.0
1.0,0.0,-6.0,-7.0,-3.0,1.0,5.0,29.0,1650846864227495.0
-2.0,8.0,-5.0,3.0,1.0,-1.0,-7.0,-10.0,1650846864244020.0
-3.0,-26.0,-9.0,-1.0,-2.0,-5.0,-4.0,9.0,1650846864244020.0
3.0,19.0,12.0,-4.0,-2.0,-1.0,0.0,2.0,1650846864246026.0
-4.0,-8.0,-25.0,-4.0,-1.0,-1.0,-4.0,-10.0,1650846864246026.0
1.0,-2.0,14.0,4.0,-1.0,-3.0,0.0,-4.0,1650846864266965.0
3.0,5.0,8.0,3.0,3.0,3.0,-2.0,-2.0,1650846864266965.0
-3.0,-11.0,-7.0,2.0,0.0,-1.0,-6.0,-8.0,1650846864267957.0
-3.0,1.0,5.0,0.0,-1.0,-2.0,-3.0,-5.0,1650846864267957.0
0.0,0.0,-9.0,-6.0,-2.0,0.0,1.0,3.0,1650846864279925.0
2.0,6.0,1.0,2.0,2.0,-2.0,1.0,-3.0,1650846864279925.0
-3.0,-7.0,-15.0,-5.0,-1.0,1.0,2.0,7.0,1650846864288910.0
3.0,28.0,19.0,3.0,-1.0,-1.0,-4.0,-11.0,1650846864288910.0
-3.0,-35.0,-13.0,1.0,0.0,0.0,-3.0,-1.0,1650846864303888.0
-2.0,16.0,3.0,-5.0,-5.0,-1.0,1.0,1.0,1650846864303888.0
-2.0,-2.0,1.0,-2.0,0.0,0.0,-3.0,-15.0,1650846864305876.0
1.0,-14.0,-15.0,-5.0,0.0,1.0,5.0,8.0,1650846864305876.0
-1.0,11.0,-10.0,-10.0,-2.0,0.0,1.0,-5.0,1650846864326828.0
-7.0,-8.0,23.0,15.0,3.0,-1.0,-3.0,-4.0,1650846864326828.0
3.0,20.0,-5.0,-1.0,3.0,1.0,0.0,0.0,1650846864327797.0
-1.0,-3.0,13.0,9.0,4.0,1.0,-1.0,-6.0,1650846864327797.0
0.0,-5.0,-4.0,-7.0,-5.0,-2.0,3.0,6.0,1650846864340330.0
0.0,-12.0,-11.0,-8.0,-1.0,1.0,-1.0,-20.0,1650846864340330.0
-2.0,-15.0,-3.0,-1.0,-4.0,-1.0,6.0,19.0,1650846864349330.0
1.0,-5.0,3.0,4.0,3.0,1.0,-2.0,-5.0,1650846864349330.0
-1.0,10.0,2.0,-2.0,-1.0,-2.0,-2.0,3.0,1650846864364304.0
5.0,20.0,-1.0,1.0,0.0,0.0,2.0,6.0,1650846864364304.0
-2.0,-14.0,3.0,-2.0,-2.0,0.0,-4.0,-7.0,1650846864365289.0
-1.0,-10.0,-11.0,-4.0,-2.0,0.0,-1.0,1.0,1650846864365289.0
-2.0,-17.0,-1.0,0.0,2.0,0.0,-4.0,-10.0,1650846864386838.0
2.0,17.0,-3.0,0.0,1.0,-1.0,-1.0,4.0,1650846864386838.0
-4.0,-23.0,-2.0,2.0,-1.0,-3.0,0.0,4.0,1650846864387832.0
-1.0,37.0,11.0,-5.0,-5.0,-5.0,-2.0,-7.0,1650846864387832.0
-5.0,-21.0,-11.0,-3.0,-3.0,-3.0,-5.0,-6.0,1650846864399720.0
1.0,5.0,1.0,1.0,0.0,3.0,0.0,6.0,1650846864399720.0
-1.0,-1.0,15.0,0.0,1.0,2.0,1.0,2.0,1650846864408633.0
-8.0,-17.0,-18.0,1.0,-3.0,-2.0,-4.0,-6.0,1650846864408633.0
1.0,12.0,10.0,1.0,2.0,1.0,-3.0,-4.0,1650846864423709.0
-3.0,-3.0,-6.0,-3.0,-1.0,0.0,1.0,-1.0,1650846864423709.0
2.0,-5.0,2.0,1.0,-2.0,-2.0,2.0,1.0,1650846864425724.0
-4.0,-24.0,-8.0,-4.0,-2.0,0.0,0.0,3.0,1650846864425724.0
2.0,23.0,-1.0,-5.0,-1.0,-2.0,0.0,1.0,1650846864446212.0
-1.0,-14.0,-3.0,-1.0,-2.0,-2.0,0.0,0.0,1650846864446212.0
-1.0,12.0,-3.0,2.0,1.0,1.0,0.0,0.0,1650846864448235.0
-1.0,-16.0,1.0,-5.0,-3.0,-3.0,-2.0,-6.0,1650846864448235.0
1.0,17.0,-6.0,-2.0,-3.0,1.0,0.0,0.0,1650846864460202.0
-1.0,6.0,2.0,2.0,2.0,1.0,-1.0,-4.0,1650846864460202.0
1.0,-6.0,-6.0,-14.0,-6.0,-2.0,-1.0,2.0,1650846864468759.0
-2.0,3.0,6.0,20.0,3.0,0.0,1.0,-1.0,1650846864468759.0
-3.0,-11.0,2.0,-6.0,3.0,0.0,-1.0,1.0,1650846864483844.0
0.0,-3.0,-7.0,-15.0,-9.0,0.0,2.0,3.0,1650846864483844.0
0.0,3.0,-4.0,8.0,4.0,1.0,-1.0,1.0,1650846864485841.0
1.0,0.0,9.0,-5.0,-2.0,-1.0,0.0,-1.0,1650846864485841.0
-4.0,-8.0,-16.0,-7.0,-6.0,0.0,0.0,0.0,1650846864506785.0
-1.0,4.0,11.0,2.0,1.0,-2.0,-1.0,0.0,1650846864506785.0
1.0,-7.0,-11.0,-8.0,-4.0,-3.0,0.0,1.0,1650846864507783.0
-2.0,-3.0,2.0,15.0,3.0,1.0,1.0,-1.0,1650846864507783.0
1.0,1.0,5.0,7.0,2.0,0.0,1.0,2.0,1650846864519750.0
-1.0,-5.0,-9.0,-6.0,-2.0,0.0,-1.0,0.0,1650846864519750.0
2.0,3.0,1.0,-2.0,-3.0,-4.0,1.0,-1.0,1650846864528726.0
-2.0,10.0,-2.0,-13.0,-6.0,-3.0,-2.0,-1.0,1650846864528726.0
-3.0,-35.0,-1.0,19.0,7.0,0.0,3.0,-1.0,1650846864544196.0
2.0,11.0,3.0,15.0,10.0,1.0,0.0,-2.0,1650846864544196.0
0.0,-4.0,4.0,-8.0,-10.0,-4.0,-1.0,-1.0,1650846864545196.0
0.0,1.0,1.0,4.0,3.0,2.0,1.0,0.0,1650846864545196.0
2.0,4.0,-1.0,-2.0,5.0,0.0,1.0,2.0,1650846864566134.0
-3.0,-3.0,1.0,3.0,-5.0,-2.0,-3.0,0.0,1650846864566134.0
0.0,-1.0,1.0,6.0,3.0,2.0,0.0,-1.0,1650846864574125.0
1.0,5.0,-4.0,-19.0,-9.0,-6.0,-1.0,0.0,1650846864574125.0
-2.0,4.0,-1.0,-10.0,-5.0,-1.0,0.0,-1.0,1650846864580096.0
1.0,-4.0,-3.0,2.0,2.0,1.0,1.0,0.0,1650846864580096.0
0.0,4.0,1.0,0.0,-1.0,-1.0,0.0,-1.0,1650846864589072.0
-1.0,-8.0,-2.0,0.0,0.0,-1.0,-3.0,-2.0,1650846864589072.0
1.0,5.0,5.0,1.0,0.0,3.0,0.0,-1.0,1650846864604060.0
0.0,-2.0,-5.0,-7.0,-3.0,-3.0,-1.0,0.0,1650846864604060.0
-3.0,-4.0,-1.0,2.0,3.0,1.0,0.0,0.0,1650846864606027.0
0.0,-3.0,3.0,5.0,3.0,-2.0,-1.0,0.0,1650846864606027.0
3.0,2.0,4.0,2.0,4.0,1.0,3.0,2.0,1650846864625973.0
0.0,4.0,-7.0,-9.0,-8.0,-3.0,-1.0,-2.0,1650846864625973.0
-1.0,-5.0,-1.0,-7.0,-2.0,-1.0,1.0,0.0,1650846864627969.0
-2.0,-15.0,-2.0,1.0,5.0,1.0,0.0,-2.0,1650846864627969.0
1.0,19.0,-2.0,-8.0,-11.0,-5.0,-3.0,-2.0,1650846864639963.0
-1.0,-7.0,0.0,5.0,4.0,1.0,-2.0,0.0,1650846864639963.0
1.0,4.0,2.0,3.0,5.0,2.0,-1.0,1.0,1650846864648912.0
-3.0,-7.0,-3.0,-1.0,-2.0,1.0,0.0,0.0,1650846864648912.0
0.0,-4.0,2.0,-5.0,-9.0,-5.0,-1.0,-1.0,1650846864663873.0
0.0,-1.0,-6.0,-6.0,-2.0,-2.0,0.0,-1.0,1650846864663873.0
1.0,-1.0,-4.0,5.0,2.0,0.0,1.0,-1.0,1650846864665894.0
1.0,4.0,4.0,1.0,-1.0,1.0,-1.0,-2.0,1650846864665894.0
-4.0,0.0,1.0,0.0,-1.0,1.0,2.0,0.0,1650846864686810.0
-2.0,-2.0,2.0,5.0,2.0,0.0,1.0,0.0,1650846864686810.0
1.0,1.0,4.0,8.0,2.0,-1.0,-1.0,-4.0,1650846864687808.0
0.0,5.0,-5.0,-6.0,-3.0,0.0,-4.0,2.0,1650846864687808.0
0.0,-1.0,0.0,2.0,0.0,-2.0,-1.0,-2.0,1650846864699819.0
-3.0,-3.0,1.0,2.0,0.0,0.0,-1.0,0.0,1650846864699819.0
0.0,-1.0,-3.0,-4.0,-4.0,-1.0,-1.0,0.0,1650846864708798.0
5.0,17.0,7.0,3.0,1.0,0.0,1.0,-1.0,1650846864708798.0
-4.0,-8.0,-3.0,-1.0,0.0,1.0,-2.0,-1.0,1650846864723785.0
-4.0,-34.0,-3.0,-3.0,-2.0,-1.0,-1.0,0.0,1650846864723785.0
7.0,70.0,4.0,-2.0,-5.0,-1.0,-1.0,0.0,1650846864725752.0
-3.0,-10.0,-1.0,1.0,-1.0,0.0,1.0,-2.0,1650846864725752.0
0.0,-2.0,0.0,0.0,-1.0,-3.0,-2.0,-1.0,1650846864746759.0
-2.0,-1.0,-1.0,-1.0,1.0,-3.0,-2.0,-1.0,1650846864746759.0
-4.0,-23.0,-2.0,1.0,1.0,2.0,0.0,1.0,1650846864747707.0
0.0,6.0,1.0,1.0,-2.0,-1.0,1.0,0.0,1650846864747707.0
1.0,4.0,-2.0,-4.0,-6.0,0.0,1.0,2.0,1650846864768703.0
2.0,12.0,4.0,0.0,4.0,1.0,1.0,-3.0,1650846864768703.0
-6.0,-16.0,-6.0,-3.0,1.0,-3.0,2.0,3.0,1650846864770632.0
3.0,17.0,-1.0,-3.0,-1.0,0.0,0.0,0.0,1650846864770632.0
-5.0,-26.0,-8.0,-3.0,0.0,0.0,-2.0,-3.0,1650846864783664.0
1.0,7.0,2.0,7.0,1.0,2.0,1.0,0.0,1650846864783664.0
-2.0,-10.0,1.0,2.0,-1.0,0.0,-3.0,-2.0,1650846864785592.0
1.0,-1.0,-1.0,0.0,1.0,0.0,0.0,-2.0,1650846864785592.0
-1.0,6.0,0.0,0.0,2.0,1.0,0.0,-2.0,1650846864806535.0
2.0,2.0,0.0,-2.0,-3.0,0.0,1.0,1.0,1650846864806535.0
0.0,-8.0,-3.0,1.0,-3.0,1.0,-1.0,-2.0,1650846864807532.0
0.0,-5.0,0.0,0.0,0.0,-1.0,-2.0,-1.0,1650846864807532.0
-1.0,10.0,1.0,3.0,2.0,-2.0,0.0,-3.0,1650846864828477.0
1.0,5.0,-3.0,-2.0,-3.0,-1.0,1.0,1.0,1650846864828477.0
-2.0,-8.0,-2.0,-1.0,-1.0,0.0,-2.0,0.0,1650846864830471.0
-5.0,-20.0,-5.0,-2.0,-3.0,-2.0,-2.0,0.0,1650846864830471.0
1.0,3.0,0.0,0.0,-2.0,1.0,-2.0,0.0,1650846864843436.0
0.0,5.0,1.0,-3.0,-1.0,-4.0,0.0,-2.0,1650846864843436.0
0.0,-3.0,0.0,0.0,-1.0,-1.0,2.0,0.0,1650846864845441.0
-1.0,-3.0,-1.0,3.0,1.0,-1.0,-1.0,-2.0,1650846864845441.0
-2.0,15.0,3.0,-1.0,-2.0,0.0,0.0,1.0,1650846864866378.0
-2.0,-15.0,-5.0,-2.0,1.0,0.0,1.0,1.0,1650846864866378.0
2.0,5.0,4.0,2.0,2.0,2.0,0.0,-1.0,1650846864868370.0
-1.0,-2.0,-2.0,1.0,-1.0,-1.0,-3.0,-3.0,1650846864868370.0
-4.0,-1.0,-2.0,-1.0,0.0,-2.0,-1.0,-1.0,1650846864889313.0
-3.0,-29.0,0.0,-4.0,-3.0,1.0,2.0,-2.0,1650846864889313.0
5.0,36.0,2.0,1.0,-2.0,-2.0,-1.0,-2.0,1650846864890312.0
-1.0,-1.0,1.0,1.0,1.0,-1.0,0.0,-1.0,1650846864890312.0
2.0,-2.0,-2.0,0.0,-1.0,1.0,-1.0,0.0,1650846864903280.0
-2.0,-3.0,1.0,2.0,1.0,1.0,0.0,1.0,1650846864903280.0
-3.0,-35.0,-7.0,1.0,0.0,-2.0,-3.0,-2.0,1650846864910257.0
1.0,8.0,2.0,0.0,2.0,1.0,2.0,1.0,1650846864910257.0
2.0,1.0,0.0,-1.0,0.0,-1.0,-1.0,0.0,1650846864926215.0
-1.0,7.0,-1.0,-1.0,-3.0,-3.0,-3.0,-1.0,1650846864926215.0
0.0,5.0,0.0,0.0,-2.0,0.0,0.0,0.0,1650846864928210.0
-3.0,1.0,0.0,2.0,-3.0,1.0,0.0,-1.0,1650846864928210.0
2.0,10.0,0.0,0.0,-2.0,-2.0,0.0,0.0,1650846864949314.0
-3.0,-10.0,-5.0,-7.0,-1.0,-1.0,0.0,-2.0,1650846864949314.0
-3.0,-1.0,1.0,2.0,-2.0,-1.0,0.0,-1.0,1650846864950759.0
-1.0,-7.0,-1.0,0.0,1.0,-1.0,-2.0,1.0,1650846864950759.0
0.0,1.0,0.0,0.0,-1.0,0.0,0.0,0.0,1650846864962727.0
0.0,13.0,-2.0,-2.0,-2.0,-2.0,-2.0,-2.0,1650846864962727.0
-1.0,-8.0,-2.0,-4.0,-2.0,-2.0,0.0,-1.0,1650846864969710.0
-1.0,-3.0,-1.0,-5.0,-2.0,-2.0,-1.0,0.0,1650846864969710.0
3.0,12.0,1.0,2.0,0.0,1.0,0.0,0.0,1650846864986781.0
-3.0,1.0,-3.0,-2.0,0.0,2.0,-1.0,-1.0,1650846864986781.0
-2.0,-11.0,0.0,1.0,5.0,2.0,1.0,1.0,1650846864987760.0
-2.0,3.0,-4.0,-5.0,-3.0,-4.0,-1.0,-1.0,1650846864987760.0
-1.0,-6.0,1.0,1.0,-1.0,-1.0,2.0,1.0,1650846865008723.0
1.0,4.0,-2.0,0.0,-2.0,-1.0,-2.0,0.0,1650846865008723.0
-1.0,2.0,0.0,0.0,2.0,0.0,0.0,0.0,1650846865010696.0
0.0,0.0,-2.0,-4.0,-2.0,0.0,-3.0,0.0,1650846865010696.0
-2.0,-7.0,0.0,1.0,-3.0,-1.0,0.0,-1.0,1650846865023661.0
0.0,4.0,1.0,1.0,6.0,-1.0,-2.0,2.0,1650846865023661.0
-1.0,-2.0,-1.0,-3.0,-2.0,-1.0,-1.0,-1.0,1650846865029675.0
-1.0,-2.0,-1.0,3.0,0.0,-2.0,-2.0,-1.0,1650846865029675.0
-1.0,-13.0,-2.0,2.0,-1.0,-3.0,-3.0,-1.0,1650846865046626.0
1.0,5.0,0.0,-1.0,-4.0,-2.0,0.0,1.0,1650846865046626.0
-1.0,-1.0,-1.0,-4.0,0.0,1.0,1.0,-2.0,1650846865047598.0
0.0,1.0,2.0,1.0,2.0,2.0,0.0,-1.0,1650846865047598.0
0.0,-2.0,0.0,1.0,1.0,-2.0,-1.0,0.0,1650846865068580.0
-1.0,1.0,0.0,-1.0,0.0,-1.0,-3.0,-2.0,1650846865068580.0
-2.0,-4.0,-1.0,-3.0,-4.0,-3.0,-1.0,-1.0,1650846865070536.0
0.0,1.0,-2.0,3.0,-1.0,-2.0,0.0,2.0,1650846865070536.0
-2.0,-3.0,0.0,-2.0,1.0,-1.0,3.0,0.0,1650846865083541.0
1.0,4.0,4.0,1.0,-2.0,2.0,1.0,-1.0,1650846865083541.0
0.0,-3.0,-3.0,2.0,0.0,0.0,-1.0,-1.0,1650846865090484.0
-2.0,2.0,-1.0,-1.0,-2.0,1.0,0.0,0.0,1650846865090484.0
0.0,-2.0,0.0,-1.0,-4.0,-1.0,-3.0,-3.0,1650846865106440.0
-1.0,-1.0,-1.0,2.0,2.0,1.0,0.0,0.0,1650846865106440.0
0.0,2.0,0.0,0.0,0.0,0.0,-1.0,0.0,1650846865108434.0
0.0,-2.0,-3.0,-1.0,-2.0,0.0,-1.0,1.0,1650846865108434.0
-1.0,0.0,0.0,1.0,1.0,0.0,-1.0,1.0,1650846865129386.0
-2.0,-3.0,-3.0,-3.0,-3.0,-3.0,0.0,-2.0,1650846865129386.0
-1.0,-3.0,-1.0,0.0,-1.0,0.0,-1.0,0.0,1650846865130376.0
2.0,-3.0,0.0,0.0,2.0,1.0,2.0,-1.0,1650846865130376.0
1.0,-4.0,-2.0,-3.0,-1.0,-1.0,-1.0,0.0,1650846865143369.0
0.0,5.0,0.0,1.0,-1.0,-1.0,0.0,1.0,1650846865143369.0
0.0,2.0,1.0,-2.0,0.0,0.0,1.0,0.0,1650846865150391.0
-3.0,-4.0,-3.0,0.0,-2.0,-1.0,0.0,0.0,1650846865150391.0
1.0,-2.0,0.0,-1.0,0.0,3.0,0.0,0.0,1650846865166287.0
0.0,0.0,-1.0,1.0,1.0,-1.0,-1.0,-1.0,1650846865166287.0
-2.0,-2.0,-2.0,-1.0,-1.0,-3.0,-3.0,1.0,1650846865168296.0
0.0,2.0,-1.0,-2.0,-1.0,0.0,-2.0,-1.0,1650846865168296.0
-3.0,-2.0,-1.0,-1.0,-2.0,-3.0,1.0,1.0,1650846865189286.0
0.0,0.0,0.0,0.0,1.0,1.0,-1.0,0.0,1650846865189286.0
2.0,0.0,3.0,3.0,-3.0,0.0,-1.0,0.0,1650846865190224.0
0.0,-3.0,-1.0,-4.0,0.0,-1.0,1.0,-2.0,1650846865190224.0
-2.0,-2.0,0.0,1.0,0.0,0.0,-1.0,0.0,1650846865203249.0
0.0,2.0,-2.0,-4.0,-2.0,1.0,-1.0,-1.0,1650846865203249.0
0.0,0.0,-2.0,1.0,-2.0,-2.0,1.0,0.0,1650846865210162.0
0.0,-1.0,-1.0,0.0,-3.0,0.0,-1.0,0.0,1650846865210162.0
2.0,0.0,0.0,0.0,0.0,2.0,0.0,0.0,1650846865226120.0
-1.0,0.0,1.0,-1.0,-4.0,-2.0,-4.0,-2.0,1650846865226120.0
-1.0,-1.0,-1.0,-1.0,0.0,0.0,1.0,-1.0,1650846865228114.0
-1.0,0.0,1.0,0.0,0.0,-1.0,1.0,0.0,1650846865228114.0
-1.0,-1.0,-3.0,-2.0,-3.0,-1.0,1.0,-1.0,1650846865249061.0
0.0,-3.0,1.0,0.0,-1.0,0.0,1.0,-1.0,1650846865249061.0
-2.0,1.0,-1.0,-3.0,0.0,-2.0,-1.0,0.0,1650846865250086.0
1.0,2.0,-1.0,-1.0,-2.0,0.0,-1.0,0.0,1650846865250086.0
-1.0,1.0,-1.0,0.0,1.0,0.0,-3.0,1.0,1650846865263021.0
0.0,-1.0,-3.0,0.0,2.0,2.0,-1.0,0.0,1650846865263021.0
-1.0,-1.0,0.0,0.0,-1.0,-2.0,-1.0,-2.0,1650846865272010.0
1.0,-2.0,-1.0,0.0,-4.0,-2.0,2.0,0.0,1650846865272010.0
-1.0,-3.0,1.0,-2.0,2.0,1.0,2.0,-1.0,1650846865286973.0
-1.0,-2.0,-1.0,0.0,0.0,-2.0,0.0,-1.0,1650846865286973.0
0.0,3.0,1.0,1.0,2.0,2.0,0.0,-1.0,1650846865287955.0
0.0,0.0,-1.0,0.0,-1.0,-2.0,-2.0,0.0,1650846865287955.0
0.0,-1.0,-3.0,-1.0,2.0,0.0,-1.0,-1.0,1650846865308926.0
1.0,2.0,0.0,0.0,-1.0,-2.0,-1.0,1.0,1650846865308926.0
0.0,-1.0,-4.0,-2.0,-2.0,-2.0,-1.0,0.0,1650846865310913.0
0.0,3.0,3.0,1.0,1.0,0.0,-2.0,-2.0,1650846865310913.0
0.0,0.0,3.0,1.0,0.0,-1.0,-1.0,-3.0,1650846865322889.0
-2.0,-4.0,-5.0,-4.0,-4.0,-3.0,-1.0,-1.0,1650846865322889.0
-1.0,-4.0,1.0,0.0,-2.0,1.0,0.0,1.0,1650846865331838.0
1.0,0.0,-2.0,1.0,-1.0,0.0,0.0,-1.0,1650846865331838.0
1.0,1.0,-1.0,-2.0,0.0,1.0,0.0,0.0,1650846865346805.0
0.0,-1.0,0.0,1.0,1.0,-1.0,-1.0,0.0,1650846865346805.0
-1.0,-1.0,-1.0,1.0,0.0,-1.0,-2.0,-2.0,1650846865347795.0
-2.0,-4.0,-1.0,-4.0,-2.0,1.0,-1.0,0.0,1650846865347795.0
0.0,1.0,-2.0,1.0,2.0,-1.0,-2.0,-1.0,1650846865369367.0
0.0,1.0,3.0,1.0,-3.0,-3.0,1.0,0.0,1650846865369367.0
1.0,-1.0,0.0,0.0,1.0,3.0,-1.0,1.0,1650846865370751.0
-1.0,-1.0,-3.0,-5.0,-3.0,-1.0,0.0,0.0,1650846865370751.0
0.0,0.0,-1.0,0.0,2.0,-1.0,-3.0,1.0,1650846865382748.0
-1.0,1.0,0.0,-2.0,-1.0,1.0,-1.0,-2.0,1650846865382748.0
-2.0,-2.0,-1.0,1.0,-1.0,-2.0,-2.0,-2.0,1650846865391696.0
0.0,-1.0,1.0,3.0,5.0,3.0,1.0,0.0,1650846865391696.0
0.0,-2.0,-3.0,-3.0,-5.0,1.0,0.0,-1.0,1650846865406683.0
0.0,1.0,0.0,-2.0,-2.0,-1.0,1.0,0.0,1650846865406683.0
-1.0,1.0,0.0,-1.0,0.0,0.0,1.0,-3.0,1650846865407653.0
-1.0,-1.0,1.0,0.0,0.0,-1.0,-3.0,2.0,1650846865407653.0
-1.0,-1.0,-1.0,0.0,-2.0,-1.0,-1.0,0.0,1650846865428596.0
-1.0,-1.0,0.0,1.0,1.0,0.0,-2.0,-1.0,1650846865428596.0
0.0,-1.0,0.0,-1.0,-1.0,-1.0,0.0,0.0,1650846865430591.0
-1.0,2.0,1.0,0.0,-1.0,2.0,0.0,-1.0,1650846865430591.0
-1.0,-2.0,-2.0,0.0,1.0,2.0,-1.0,0.0,1650846865442094.0
0.0,1.0,-1.0,-3.0,-1.0,-2.0,0.0,-2.0,1650846865442094.0
0.0,1.0,1.0,1.0,-2.0,-1.0,-2.0,0.0,1650846865452087.0
