EMG_s0,EMG_s1,EMG_s2,EMG_s3,EMG_s4,EMG_s5,EMG_s6,EMG_s7,timestamp
-2.0,1.0,2.0,6.0,3.0,2.0,0.0,-2.0,1650820306452817.0
-1.0,2.0,2.0,3.0,7.0,6.0,-1.0,1.0,1650820306452817.0
3.0,-3.0,2.0,-7.0,-4.0,-2.0,1.0,-1.0,1650820306453844.0
2.0,-2.0,0.0,-5.0,0.0,1.0,0.0,0.0,1650820306453844.0
-3.0,0.0,2.0,7.0,3.0,1.0,-1.0,2.0,1650820306458801.0
2.0,-1.0,-2.0,-4.0,-5.0,-4.0,0.0,-1.0,1650820306458801.0
2.0,-2.0,0.0,-3.0,1.0,3.0,-1.0,0.0,1650820306459798.0
-5.0,1.0,-1.0,3.0,4.0,6.0,0.0,-1.0,1650820306459798.0
5.0,1.0,0.0,0.0,-2.0,-6.0,-2.0,-2.0,1650820306463820.0
1.0,-3.0,-3.0,-9.0,-7.0,-1.0,1.0,-1.0,1650820306463820.0
-3.0,2.0,0.0,6.0,7.0,3.0,3.0,2.0,1650820306471796.0
0.0,0.0,3.0,5.0,3.0,2.0,1.0,1.0,1650820306471796.0
1.0,-2.0,-5.0,-13.0,-5.0,-5.0,-1.0,-2.0,1650820306481740.0
-1.0,-1.0,0.0,4.0,-1.0,-3.0,-1.0,-1.0,1650820306481740.0
0.0,2.0,2.0,6.0,4.0,1.0,0.0,0.0,1650820306494733.0
0.0,-2.0,1.0,1.0,0.0,3.0,-1.0,-1.0,1650820306494733.0
3.0,-3.0,-3.0,-7.0,-1.0,-2.0,-2.0,1.0,1650820306501718.0
-6.0,0.0,4.0,8.0,1.0,-3.0,-2.0,1.0,1650820306501718.0
6.0,1.0,-7.0,-8.0,-6.0,1.0,1.0,-2.0,1650820306525649.0
1.0,0.0,1.0,-2.0,-1.0,0.0,1.0,1.0,1650820306525649.0
-4.0,1.0,5.0,6.0,1.0,0.0,-1.0,0.0,1650820306529638.0
4.0,1.0,2.0,0.0,-1.0,-2.0,-3.0,-2.0,1650820306529638.0
-1.0,-2.0,-7.0,-6.0,-1.0,-2.0,0.0,-1.0,1650820306539611.0
-2.0,0.0,2.0,2.0,-5.0,-6.0,-2.0,-2.0,1650820306539611.0
0.0,-6.0,-4.0,-15.0,-7.0,-3.0,3.0,-1.0,1650820306581781.0
2.0,-1.0,-1.0,5.0,5.0,0.0,0.0,1.0,1650820306581781.0
-1.0,2.0,6.0,8.0,1.0,-1.0,-2.0,0.0,1650820306584773.0
1.0,-1.0,1.0,-2.0,-4.0,-2.0,2.0,-1.0,1650820306584773.0
-1.0,0.0,2.0,6.0,2.0,0.0,-1.0,1.0,1650820306585770.0
-7.0,2.0,-1.0,2.0,-1.0,-1.0,-1.0,-1.0,1650820306585770.0
5.0,-1.0,-7.0,-14.0,-9.0,-6.0,-4.0,-2.0,1650820306586794.0
2.0,-1.0,-4.0,-8.0,-5.0,-6.0,-2.0,0.0,1650820306586794.0
-5.0,2.0,2.0,13.0,6.0,4.0,-2.0,0.0,1650820306591783.0
1.0,-1.0,-3.0,-3.0,3.0,3.0,1.0,-1.0,1650820306591783.0
2.0,-1.0,0.0,-4.0,2.0,4.0,1.0,1.0,1650820306598763.0
-3.0,2.0,3.0,8.0,4.0,2.0,1.0,-1.0,1650820306598763.0
1.0,0.0,-1.0,-2.0,-3.0,-2.0,-2.0,-2.0,1650820306605729.0
2.0,-3.0,-4.0,-9.0,-9.0,-5.0,-3.0,0.0,1650820306605729.0
-1.0,-1.0,-3.0,2.0,-4.0,-3.0,-2.0,-3.0,1650820306621388.0
-1.0,0.0,0.0,-1.0,-1.0,-1.0,-3.0,-1.0,1650820306621388.0
5.0,1.0,1.0,-2.0,0.0,-1.0,1.0,0.0,1650820306629412.0
-8.0,-2.0,-3.0,-5.0,0.0,3.0,0.0,-3.0,1650820306629412.0
2.0,-1.0,2.0,1.0,-1.0,3.0,4.0,0.0,1650820306652832.0
-4.0,-5.0,-1.0,0.0,3.0,2.0,0.0,0.0,1650820306652832.0
6.0,3.0,0.0,8.0,0.0,-3.0,-3.0,-2.0,1650820306653767.0
1.0,1.0,0.0,-3.0,-5.0,-5.0,-2.0,-2.0,1650820306653767.0
-1.0,-1.0,-5.0,-6.0,0.0,0.0,1.0,1.0,1650820306667302.0
-2.0,0.0,-1.0,5.0,3.0,2.0,-1.0,0.0,1650820306667302.0
-3.0,-1.0,-1.0,-5.0,-2.0,-2.0,-1.0,0.0,1650820306667749.0
3.0,0.0,1.0,0.0,-1.0,1.0,3.0,1.0,1650820306667749.0
-3.0,1.0,9.0,9.0,5.0,2.0,2.0,0.0,1650820306689968.0
2.0,1.0,-6.0,-7.0,-2.0,0.0,-2.0,-1.0,1650820306689968.0
-2.0,-3.0,-2.0,-6.0,-4.0,-4.0,-1.0,-2.0,1650820306690902.0
-1.0,0.0,-2.0,-1.0,-2.0,-3.0,-2.0,-2.0,1650820306690902.0
-4.0,1.0,3.0,8.0,2.0,0.0,-3.0,0.0,1650820306712975.0
1.0,-1.0,1.0,-2.0,-1.0,2.0,2.0,-1.0,1650820306712975.0
2.0,0.0,-3.0,-4.0,0.0,-1.0,-1.0,1.0,1650820306713766.0
0.0,1.0,3.0,4.0,-1.0,-3.0,-2.0,1.0,1650820306713766.0
2.0,-2.0,-1.0,-3.0,-2.0,-3.0,-2.0,-1.0,1650820306727079.0
1.0,0.0,0.0,-3.0,2.0,3.0,3.0,-1.0,1650820306727079.0
-2.0,0.0,-2.0,0.0,0.0,3.0,1.0,-2.0,1650820306728087.0
0.0,0.0,-1.0,1.0,0.0,3.0,0.0,-1.0,1650820306728087.0
2.0,-1.0,1.0,-3.0,0.0,-1.0,-1.0,-1.0,1650820306758060.0
0.0,-2.0,-2.0,-2.0,-5.0,-5.0,-3.0,-1.0,1650820306758060.0
-3.0,-1.0,0.0,0.0,0.0,-3.0,1.0,-2.0,1650820306758060.0
1.0,-2.0,2.0,0.0,-1.0,-2.0,0.0,-1.0,1650820306758060.0
-1.0,0.0,-7.0,-6.0,-2.0,-1.0,-1.0,-2.0,1650820306773064.0
-1.0,1.0,8.0,9.0,2.0,1.0,-1.0,-1.0,1650820306773064.0
-1.0,2.0,0.0,-1.0,-3.0,-1.0,-1.0,0.0,1650820306773064.0
1.0,-1.0,-5.0,-5.0,-2.0,0.0,0.0,-1.0,1650820306773064.0
-3.0,0.0,-1.0,0.0,-5.0,-1.0,-1.0,0.0,1650820306787334.0
1.0,-2.0,-5.0,0.0,2.0,1.0,1.0,0.0,1650820306787334.0
1.0,0.0,2.0,2.0,1.0,3.0,1.0,1.0,1650820306787334.0
0.0,0.0,1.0,-1.0,-1.0,-2.0,-2.0,0.0,1650820306787334.0
-2.0,0.0,0.0,0.0,0.0,-2.0,-1.0,-1.0,1650820306809924.0
-1.0,-1.0,-4.0,-5.0,-5.0,-3.0,-1.0,-1.0,1650820306809924.0
-2.0,-2.0,-1.0,-3.0,0.0,0.0,0.0,-2.0,1650820306810855.0
0.0,1.0,2.0,5.0,2.0,-2.0,-1.0,-2.0,1650820306810855.0
-2.0,-1.0,-5.0,-4.0,-3.0,-2.0,-1.0,-1.0,1650820306832854.0
0.0,1.0,2.0,2.0,1.0,2.0,1.0,0.0,1650820306832854.0
-3.0,-1.0,-1.0,1.0,1.0,2.0,0.0,1.0,1650820306832854.0
-1.0,-1.0,1.0,-1.0,-2.0,1.0,1.0,1.0,1650820306832854.0
0.0,-1.0,-3.0,-5.0,-2.0,-3.0,-2.0,-1.0,1650820306846943.0
0.0,-1.0,0.0,-3.0,-2.0,-3.0,-1.0,0.0,1650820306846943.0
0.0,1.0,2.0,3.0,1.0,2.0,-1.0,-2.0,1650820306847903.0
1.0,-2.0,0.0,2.0,0.0,0.0,-1.0,-1.0,1650820306847903.0
0.0,0.0,-1.0,0.0,0.0,1.0,1.0,-1.0,1650820306868862.0
-1.0,1.0,-1.0,-2.0,-1.0,0.0,-1.0,0.0,1650820306868862.0
0.0,-1.0,-4.0,-4.0,1.0,-2.0,-1.0,-2.0,1650820306877383.0
-1.0,0.0,1.0,0.0,1.0,-1.0,-2.0,-1.0,1650820306877383.0
-1.0,0.0,2.0,0.0,1.0,1.0,-1.0,0.0,1650820306892611.0
-2.0,-3.0,-10.0,-6.0,-2.0,-2.0,-2.0,-2.0,1650820306892611.0
2.0,-1.0,5.0,3.0,-5.0,-2.0,-1.0,-1.0,1650820306893542.0
-1.0,0.0,-2.0,-1.0,0.0,0.0,1.0,0.0,1650820306893542.0
-1.0,1.0,-1.0,2.0,7.0,4.0,0.0,0.0,1650820306907300.0
-2.0,-1.0,3.0,3.0,-2.0,-2.0,-2.0,-1.0,1650820306907300.0
-3.0,-2.0,-1.0,0.0,-1.0,0.0,0.0,0.0,1650820306907736.0
-1.0,1.0,-1.0,-4.0,0.0,3.0,1.0,-1.0,1650820306907736.0
1.0,0.0,-3.0,1.0,-7.0,-4.0,0.0,-2.0,1650820306930748.0
1.0,-1.0,0.0,-2.0,-3.0,-2.0,-1.0,0.0,1650820306930748.0
-2.0,-1.0,-2.0,-2.0,-2.0,-1.0,-2.0,1.0,1650820306931709.0
-1.0,-1.0,-1.0,0.0,-1.0,-3.0,-2.0,0.0,1650820306931709.0
0.0,-2.0,1.0,-1.0,1.0,3.0,-1.0,0.0,1650820306951841.0
-1.0,0.0,-1.0,-1.0,0.0,2.0,-1.0,0.0,1650820306951841.0
1.0,0.0,-3.0,-1.0,3.0,2.0,1.0,1.0,1650820306959819.0
2.0,0.0,-2.0,-3.0,-2.0,-1.0,1.0,1.0,1650820306959819.0
-1.0,-3.0,2.0,1.0,-2.0,-2.0,-2.0,-1.0,1650820306966800.0
-1.0,1.0,2.0,3.0,-1.0,-2.0,-1.0,0.0,1650820306966800.0
-1.0,1.0,-1.0,-2.0,2.0,1.0,-1.0,0.0,1650820306967731.0
0.0,1.0,-3.0,-3.0,-3.0,2.0,0.0,1.0,1650820306967731.0
-5.0,-2.0,-3.0,1.0,1.0,2.0,0.0,1.0,1650820306989927.0
2.0,-3.0,6.0,3.0,-5.0,-6.0,-2.0,0.0,1650820306989927.0
-1.0,-1.0,-7.0,-6.0,-4.0,-4.0,-1.0,-1.0,1650820306990874.0
0.0,-1.0,1.0,0.0,0.0,-1.0,0.0,0.0,1650820306990874.0
2.0,0.0,-5.0,-3.0,0.0,-1.0,-1.0,-1.0,1650820307012974.0
-3.0,2.0,3.0,2.0,5.0,9.0,2.0,-1.0,1650820307012974.0
-1.0,-1.0,3.0,3.0,2.0,2.0,1.0,1.0,1650820307012974.0
2.0,-1.0,-3.0,-4.0,-4.0,-2.0,-1.0,-2.0,1650820307012974.0
-2.0,-1.0,3.0,1.0,-6.0,-7.0,-1.0,0.0,1650820307026683.0
1.0,1.0,-3.0,-5.0,-3.0,-3.0,-2.0,-1.0,1650820307026683.0
2.0,0.0,1.0,1.0,2.0,1.0,-2.0,1.0,1650820307034730.0
-2.0,2.0,3.0,5.0,2.0,0.0,0.0,-3.0,1650820307034730.0
1.0,0.0,-5.0,-4.0,-2.0,1.0,0.0,-1.0,1650820307049806.0
0.0,1.0,-3.0,0.0,1.0,-1.0,0.0,-1.0,1650820307049806.0
-1.0,-3.0,-1.0,1.0,0.0,0.0,0.0,-1.0,1650820307050736.0
-2.0,-1.0,2.0,-2.0,-3.0,-3.0,-4.0,2.0,1650820307050736.0
0.0,0.0,0.0,0.0,3.0,2.0,2.0,-1.0,1650820307073611.0
0.0,-1.0,-2.0,-2.0,1.0,1.0,1.0,0.0,1650820307073611.0
-1.0,-1.0,-2.0,-4.0,-4.0,-3.0,-2.0,-1.0,1650820307079666.0
0.0,-2.0,-2.0,0.0,0.0,-6.0,-1.0,0.0,1650820307079666.0
0.0,0.0,9.0,8.0,5.0,6.0,1.0,1.0,1650820307086629.0
-1.0,-2.0,-5.0,-4.0,-1.0,0.0,1.0,-1.0,1650820307086629.0
-2.0,0.0,3.0,5.0,-1.0,2.0,2.0,-3.0,1650820307094641.0
0.0,0.0,-2.0,-1.0,1.0,2.0,3.0,1.0,1650820307094641.0
1.0,1.0,-2.0,-1.0,-1.0,-3.0,-3.0,-1.0,1650820307109861.0
-1.0,-2.0,-1.0,-3.0,-2.0,-4.0,-1.0,0.0,1650820307109861.0
-2.0,-1.0,-4.0,-6.0,-5.0,-5.0,-4.0,-2.0,1650820307109861.0
-1.0,-3.0,-1.0,2.0,-5.0,-4.0,-1.0,-3.0,1650820307109861.0
0.0,1.0,0.0,-3.0,-1.0,-1.0,-2.0,0.0,1650820307132974.0
-1.0,0.0,0.0,3.0,2.0,2.0,0.0,-2.0,1650820307132974.0
3.0,2.0,2.0,-4.0,2.0,2.0,1.0,1.0,1650820307133725.0
-2.0,-1.0,-1.0,3.0,4.0,4.0,0.0,-1.0,1650820307133725.0
0.0,-5.0,-4.0,0.0,-2.0,1.0,-1.0,0.0,1650820307154905.0
-1.0,0.0,-3.0,-2.0,-6.0,-3.0,-2.0,0.0,1650820307154905.0
0.0,1.0,-2.0,0.0,-3.0,-4.0,1.0,0.0,1650820307155844.0
-1.0,0.0,4.0,1.0,6.0,10.0,1.0,0.0,1650820307155844.0
-1.0,0.0,2.0,-1.0,2.0,0.0,1.0,0.0,1650820307169876.0
0.0,0.0,-4.0,-1.0,-3.0,-4.0,-1.0,-2.0,1650820307169876.0
-3.0,0.0,-1.0,-1.0,-3.0,-1.0,-1.0,-1.0,1650820307169876.0
1.0,0.0,5.0,4.0,-4.0,-3.0,0.0,-2.0,1650820307169876.0
-1.0,-2.0,-1.0,-2.0,-2.0,0.0,0.0,-1.0,1650820307192862.0
0.0,-2.0,-1.0,-3.0,1.0,1.0,-1.0,0.0,1650820307192862.0
2.0,-1.0,-2.0,-1.0,0.0,-3.0,-1.0,-2.0,1650820307193820.0
-3.0,-4.0,-6.0,-3.0,-4.0,-5.0,-3.0,0.0,1650820307193820.0
-1.0,-1.0,5.0,2.0,-4.0,-6.0,-3.0,-2.0,1650820307206649.0
1.0,1.0,1.0,3.0,5.0,4.0,3.0,-1.0,1650820307206649.0
-2.0,1.0,-1.0,2.0,8.0,5.0,1.0,1.0,1650820307213983.0
-2.0,0.0,-3.0,-3.0,0.0,5.0,1.0,0.0,1650820307213983.0
0.0,0.0,-5.0,-3.0,-3.0,-6.0,-1.0,0.0,1650820307229840.0
-1.0,0.0,1.0,2.0,-1.0,-5.0,-1.0,-1.0,1650820307229840.0
-1.0,-2.0,-5.0,-3.0,-1.0,1.0,-2.0,-2.0,1650820307229840.0
-2.0,-2.0,2.0,2.0,-1.0,-1.0,0.0,0.0,1650820307229840.0
0.0,0.0,-2.0,-3.0,-2.0,-1.0,0.0,-1.0,1650820307252618.0
0.0,0.0,2.0,2.0,-1.0,-1.0,0.0,1.0,1650820307252618.0
0.0,2.0,-1.0,0.0,-2.0,-1.0,-1.0,-2.0,1650820307253549.0
-1.0,-3.0,1.0,-3.0,-1.0,-5.0,-3.0,-2.0,1650820307253549.0
-1.0,0.0,-1.0,-2.0,2.0,5.0,2.0,-1.0,1650820307266625.0
1.0,0.0,2.0,1.0,4.0,4.0,3.0,-1.0,1650820307266625.0
0.0,0.0,7.0,7.0,-3.0,-3.0,-1.0,-1.0,1650820307274777.0
1.0,0.0,-5.0,-6.0,0.0,0.0,-1.0,-1.0,1650820307274777.0
0.0,1.0,4.0,7.0,1.0,0.0,-1.0,-1.0,1650820307288974.0
0.0,-1.0,-6.0,-4.0,-2.0,-1.0,-1.0,-2.0,1650820307288974.0
1.0,-2.0,-2.0,-2.0,-3.0,-3.0,2.0,0.0,1650820307289908.0
1.0,0.0,2.0,0.0,-2.0,-3.0,0.0,0.0,1650820307289908.0
0.0,0.0,-3.0,-2.0,-1.0,-1.0,0.0,-1.0,1650820307312900.0
0.0,-2.0,1.0,-1.0,-3.0,-2.0,-2.0,1.0,1650820307312900.0
-3.0,-1.0,2.0,1.0,3.0,2.0,-2.0,0.0,1650820307313833.0
3.0,-1.0,-3.0,-2.0,-1.0,2.0,0.0,0.0,1650820307313833.0
-3.0,-1.0,-4.0,-4.0,-4.0,-4.0,-1.0,0.0,1650820307326601.0
0.0,0.0,-1.0,0.0,-3.0,-1.0,-2.0,-2.0,1650820307326601.0
0.0,-1.0,8.0,5.0,0.0,-2.0,-1.0,-2.0,1650820307334354.0
0.0,-1.0,0.0,3.0,3.0,4.0,-1.0,0.0,1650820307334354.0
1.0,-3.0,-4.0,-5.0,2.0,3.0,0.0,-1.0,1650820307349898.0
-4.0,-1.0,-4.0,-5.0,-1.0,-1.0,-2.0,-2.0,1650820307349898.0
-2.0,2.0,8.0,3.0,-3.0,-4.0,0.0,1.0,1650820307349898.0
-1.0,4.0,6.0,5.0,-2.0,1.0,-1.0,-3.0,1650820307349898.0
-2.0,-2.0,-6.0,-4.0,0.0,-1.0,-1.0,0.0,1650820307372921.0
0.0,-2.0,-7.0,-4.0,1.0,1.0,1.0,0.0,1650820307372921.0
1.0,-1.0,-3.0,-4.0,0.0,2.0,-2.0,0.0,1650820307372921.0
-1.0,1.0,1.0,3.0,-2.0,-2.0,-2.0,1.0,1650820307372921.0
1.0,2.0,10.0,5.0,2.0,2.0,0.0,-1.0,1650820307385821.0
-1.0,0.0,1.0,0.0,1.0,-1.0,-2.0,1.0,1650820307385821.0
0.0,-1.0,-1.0,0.0,-4.0,-4.0,0.0,0.0,1650820307394856.0
0.0,-2.0,-4.0,-2.0,-1.0,0.0,-1.0,0.0,1650820307394856.0
-1.0,1.0,-2.0,-4.0,0.0,2.0,-1.0,-1.0,1650820307409777.0
1.0,1.0,5.0,3.0,1.0,1.0,2.0,1.0,1650820307409777.0
-1.0,0.0,-2.0,-2.0,-2.0,0.0,-2.0,-1.0,1650820307409777.0
-1.0,-1.0,-2.0,-1.0,-2.0,-2.0,0.0,-1.0,1650820307409777.0
0.0,-1.0,-1.0,-2.0,-1.0,-1.0,0.0,-1.0,1650820307432998.0
-2.0,0.0,-1.0,-2.0,-3.0,-2.0,1.0,2.0,1650820307432998.0
-4.0,0.0,0.0,0.0,0.0,1.0,0.0,1.0,1650820307432998.0
4.0,-3.0,-3.0,-5.0,0.0,-2.0,3.0,1.0,1650820307432998.0
0.0,2.0,1.0,2.0,0.0,2.0,-1.0,-3.0,1650820307454947.0
-2.0,-2.0,0.0,0.0,-4.0,-1.0,-1.0,-2.0,1650820307454947.0
1.0,-2.0,-7.0,-2.0,-2.0,-2.0,0.0,0.0,1650820307455934.0
-5.0,-2.0,2.0,0.0,5.0,3.0,1.0,1.0,1650820307455934.0
5.0,1.0,4.0,5.0,-2.0,-2.0,0.0,-1.0,1650820307469899.0
1.0,2.0,2.0,-2.0,-1.0,-3.0,-4.0,-1.0,1650820307469899.0
2.0,1.0,-2.0,-3.0,2.0,4.0,-1.0,-4.0,1650820307469899.0
-2.0,2.0,1.0,2.0,1.0,1.0,-2.0,0.0,1650820307469899.0
-3.0,-7.0,-2.0,-3.0,-1.0,-3.0,3.0,4.0,1650820307492906.0
-3.0,-8.0,-10.0,-9.0,-4.0,-3.0,-2.0,-12.0,1650820307492906.0
-3.0,0.0,2.0,1.0,1.0,0.0,-1.0,2.0,1650820307492906.0
0.0,2.0,-1.0,0.0,2.0,1.0,2.0,-7.0,1650820307492906.0
0.0,3.0,2.0,3.0,2.0,-4.0,5.0,6.0,1650820307515109.0
2.0,1.0,7.0,6.0,4.0,7.0,0.0,5.0,1650820307515109.0
3.0,7.0,2.0,0.0,2.0,0.0,-3.0,-7.0,1650820307516067.0
-5.0,-3.0,-6.0,-8.0,-7.0,-6.0,-5.0,-1.0,1650820307516067.0
-3.0,-6.0,-3.0,-2.0,0.0,0.0,1.0,1.0,1650820307529897.0
-2.0,1.0,1.0,3.0,0.0,-2.0,6.0,4.0,1650820307529897.0
9.0,3.0,1.0,-1.0,-2.0,-1.0,0.0,-1.0,1650820307529897.0
-1.0,6.0,9.0,9.0,1.0,1.0,0.0,4.0,1650820307529897.0
-8.0,-7.0,-17.0,-22.0,-8.0,-4.0,-11.0,-17.0,1650820307559781.0
-6.0,-1.0,-7.0,-3.0,-4.0,-3.0,-7.0,-15.0,1650820307559781.0
-9.0,-22.0,-9.0,-8.0,-3.0,-2.0,1.0,-9.0,1650820307561777.0
6.0,-6.0,5.0,5.0,1.0,4.0,11.0,25.0,1650820307561777.0
10.0,21.0,7.0,10.0,5.0,6.0,5.0,7.0,1650820307574808.0
-8.0,-13.0,4.0,-6.0,0.0,-3.0,2.0,7.0,1650820307574808.0
-7.0,-1.0,0.0,-1.0,3.0,0.0,-6.0,-10.0,1650820307576763.0
3.0,-2.0,8.0,3.0,-3.0,-3.0,-1.0,-3.0,1650820307576763.0
7.0,3.0,3.0,0.0,-3.0,-1.0,-6.0,-11.0,1650820307597941.0
22.0,34.0,15.0,13.0,-5.0,-5.0,-11.0,-10.0,1650820307597941.0
-1.0,13.0,-13.0,-11.0,18.0,15.0,15.0,9.0,1650820307598792.0
-10.0,-14.0,6.0,4.0,-3.0,0.0,17.0,48.0,1650820307598792.0
-38.0,-80.0,10.0,11.0,28.0,16.0,-3.0,-32.0,1650820307610830.0
-10.0,-17.0,10.0,7.0,-9.0,-4.0,12.0,10.0,1650820307610830.0
20.0,-16.0,1.0,-28.0,-15.0,-10.0,-26.0,-11.0,1650820307620751.0
29.0,83.0,6.0,5.0,-12.0,-14.0,-12.0,-22.0,1650820307620751.0
23.0,47.0,24.0,-10.0,5.0,14.0,43.0,50.0,1650820307635870.0
-23.0,-24.0,-27.0,-4.0,-5.0,-4.0,-15.0,8.0,1650820307635870.0
-22.0,-81.0,-11.0,9.0,5.0,6.0,-7.0,-14.0,1650820307636876.0
-12.0,-16.0,12.0,9.0,22.0,16.0,11.0,-4.0,1650820307636876.0
-17.0,14.0,-16.0,-19.0,-18.0,-14.0,-20.0,52.0,1650820307658074.0
-21.0,16.0,-12.0,-22.0,-8.0,-6.0,-16.0,-104.0,1650820307658074.0
76.0,113.0,5.0,18.0,13.0,6.0,-2.0,44.0,1650820307659034.0
-39.0,-45.0,-38.0,-9.0,-9.0,-11.0,-39.0,-89.0,1650820307659034.0
29.0,19.0,26.0,11.0,-24.0,-9.0,46.0,55.0,1650820307671069.0
-79.0,-119.0,-23.0,-15.0,30.0,26.0,37.0,49.0,1650820307671069.0
70.0,64.0,-11.0,-18.0,-13.0,-10.0,-1.0,53.0,1650820307679990.0
-42.0,7.0,63.0,45.0,10.0,3.0,-10.0,-6.0,1650820307679990.0
21.0,117.0,5.0,14.0,6.0,-5.0,19.0,-3.0,1650820307694869.0
127.0,-41.0,12.0,10.0,3.0,6.0,19.0,75.0,1650820307694869.0
-97.0,-70.0,-70.0,-53.0,-15.0,1.0,7.0,-17.0,1650820307696896.0
-93.0,39.0,-35.0,-31.0,-52.0,-32.0,-28.0,-40.0,1650820307696896.0
17.0,74.0,-24.0,-47.0,10.0,7.0,-61.0,-87.0,1650820307717999.0
27.0,28.0,20.0,24.0,-10.0,-36.0,-36.0,-23.0,1650820307717999.0
15.0,80.0,85.0,83.0,8.0,20.0,46.0,3.0,1650820307719012.0
44.0,-49.0,40.0,27.0,23.0,7.0,22.0,108.0,1650820307719012.0
-24.0,-86.0,-33.0,-29.0,-28.0,1.0,18.0,58.0,1650820307731144.0
51.0,89.0,-36.0,-45.0,38.0,16.0,-26.0,-100.0,1650820307731144.0
57.0,-42.0,-16.0,10.0,-2.0,-5.0,-14.0,21.0,1650820307740171.0
9.0,-31.0,-32.0,-23.0,-25.0,-24.0,20.0,19.0,1650820307740171.0
66.0,107.0,68.0,53.0,-38.0,-16.0,-14.0,-68.0,1650820307763022.0
-26.0,-16.0,-2.0,40.0,92.0,43.0,-6.0,84.0,1650820307763022.0
-49.0,14.0,2.0,-32.0,-10.0,-6.0,-9.0,-27.0,1650820307764022.0
67.0,17.0,1.0,6.0,19.0,23.0,18.0,38.0,1650820307764022.0
-37.0,-82.0,-32.0,-23.0,-33.0,-29.0,-14.0,-13.0,1650820307777200.0
-18.0,52.0,32.0,36.0,-48.0,-21.0,5.0,-14.0,1650820307777200.0
-31.0,-19.0,-2.0,-30.0,35.0,17.0,3.0,-17.0,1650820307779134.0
-1.0,-23.0,-35.0,-22.0,9.0,12.0,0.0,-20.0,1650820307779134.0
-27.0,-35.0,-3.0,11.0,-29.0,-23.0,-8.0,15.0,1650820307790861.0
6.0,4.0,27.0,31.0,34.0,28.0,38.0,0.0,1650820307790861.0
17.0,8.0,-10.0,-26.0,-50.0,-26.0,6.0,65.0,1650820307799837.0
20.0,19.0,-43.0,-39.0,11.0,0.0,-36.0,-55.0,1650820307799837.0
-10.0,-15.0,2.0,31.0,44.0,8.0,-34.0,-73.0,1650820307814848.0
-3.0,1.0,-3.0,-11.0,-51.0,-24.0,40.0,117.0,1650820307814848.0
-63.0,-42.0,18.0,37.0,22.0,7.0,7.0,-80.0,1650820307820895.0
63.0,29.0,2.0,-14.0,3.0,4.0,5.0,6.0,1650820307820895.0
64.0,9.0,-12.0,-15.0,-28.0,-15.0,0.0,-30.0,1650820307837922.0
27.0,11.0,-1.0,-20.0,9.0,20.0,27.0,51.0,1650820307837922.0
-2.0,-14.0,0.0,42.0,2.0,-25.0,-66.0,-58.0,1650820307838922.0
-63.0,108.0,37.0,1.0,-42.0,-7.0,26.0,76.0,1650820307838922.0
36.0,-61.0,-25.0,-8.0,45.0,31.0,1.0,30.0,1650820307850872.0
-1.0,-62.0,-36.0,-25.0,-23.0,-14.0,11.0,-58.0,1650820307850872.0
-37.0,52.0,-2.0,-1.0,-18.0,-4.0,-1.0,-50.0,1650820307859854.0
-5.0,-39.0,-14.0,5.0,-10.0,-16.0,-2.0,18.0,1650820307859854.0
-46.0,17.0,-32.0,25.0,25.0,-2.0,10.0,24.0,1650820307874820.0
17.0,48.0,18.0,-36.0,4.0,18.0,-13.0,-17.0,1650820307874820.0
4.0,-40.0,9.0,-4.0,-4.0,-3.0,-5.0,2.0,1650820307880874.0
2.0,5.0,0.0,34.0,-16.0,-10.0,-25.0,-55.0,1650820307880874.0
-8.0,-4.0,17.0,4.0,40.0,24.0,32.0,61.0,1650820307897998.0
-20.0,-64.0,18.0,18.0,-8.0,4.0,24.0,58.0,1650820307897998.0
-16.0,-7.0,8.0,11.0,-16.0,-24.0,-41.0,-80.0,1650820307898814.0
1.0,6.0,4.0,-11.0,40.0,18.0,33.0,66.0,1650820307898814.0
34.0,7.0,-18.0,-2.0,-39.0,-29.0,-49.0,-57.0,1650820307911922.0
-68.0,117.0,2.0,-2.0,34.0,22.0,4.0,41.0,1650820307911922.0
-12.0,-64.0,-13.0,-22.0,-33.0,-22.0,22.0,15.0,1650820307919862.0
-27.0,58.0,11.0,22.0,50.0,37.0,30.0,-22.0,1650820307919862.0
-2.0,-21.0,9.0,15.0,-14.0,-2.0,-20.0,84.0,1650820307935061.0
-51.0,-63.0,-43.0,-10.0,46.0,12.0,4.0,39.0,1650820307935061.0
-8.0,54.0,2.0,-6.0,-24.0,-3.0,3.0,-6.0,1650820307937018.0
-6.0,-50.0,-17.0,-15.0,-15.0,-24.0,-9.0,-41.0,1650820307937018.0
1.0,43.0,11.0,5.0,31.0,14.0,-30.0,-106.0,1650820307958029.0
28.0,15.0,11.0,17.0,-22.0,-16.0,-36.0,-52.0,1650820307958029.0
15.0,9.0,9.0,22.0,47.0,29.0,48.0,95.0,1650820307959019.0
12.0,-14.0,2.0,4.0,-9.0,-12.0,-26.0,27.0,1650820307959019.0
-38.0,-31.0,19.0,-8.0,-47.0,-12.0,33.0,28.0,1650820307980175.0
4.0,-6.0,4.0,-5.0,-6.0,-19.0,-41.0,-120.0,1650820307980175.0
0.0,-9.0,-4.0,0.0,13.0,6.0,-8.0,37.0,1650820307986624.0
34.0,42.0,11.0,-6.0,-10.0,-3.0,8.0,10.0,1650820307986624.0
-63.0,34.0,-16.0,-23.0,-20.0,-34.0,-51.0,-13.0,1650820307995180.0
76.0,-61.0,1.0,17.0,-61.0,-24.0,22.0,4.0,1650820307995180.0
-34.0,6.0,-4.0,-14.0,38.0,34.0,-32.0,-73.0,1650820307997120.0
79.0,9.0,-10.0,-22.0,8.0,5.0,13.0,81.0,1650820307997120.0
13.0,53.0,1.0,3.0,11.0,14.0,32.0,-15.0,1650820308017948.0
-27.0,-55.0,-22.0,1.0,-28.0,-29.0,-2.0,67.0,1650820308017948.0
-20.0,-18.0,18.0,-31.0,-45.0,12.0,58.0,41.0,1650820308019368.0
-32.0,-10.0,-47.0,-9.0,71.0,26.0,-112.0,-128.0,1650820308019368.0
-1.0,75.0,17.0,3.0,2.0,-3.0,24.0,113.0,1650820308039928.0
-8.0,3.0,6.0,13.0,-8.0,-14.0,-34.0,-106.0,1650820308039928.0
39.0,15.0,7.0,19.0,38.0,15.0,15.0,47.0,1650820308041881.0
-17.0,-36.0,-9.0,12.0,-22.0,-11.0,28.0,-29.0,1650820308041881.0
23.0,-5.0,5.0,-12.0,-10.0,5.0,7.0,14.0,1650820308055036.0
-29.0,56.0,-15.0,-12.0,-15.0,-3.0,-11.0,-4.0,1650820308055036.0
17.0,-34.0,4.0,21.0,18.0,-16.0,-12.0,-10.0,1650820308056994.0
-38.0,-53.0,1.0,-15.0,-13.0,-2.0,-5.0,-5.0,1650820308056994.0
29.0,-26.0,1.0,5.0,15.0,22.0,29.0,10.0,1650820308077974.0
-3.0,-14.0,11.0,15.0,14.0,13.0,27.0,36.0,1650820308077974.0
50.0,75.0,17.0,2.0,-87.0,-49.0,-13.0,-23.0,1650820308078986.0
-57.0,57.0,8.0,1.0,100.0,66.0,38.0,99.0,1650820308078986.0
21.0,-99.0,-26.0,-12.0,-9.0,5.0,-7.0,-76.0,1650820308099927.0
-87.0,2.0,1.0,-20.0,-31.0,-18.0,-7.0,29.0,1650820308099927.0
87.0,90.0,-12.0,-22.0,16.0,14.0,44.0,83.0,1650820308101884.0
0.0,42.0,42.0,13.0,-78.0,-27.0,6.0,11.0,1650820308101884.0
30.0,-88.0,-43.0,-39.0,71.0,37.0,24.0,25.0,1650820308115973.0
-10.0,39.0,10.0,-35.0,-21.0,4.0,-17.0,-45.0,1650820308115973.0
22.0,-6.0,-4.0,53.0,40.0,2.0,-18.0,-8.0,1650820308120986.0
-61.0,-63.0,-4.0,6.0,-35.0,-26.0,-7.0,-37.0,1650820308120986.0
28.0,113.0,20.0,5.0,33.0,20.0,0.0,-6.0,1650820308137142.0
69.0,-14.0,19.0,16.0,-7.0,-4.0,11.0,52.0,1650820308137142.0
-74.0,-92.0,-31.0,-16.0,-17.0,-14.0,-18.0,-55.0,1650820308139140.0
20.0,59.0,-5.0,1.0,15.0,-4.0,12.0,54.0,1650820308139140.0
22.0,-8.0,38.0,51.0,-12.0,-8.0,-11.0,-97.0,1650820308159900.0
63.0,42.0,11.0,-4.0,62.0,46.0,61.0,69.0,1650820308159900.0
-78.0,99.0,13.0,-19.0,-29.0,-26.0,-50.0,-64.0,1650820308161922.0
117.0,40.0,10.0,2.0,-9.0,-2.0,-15.0,-13.0,1650820308161922.0
-58.0,81.0,10.0,3.0,-22.0,-16.0,-32.0,-49.0,1650820308173954.0
15.0,-46.0,-63.0,-27.0,-24.0,-4.0,68.0,87.0,1650820308173954.0
-84.0,-75.0,-9.0,-11.0,6.0,3.0,14.0,-38.0,1650820308188854.0
-72.0,-56.0,-8.0,-21.0,-62.0,-37.0,-89.0,-107.0,1650820308188854.0
15.0,81.0,18.0,13.0,45.0,15.0,-6.0,62.0,1650820308197974.0
60.0,100.0,24.0,17.0,-2.0,-2.0,-35.0,-30.0,1650820308197974.0
118.0,57.0,21.0,10.0,25.0,34.0,47.0,26.0,1650820308198793.0
-74.0,-105.0,-18.0,-33.0,-17.0,3.0,54.0,43.0,1650820308198793.0
18.0,49.0,-2.0,21.0,-45.0,-27.0,7.0,-13.0,1650820308219926.0
-30.0,22.0,-5.0,-21.0,37.0,23.0,-11.0,-12.0,1650820308219926.0
-3.0,7.0,-8.0,18.0,1.0,-14.0,-9.0,19.0,1650820308221855.0
49.0,34.0,44.0,29.0,15.0,16.0,1.0,-21.0,1650820308221855.0
-15.0,-27.0,-42.0,-28.0,-29.0,-18.0,-3.0,11.0,1650820308234879.0
-26.0,-8.0,-2.0,26.0,13.0,-2.0,8.0,-26.0,1650820308234879.0
31.0,-51.0,13.0,-13.0,-39.0,-16.0,-14.0,37.0,1650820308240870.0
44.0,44.0,3.0,9.0,23.0,5.0,28.0,6.0,1650820308240870.0
-29.0,-54.0,-5.0,-11.0,21.0,1.0,-15.0,92.0,1650820308256952.0
37.0,16.0,-16.0,-17.0,-44.0,-22.0,-47.0,-128.0,1650820308256952.0
79.0,65.0,10.0,16.0,25.0,10.0,-2.0,98.0,1650820308264907.0
-59.0,-86.0,-32.0,-32.0,-49.0,-11.0,61.0,72.0,1650820308264907.0
-57.0,49.0,7.0,6.0,61.0,29.0,18.0,-34.0,1650820308279967.0
-20.0,-51.0,2.0,23.0,17.0,-8.0,-34.0,-23.0,1650820308279967.0
56.0,90.0,-1.0,-21.0,-4.0,5.0,-17.0,-19.0,1650820308281896.0
90.0,-33.0,4.0,4.0,-27.0,-14.0,-37.0,-13.0,1650820308281896.0
-37.0,19.0,-6.0,-30.0,-32.0,-20.0,1.0,15.0,1650820308294009.0
-21.0,9.0,16.0,29.0,26.0,8.0,-17.0,-28.0,1650820308294009.0
-74.0,-25.0,-47.0,-7.0,21.0,12.0,34.0,61.0,1650820308300993.0
-35.0,75.0,1.0,4.0,-9.0,-12.0,-52.0,-108.0,1650820308300993.0
25.0,-127.0,-9.0,6.0,-26.0,-16.0,10.0,4.0,1650820308318448.0
51.0,54.0,20.0,-11.0,-39.0,-6.0,34.0,124.0,1650820308318448.0
-86.0,-45.0,-25.0,-30.0,24.0,15.0,10.0,-58.0,1650820308319833.0
-21.0,-26.0,-3.0,5.0,20.0,2.0,-13.0,-12.0,1650820308319833.0
12.0,-31.0,0.0,9.0,-51.0,-24.0,-28.0,0.0,1650820308340023.0
14.0,118.0,30.0,33.0,47.0,15.0,63.0,10.0,1650820308340023.0
44.0,-40.0,-3.0,-19.0,-2.0,9.0,-39.0,53.0,1650820308341980.0
-1.0,7.0,-24.0,1.0,15.0,6.0,12.0,6.0,1650820308341980.0
4.0,33.0,23.0,22.0,11.0,11.0,13.0,25.0,1650820308354827.0
-28.0,4.0,-11.0,-35.0,-15.0,-6.0,-39.0,-101.0,1650820308354827.0
6.0,70.0,21.0,25.0,-30.0,-22.0,-3.0,-5.0,1650820308360881.0
81.0,41.0,-11.0,-20.0,73.0,34.0,-2.0,13.0,1650820308360881.0
-21.0,-80.0,14.0,5.0,-9.0,3.0,78.0,97.0,1650820308377673.0
18.0,112.0,12.0,-8.0,-8.0,-1.0,-48.0,-3.0,1650820308377673.0
33.0,-106.0,19.0,38.0,-16.0,-13.0,-14.0,-19.0,1650820308378663.0
-100.0,-60.0,-33.0,-22.0,0.0,4.0,-10.0,-51.0,1650820308378663.0
-47.0,83.0,3.0,-10.0,-12.0,-11.0,-19.0,-52.0,1650820308400176.0
53.0,9.0,8.0,-2.0,17.0,2.0,8.0,32.0,1650820308400176.0
55.0,127.0,24.0,-7.0,-14.0,-4.0,6.0,59.0,1650820308402116.0
-58.0,-71.0,-17.0,-9.0,-28.0,-12.0,-2.0,-34.0,1650820308402116.0
26.0,44.0,-17.0,-21.0,-4.0,-1.0,6.0,17.0,1650820308414254.0
-80.0,-14.0,4.0,17.0,-49.0,-36.0,-24.0,-50.0,1650820308414254.0
20.0,0.0,-6.0,-3.0,79.0,41.0,13.0,-11.0,1650820308421235.0
14.0,22.0,8.0,18.0,11.0,-5.0,2.0,6.0,1650820308421235.0
10.0,-20.0,0.0,-2.0,-12.0,1.0,-6.0,19.0,1650820308437999.0
-5.0,-56.0,-6.0,-2.0,2.0,-2.0,-16.0,-22.0,1650820308437999.0
-103.0,-46.0,-46.0,-22.0,-36.0,-27.0,1.0,-21.0,1650820308439233.0
77.0,73.0,17.0,11.0,42.0,28.0,-7.0,43.0,1650820308439233.0
-9.0,-75.0,11.0,23.0,-22.0,-8.0,-14.0,-10.0,1650820308460363.0
11.0,-25.0,-15.0,-4.0,19.0,6.0,-34.0,-70.0,1650820308460363.0
0.0,-30.0,12.0,21.0,15.0,10.0,42.0,49.0,1650820308461318.0
17.0,-16.0,-14.0,14.0,-14.0,-13.0,-14.0,-20.0,1650820308461318.0
5.0,-14.0,-30.0,-15.0,4.0,3.0,-10.0,20.0,1650820308474150.0
-95.0,-102.0,-30.0,5.0,10.0,2.0,11.0,31.0,1650820308474150.0
10.0,107.0,9.0,-7.0,-12.0,1.0,10.0,-88.0,1650820308483161.0
55.0,114.0,39.0,11.0,-45.0,-31.0,3.0,21.0,1650820308483161.0
65.0,-17.0,-7.0,-4.0,92.0,54.0,38.0,27.0,1650820308497948.0
39.0,31.0,17.0,5.0,3.0,1.0,-8.0,53.0,1650820308497948.0
-52.0,-86.0,-38.0,-3.0,-12.0,-14.0,-23.0,-1.0,1650820308499202.0
4.0,-51.0,43.0,45.0,-73.0,-35.0,13.0,-40.0,1650820308499202.0
26.0,63.0,15.0,-17.0,86.0,58.0,20.0,-7.0,1650820308520373.0
-53.0,8.0,-4.0,-6.0,-5.0,-9.0,-2.0,3.0,1650820308520373.0
28.0,10.0,14.0,20.0,0.0,7.0,10.0,28.0,1650820308521304.0
44.0,35.0,2.0,-19.0,-8.0,7.0,26.0,11.0,1650820308521304.0
-36.0,-70.0,-9.0,10.0,-77.0,-43.0,-32.0,-76.0,1650820308533338.0
73.0,66.0,3.0,13.0,89.0,51.0,35.0,48.0,1650820308533338.0
4.0,-16.0,-7.0,13.0,9.0,1.0,-34.0,11.0,1650820308543245.0
-50.0,-60.0,-48.0,-6.0,-4.0,-10.0,23.0,48.0,1650820308543245.0
-34.0,-87.0,-5.0,-31.0,-16.0,0.0,16.0,31.0,1650820308557949.0
-101.0,-90.0,-33.0,-17.0,-16.0,-4.0,-8.0,-38.0,1650820308557949.0
53.0,52.0,5.0,-1.0,-57.0,-39.0,-51.0,-66.0,1650820308559372.0
43.0,104.0,10.0,-8.0,77.0,48.0,43.0,50.0,1650820308559372.0
1.0,-76.0,-36.0,-14.0,-43.0,-22.0,-3.0,-15.0,1650820308579967.0
-54.0,-30.0,-6.0,-1.0,2.0,-12.0,-6.0,-16.0,1650820308579967.0
-32.0,-28.0,7.0,2.0,32.0,21.0,19.0,18.0,1650820308581925.0
-26.0,21.0,8.0,-13.0,-3.0,-3.0,-36.0,-40.0,1650820308581925.0
53.0,127.0,38.0,31.0,6.0,-2.0,-8.0,-38.0,1650820308593931.0
25.0,-31.0,9.0,6.0,-13.0,-2.0,25.0,47.0,1650820308593931.0
-17.0,-29.0,-1.0,0.0,-2.0,1.0,-2.0,-11.0,1650820308602470.0
-55.0,40.0,-1.0,-16.0,8.0,10.0,0.0,-18.0,1650820308602470.0
-26.0,52.0,15.0,1.0,16.0,12.0,10.0,43.0,1650820308617499.0
25.0,17.0,13.0,0.0,-53.0,-26.0,0.0,-98.0,1650820308617499.0
-16.0,-62.0,-14.0,-2.0,22.0,0.0,-26.0,0.0,1650820308619454.0
37.0,75.0,6.0,3.0,-2.0,6.0,28.0,78.0,1650820308619454.0
-11.0,-47.0,-4.0,6.0,-19.0,-12.0,-21.0,-30.0,1650820308639921.0
80.0,35.0,2.0,-3.0,-19.0,-9.0,-14.0,1.0,1650820308639921.0
-47.0,40.0,12.0,-7.0,-19.0,-16.0,56.0,117.0,1650820308641848.0
-52.0,-115.0,-10.0,-3.0,14.0,11.0,-47.0,-74.0,1650820308641848.0
1.0,-35.0,-7.0,22.0,5.0,-8.0,-34.0,19.0,1650820308654125.0
3.0,70.0,-14.0,-16.0,-9.0,-2.0,-9.0,-21.0,1650820308654125.0
34.0,126.0,33.0,0.0,-7.0,10.0,9.0,-63.0,1650820308668992.0
105.0,24.0,10.0,-21.0,-46.0,-16.0,13.0,40.0,1650820308668992.0
-91.0,-45.0,-43.0,5.0,52.0,12.0,-19.0,-63.0,1650820308677998.0
7.0,81.0,18.0,4.0,-42.0,-22.0,1.0,35.0,1650820308677998.0
-34.0,-28.0,-8.0,-8.0,-2.0,-3.0,-2.0,-29.0,1650820308678824.0
-60.0,-14.0,-21.0,1.0,-37.0,-25.0,-12.0,-18.0,1650820308678824.0
35.0,25.0,18.0,11.0,11.0,8.0,16.0,19.0,1650820308699973.0
-5.0,-35.0,-10.0,-13.0,-1.0,5.0,4.0,46.0,1650820308699973.0
25.0,-27.0,11.0,3.0,23.0,20.0,19.0,38.0,1650820308701960.0
12.0,-49.0,12.0,15.0,0.0,-8.0,-5.0,-9.0,1650820308701960.0
23.0,76.0,18.0,-9.0,-21.0,-15.0,-12.0,-27.0,1650820308713969.0
97.0,56.0,26.0,7.0,-25.0,-4.0,24.0,81.0,1650820308713969.0
-65.0,-70.0,-92.0,-30.0,46.0,15.0,-2.0,-6.0,1650820308722877.0
101.0,93.0,7.0,5.0,-1.0,1.0,0.0,35.0,1650820308722877.0
-23.0,90.0,-5.0,-18.0,-13.0,-11.0,-23.0,-65.0,1650820308737973.0
29.0,69.0,3.0,-20.0,-34.0,-19.0,-36.0,-12.0,1650820308737973.0
74.0,51.0,39.0,15.0,-29.0,-21.0,-1.0,-25.0,1650820308738749.0
-18.0,53.0,-7.0,44.0,116.0,48.0,27.0,7.0,1650820308738749.0
-50.0,-65.0,-69.0,-52.0,11.0,21.0,10.0,2.0,1650820308759894.0
-82.0,20.0,-10.0,-1.0,-15.0,-11.0,-16.0,-26.0,1650820308759894.0
-9.0,18.0,-13.0,-20.0,-41.0,-23.0,-15.0,-34.0,1650820308761853.0
10.0,97.0,26.0,15.0,-30.0,-26.0,-8.0,40.0,1650820308761853.0
86.0,115.0,48.0,34.0,27.0,15.0,12.0,-9.0,1650820308773862.0
-57.0,-83.0,-12.0,4.0,33.0,13.0,5.0,-13.0,1650820308773862.0
-36.0,-85.0,-67.0,-18.0,-14.0,-8.0,-12.0,-10.0,1650820308788648.0
21.0,97.0,-5.0,-28.0,-21.0,-5.0,7.0,13.0,1650820308788648.0
22.0,83.0,18.0,9.0,-14.0,-11.0,-6.0,43.0,1650820308797999.0
1.0,-31.0,-3.0,-7.0,0.0,1.0,-4.0,9.0,1650820308797999.0
30.0,31.0,38.0,12.0,12.0,-1.0,-23.0,-9.0,1650820308798812.0
-11.0,-128.0,-22.0,-10.0,-4.0,13.0,42.0,31.0,1650820308798812.0
-21.0,-51.0,3.0,-6.0,-81.0,-32.0,9.0,-12.0,1650820308820178.0
6.0,64.0,27.0,50.0,81.0,37.0,-1.0,-51.0,1650820308820178.0
86.0,123.0,29.0,-16.0,46.0,45.0,22.0,49.0,1650820308821133.0
-43.0,-94.0,-49.0,-14.0,37.0,16.0,-6.0,20.0,1650820308821133.0
-69.0,-65.0,-11.0,5.0,-24.0,-20.0,-21.0,-31.0,1650820308834099.0
-1.0,13.0,-9.0,-28.0,-32.0,-18.0,-8.0,-5.0,1650820308834099.0
-5.0,60.0,22.0,18.0,-41.0,-28.0,-26.0,-27.0,1650820308843055.0
21.0,59.0,35.0,-4.0,2.0,6.0,-2.0,-24.0,1650820308843055.0
36.0,-4.0,-5.0,7.0,27.0,11.0,22.0,31.0,1650820308857129.0
8.0,56.0,-24.0,-14.0,-32.0,-19.0,-27.0,-43.0,1650820308857129.0
61.0,64.0,66.0,43.0,20.0,14.0,28.0,61.0,1650820308859127.0
7.0,-67.0,-21.0,-15.0,13.0,8.0,5.0,-17.0,1650820308859127.0
-31.0,-6.0,-36.0,-23.0,5.0,1.0,2.0,36.0,1650820308880306.0
13.0,73.0,-11.0,-14.0,-14.0,-11.0,-17.0,-52.0,1650820308880306.0
15.0,96.0,-3.0,-7.0,-8.0,-5.0,6.0,16.0,1650820308881268.0
91.0,127.0,79.0,57.0,-12.0,2.0,7.0,-16.0,1650820308881268.0
-37.0,40.0,-3.0,-5.0,40.0,15.0,-21.0,-1.0,1650820308903057.0
-35.0,-128.0,-16.0,-12.0,-13.0,-4.0,30.0,72.0,1650820308903057.0
-59.0,-33.0,-29.0,-13.0,2.0,4.0,-1.0,-32.0,1650820308904061.0
-39.0,-31.0,-10.0,6.0,25.0,3.0,-29.0,-43.0,1650820308904061.0
49.0,48.0,19.0,-9.0,-21.0,-12.0,5.0,-38.0,1650820308918104.0
15.0,21.0,9.0,23.0,-38.0,-22.0,-1.0,47.0,1650820308918104.0
-29.0,-32.0,-1.0,-43.0,-47.0,-12.0,-17.0,-57.0,1650820308919102.0
96.0,107.0,3.0,17.0,83.0,45.0,19.0,58.0,1650820308919102.0
-32.0,-62.0,-39.0,2.0,11.0,9.0,21.0,25.0,1650820308939938.0
-49.0,-83.0,-30.0,-14.0,-3.0,1.0,17.0,36.0,1650820308939938.0
17.0,46.0,0.0,-5.0,-35.0,-25.0,-7.0,-36.0,1650820308941881.0
-59.0,66.0,2.0,-9.0,-59.0,-38.0,-28.0,-47.0,1650820308941881.0
97.0,70.0,40.0,18.0,19.0,14.0,19.0,117.0,1650820308962998.0
-14.0,-17.0,-8.0,-8.0,27.0,18.0,0.0,-74.0,1650820308962998.0
35.0,-58.0,-11.0,13.0,6.0,-9.0,-36.0,27.0,1650820308963966.0
-89.0,-47.0,-20.0,-14.0,-16.0,-2.0,24.0,-6.0,1650820308963966.0
19.0,13.0,12.0,5.0,-24.0,-12.0,-1.0,7.0,1650820308978024.0
23.0,109.0,31.0,3.0,29.0,9.0,-9.0,-19.0,1650820308978024.0
18.0,26.0,26.0,48.0,68.0,51.0,70.0,93.0,1650820308979023.0
-92.0,-81.0,-85.0,-59.0,-36.0,-17.0,-12.0,-33.0,1650820308979023.0
-10.0,55.0,12.0,-1.0,-30.0,-9.0,-11.0,-28.0,1650820308999925.0
13.0,94.0,-16.0,-15.0,14.0,6.0,0.0,9.0,1650820308999925.0
55.0,96.0,36.0,27.0,3.0,-6.0,-13.0,-21.0,1650820309001880.0
69.0,100.0,52.0,33.0,-3.0,-7.0,-3.0,8.0,1650820309001880.0
-19.0,-107.0,-62.0,-34.0,0.0,11.0,23.0,5.0,1650820309022798.0
11.0,49.0,15.0,2.0,-4.0,-2.0,-1.0,38.0,1650820309022798.0
-29.0,-1.0,-15.0,-7.0,-3.0,-3.0,4.0,18.0,1650820309023755.0
-48.0,-25.0,-4.0,1.0,-37.0,-25.0,-21.0,-51.0,1650820309023755.0
22.0,53.0,36.0,10.0,-1.0,-13.0,-15.0,-48.0,1650820309037802.0
59.0,-18.0,21.0,16.0,15.0,21.0,14.0,20.0,1650820309037802.0
-34.0,-80.0,-22.0,-20.0,-7.0,2.0,11.0,9.0,1650820309038794.0
6.0,25.0,-6.0,-14.0,0.0,-4.0,-23.0,-14.0,1650820309038794.0
5.0,-10.0,17.0,17.0,18.0,5.0,-8.0,1.0,1650820309059923.0
-21.0,-128.0,-19.0,-4.0,-3.0,-2.0,14.0,33.0,1650820309059923.0
-38.0,-20.0,-22.0,-19.0,-13.0,-9.0,1.0,-1.0,1650820309061853.0
4.0,-4.0,20.0,12.0,-41.0,-23.0,-41.0,-76.0,1650820309061853.0
91.0,127.0,64.0,38.0,53.0,22.0,9.0,26.0,1650820309082145.0
35.0,-60.0,-51.0,-35.0,26.0,34.0,55.0,58.0,1650820309082145.0
-50.0,-57.0,-45.0,-20.0,-5.0,-2.0,-6.0,-26.0,1650820309084112.0
-10.0,75.0,4.0,-9.0,-28.0,-22.0,-7.0,17.0,1650820309084112.0
-50.0,-28.0,-22.0,-10.0,-51.0,-37.0,-39.0,-59.0,1650820309097323.0
35.0,102.0,46.0,18.0,0.0,0.0,-14.0,-18.0,1650820309097323.0
32.0,31.0,8.0,6.0,13.0,9.0,9.0,34.0,1650820309103305.0
-19.0,-61.0,-16.0,-8.0,19.0,15.0,22.0,34.0,1650820309103305.0
24.0,-11.0,-4.0,2.0,-19.0,-21.0,-30.0,-46.0,1650820309120571.0
-8.0,-29.0,0.0,0.0,1.0,2.0,2.0,-27.0,1650820309120571.0
-1.0,-15.0,-4.0,-8.0,4.0,3.0,-5.0,-29.0,1650820309121562.0
-8.0,-57.0,-23.0,6.0,-6.0,-4.0,5.0,51.0,1650820309121562.0
-16.0,-3.0,-9.0,-4.0,19.0,11.0,12.0,37.0,1650820309149859.0
-5.0,-8.0,-4.0,13.0,-4.0,-9.0,-15.0,50.0,1650820309149859.0
-48.0,12.0,17.0,1.0,-8.0,-5.0,-11.0,-66.0,1650820309151811.0
9.0,-6.0,-8.0,-16.0,8.0,7.0,9.0,9.0,1650820309151811.0
10.0,-3.0,17.0,1.0,-39.0,-17.0,-1.0,5.0,1650820309156774.0
24.0,109.0,23.0,7.0,38.0,32.0,22.0,13.0,1650820309156774.0
-9.0,-61.0,-32.0,1.0,31.0,14.0,3.0,-4.0,1650820309163755.0
-24.0,-106.0,1.0,5.0,18.0,7.0,2.0,10.0,1650820309163755.0
-12.0,33.0,-12.0,-10.0,-6.0,-2.0,6.0,-12.0,1650820309179919.0
-13.0,46.0,14.0,9.0,-31.0,-20.0,-16.0,-23.0,1650820309179919.0
33.0,88.0,10.0,-4.0,-15.0,-11.0,-2.0,7.0,1650820309181849.0
6.0,14.0,6.0,2.0,4.0,2.0,5.0,-5.0,1650820309181849.0
-1.0,-28.0,-12.0,-2.0,6.0,4.0,0.0,-2.0,1650820309202850.0
-24.0,-32.0,2.0,6.0,4.0,-1.0,-4.0,-18.0,1650820309202850.0
16.0,-8.0,-11.0,-7.0,-2.0,-17.0,-23.0,65.0,1650820309203847.0
10.0,-16.0,-4.0,-3.0,3.0,12.0,12.0,-83.0,1650820309203847.0
-10.0,23.0,5.0,2.0,5.0,11.0,10.0,7.0,1650820309217462.0
7.0,-19.0,2.0,-3.0,-3.0,-2.0,6.0,-2.0,1650820309217462.0
-14.0,-20.0,-1.0,6.0,-3.0,-4.0,-5.0,-3.0,1650820309223514.0
-4.0,25.0,31.0,27.0,2.0,-7.0,-6.0,66.0,1650820309223514.0
-18.0,24.0,21.0,15.0,17.0,1.0,-17.0,26.0,1650820309239745.0
20.0,-34.0,-26.0,-41.0,-11.0,16.0,42.0,-71.0,1650820309239745.0
-8.0,-10.0,-22.0,-20.0,-24.0,-11.0,0.0,-1.0,1650820309241673.0
6.0,40.0,55.0,83.0,30.0,9.0,-6.0,50.0,1650820309241673.0
-16.0,3.0,-25.0,-8.0,25.0,20.0,24.0,-55.0,1650820309262915.0
8.0,-65.0,-45.0,-83.0,-50.0,-38.0,-37.0,12.0,1650820309262915.0
-3.0,14.0,-2.0,-2.0,-23.0,-9.0,-4.0,-23.0,1650820309263917.0
15.0,-10.0,-27.0,-7.0,-8.0,-7.0,-2.0,-5.0,1650820309263917.0
-14.0,-2.0,37.0,53.0,30.0,21.0,12.0,29.0,1650820309277359.0
-25.0,15.0,17.0,29.0,11.0,2.0,0.0,17.0,1650820309277359.0
17.0,8.0,8.0,-5.0,13.0,9.0,8.0,-34.0,1650820309284148.0
2.0,2.0,2.0,-11.0,-8.0,-4.0,-13.0,4.0,1650820309284148.0
-1.0,-6.0,-1.0,-5.0,-4.0,2.0,15.0,14.0,1650820309299685.0
-15.0,1.0,-7.0,4.0,-3.0,-8.0,-20.0,-29.0,1650820309299685.0
16.0,7.0,13.0,11.0,7.0,3.0,-5.0,8.0,1650820309301618.0
1.0,11.0,-10.0,-14.0,-3.0,7.0,25.0,3.0,1650820309301618.0
3.0,-6.0,-32.0,-35.0,-15.0,-9.0,-4.0,-6.0,1650820309322773.0
-17.0,7.0,14.0,37.0,15.0,0.0,-4.0,1.0,1650820309322773.0
15.0,-12.0,10.0,36.0,17.0,11.0,-3.0,6.0,1650820309323731.0
20.0,-3.0,3.0,-10.0,-8.0,7.0,23.0,-4.0,1650820309323731.0
-16.0,-20.0,-54.0,-103.0,-31.0,-17.0,-19.0,-18.0,1650820309337357.0
1.0,-6.0,-22.0,1.0,-15.0,-12.0,2.0,21.0,1650820309337357.0
-5.0,14.0,24.0,52.0,19.0,8.0,2.0,-4.0,1650820309343410.0
10.0,11.0,29.0,44.0,24.0,14.0,4.0,3.0,1650820309343410.0
10.0,-10.0,-22.0,-45.0,-16.0,-10.0,-14.0,-7.0,1650820309359938.0
-15.0,-1.0,22.0,19.0,-7.0,-9.0,-10.0,-4.0,1650820309359938.0
-6.0,-5.0,-22.0,4.0,-8.0,-3.0,3.0,-5.0,1650820309361894.0
-19.0,7.0,-30.0,-25.0,-5.0,-4.0,-4.0,-3.0,1650820309361894.0
23.0,15.0,41.0,69.0,19.0,7.0,-2.0,7.0,1650820309383057.0
-31.0,-29.0,-80.0,-118.0,-30.0,-16.0,-21.0,0.0,1650820309383057.0
17.0,-2.0,20.0,40.0,-4.0,7.0,39.0,-19.0,1650820309384060.0
9.0,10.0,12.0,7.0,-4.0,-7.0,-9.0,-3.0,1650820309384060.0
-4.0,3.0,20.0,40.0,7.0,3.0,4.0,10.0,1650820309396656.0
6.0,-1.0,17.0,41.0,28.0,10.0,2.0,4.0,1650820309396656.0
10.0,10.0,4.0,-29.0,-1.0,1.0,-2.0,46.0,1650820309405636.0
-29.0,-11.0,-23.0,-28.0,-2.0,7.0,4.0,-50.0,1650820309405636.0
4.0,5.0,6.0,-2.0,-6.0,-7.0,-1.0,-1.0,1650820309427953.0
3.0,7.0,28.0,38.0,5.0,4.0,3.0,-4.0,1650820309427953.0
-3.0,1.0,-9.0,-8.0,4.0,-1.0,-3.0,10.0,1650820309428953.0
16.0,7.0,-11.0,-51.0,-12.0,-4.0,-7.0,2.0,1650820309428953.0
-12.0,-22.0,-35.0,-23.0,-24.0,-15.0,-12.0,-15.0,1650820309442999.0
6.0,7.0,9.0,23.0,7.0,1.0,6.0,0.0,1650820309442999.0
-13.0,9.0,0.0,-14.0,-2.0,-5.0,-8.0,-13.0,1650820309443996.0
2.0,-13.0,-1.0,2.0,1.0,-3.0,-2.0,7.0,1650820309443996.0
-7.0,8.0,0.0,3.0,16.0,15.0,14.0,-2.0,1650820309456032.0
13.0,-1.0,-8.0,11.0,0.0,1.0,1.0,11.0,1650820309456032.0
-7.0,4.0,-10.0,-21.0,-11.0,-6.0,-3.0,-13.0,1650820309465052.0
4.0,6.0,15.0,7.0,1.0,-6.0,-4.0,2.0,1650820309465052.0
5.0,-1.0,15.0,11.0,0.0,-2.0,0.0,8.0,1650820309479928.0
-3.0,8.0,8.0,13.0,7.0,5.0,3.0,-2.0,1650820309479928.0
-4.0,1.0,-3.0,-13.0,-1.0,2.0,-3.0,-11.0,1650820309481882.0
-1.0,-18.0,-13.0,-7.0,-2.0,-2.0,-1.0,4.0,1650820309481882.0
-5.0,0.0,14.0,5.0,-7.0,-6.0,-2.0,-1.0,1650820309502932.0
0.0,3.0,-7.0,-3.0,-1.0,-5.0,-3.0,-5.0,1650820309502932.0
-4.0,0.0,2.0,-13.0,2.0,4.0,0.0,-8.0,1650820309503875.0
-6.0,1.0,2.0,8.0,1.0,4.0,1.0,8.0,1650820309503875.0
18.0,0.0,-8.0,3.0,2.0,-4.0,-1.0,-3.0,1650820309515870.0
0.0,13.0,4.0,2.0,0.0,4.0,5.0,1.0,1650820309515870.0
-7.0,-17.0,8.0,6.0,-1.0,-4.0,-5.0,-3.0,1650820309524857.0
8.0,-6.0,-17.0,-13.0,0.0,-2.0,-4.0,2.0,1650820309524857.0
-7.0,-1.0,0.0,-15.0,-4.0,-2.0,0.0,6.0,1650820309539936.0
10.0,13.0,-7.0,2.0,-4.0,-5.0,-7.0,-3.0,1650820309539936.0
-3.0,-8.0,-6.0,-5.0,-3.0,-3.0,0.0,-1.0,1650820309541891.0
0.0,5.0,9.0,8.0,-3.0,-4.0,0.0,2.0,1650820309541891.0
-2.0,-3.0,-6.0,-1.0,-2.0,0.0,1.0,3.0,1650820309563077.0
-3.0,2.0,17.0,5.0,5.0,4.0,-3.0,4.0,1650820309563077.0
12.0,4.0,-11.0,-4.0,2.0,0.0,-4.0,-6.0,1650820309564073.0
-33.0,-12.0,11.0,14.0,0.0,0.0,7.0,14.0,1650820309564073.0
-1.0,-7.0,-14.0,-7.0,-1.0,-6.0,-10.0,-35.0,1650820309576226.0
7.0,-10.0,3.0,2.0,1.0,0.0,-2.0,2.0,1650820309576226.0
2.0,10.0,1.0,-3.0,-2.0,1.0,7.0,1.0,1650820309585217.0
7.0,12.0,-5.0,-6.0,-4.0,-5.0,-8.0,-4.0,1650820309585217.0
-2.0,-8.0,3.0,12.0,6.0,7.0,4.0,8.0,1650820309599949.0
-16.0,-7.0,1.0,-2.0,-2.0,-5.0,-10.0,-2.0,1650820309599949.0
13.0,0.0,-2.0,-7.0,-10.0,-7.0,-6.0,-8.0,1650820309601904.0
10.0,3.0,-3.0,-7.0,-2.0,-1.0,1.0,6.0,1650820309601904.0
-5.0,-8.0,-4.0,1.0,7.0,7.0,2.0,4.0,1650820309623081.0
1.0,-2.0,0.0,-3.0,0.0,2.0,3.0,-3.0,1650820309623081.0
-9.0,0.0,8.0,13.0,-2.0,0.0,2.0,5.0,1650820309624091.0
4.0,3.0,-1.0,-3.0,-5.0,-4.0,0.0,-6.0,1650820309624091.0
-1.0,1.0,14.0,11.0,3.0,1.0,-2.0,2.0,1650820309636648.0
-5.0,-9.0,-21.0,-9.0,-4.0,-2.0,1.0,-2.0,1650820309636648.0
-6.0,-4.0,3.0,-3.0,-2.0,1.0,4.0,2.0,1650820309652768.0
-2.0,-4.0,-3.0,-5.0,0.0,4.0,-3.0,4.0,1650820309652768.0
8.0,9.0,15.0,13.0,4.0,4.0,-3.0,-23.0,1650820309659809.0
10.0,-8.0,-7.0,0.0,0.0,-1.0,5.0,6.0,1650820309659809.0
-15.0,-3.0,-3.0,-3.0,7.0,3.0,-4.0,-3.0,1650820309661737.0
3.0,-3.0,4.0,-1.0,-2.0,0.0,-1.0,-1.0,1650820309661737.0
-3.0,4.0,1.0,-6.0,-7.0,-3.0,1.0,11.0,1650820309682917.0
-3.0,3.0,13.0,10.0,-4.0,-3.0,-2.0,-1.0,1650820309682917.0
-7.0,4.0,-11.0,-5.0,-4.0,-1.0,-4.0,-1.0,1650820309683849.0
7.0,-2.0,5.0,4.0,3.0,0.0,-2.0,-6.0,1650820309683849.0
-1.0,2.0,-15.0,-14.0,0.0,2.0,3.0,5.0,1650820309695873.0
-6.0,-4.0,6.0,12.0,3.0,2.0,-1.0,16.0,1650820309695873.0
-3.0,2.0,15.0,1.0,-5.0,-4.0,-2.0,-40.0,1650820309704892.0
0.0,1.0,-3.0,1.0,0.0,1.0,-4.0,4.0,1650820309704892.0
-2.0,-3.0,-8.0,-2.0,-2.0,-3.0,0.0,2.0,1650820309719919.0
-1.0,9.0,5.0,-1.0,1.0,0.0,3.0,0.0,1650820309719919.0
18.0,-6.0,9.0,4.0,-2.0,-4.0,-3.0,8.0,1650820309721878.0
-47.0,-15.0,-23.0,-6.0,0.0,-1.0,0.0,-6.0,1650820309721878.0
10.0,3.0,6.0,5.0,0.0,-2.0,-4.0,-4.0,1650820309743057.0
1.0,5.0,0.0,1.0,2.0,2.0,3.0,2.0,1650820309743057.0
2.0,1.0,6.0,6.0,3.0,4.0,3.0,6.0,1650820309744057.0
13.0,6.0,-10.0,-8.0,1.0,-1.0,1.0,-6.0,1650820309744057.0
-12.0,-5.0,14.0,15.0,2.0,1.0,0.0,10.0,1650820309756039.0
5.0,2.0,1.0,1.0,3.0,6.0,3.0,-4.0,1650820309756039.0
-3.0,-4.0,-22.0,-13.0,-2.0,-2.0,-5.0,3.0,1650820309765100.0
9.0,4.0,1.0,-3.0,-7.0,-5.0,2.0,-1.0,1650820309765100.0
-12.0,0.0,8.0,8.0,-4.0,-5.0,-1.0,0.0,1650820309780253.0
0.0,-5.0,-10.0,-12.0,-1.0,-1.0,2.0,0.0,1650820309780253.0
-6.0,-5.0,-8.0,0.0,0.0,-3.0,-6.0,-2.0,1650820309781211.0
4.0,-2.0,-1.0,-5.0,0.0,-2.0,-4.0,1.0,1650820309781211.0
0.0,2.0,3.0,3.0,3.0,8.0,16.0,2.0,1650820309802257.0
-2.0,1.0,16.0,11.0,5.0,4.0,3.0,-5.0,1650820309802257.0
-2.0,0.0,-11.0,-9.0,2.0,1.0,-1.0,10.0,1650820309804199.0
3.0,4.0,10.0,7.0,-2.0,-3.0,0.0,1.0,1650820309804199.0
4.0,2.0,6.0,-1.0,-6.0,-5.0,-3.0,7.0,1650820309816681.0
-3.0,-2.0,-15.0,-3.0,-2.0,-2.0,-4.0,-5.0,1650820309816681.0
-5.0,-9.0,-3.0,-5.0,1.0,-1.0,-1.0,0.0,1650820309824858.0
9.0,5.0,5.0,2.0,-1.0,2.0,0.0,-4.0,1650820309824858.0
0.0,-2.0,-22.0,-7.0,1.0,2.0,2.0,4.0,1650820309839921.0
1.0,-1.0,-1.0,1.0,-2.0,-1.0,0.0,0.0,1650820309839921.0
2.0,9.0,4.0,0.0,-1.0,-1.0,2.0,0.0,1650820309841850.0
2.0,-1.0,10.0,13.0,6.0,4.0,2.0,4.0,1650820309841850.0
-4.0,-5.0,-2.0,-3.0,-1.0,2.0,-5.0,-1.0,1650820309862955.0
2.0,-2.0,-8.0,-6.0,-2.0,-4.0,-2.0,-3.0,1650820309862955.0
-5.0,5.0,3.0,2.0,0.0,-6.0,-3.0,-1.0,1650820309863886.0
11.0,1.0,-4.0,-4.0,-3.0,-2.0,-2.0,-5.0,1650820309863886.0
-4.0,-2.0,5.0,4.0,-1.0,-1.0,-2.0,-2.0,1650820309885397.0
0.0,3.0,12.0,5.0,3.0,0.0,0.0,-2.0,1650820309885397.0
-5.0,-5.0,4.0,2.0,2.0,6.0,6.0,5.0,1650820309886397.0
14.0,-3.0,-20.0,-15.0,-3.0,-2.0,-3.0,-5.0,1650820309886397.0
-48.0,-12.0,-19.0,-8.0,-6.0,-4.0,-9.0,-16.0,1650820309900535.0
4.0,3.0,12.0,2.0,1.0,-2.0,1.0,3.0,1650820309900535.0
0.0,-1.0,-13.0,-3.0,0.0,-1.0,2.0,5.0,1650820309901489.0
-3.0,-3.0,16.0,11.0,-2.0,-3.0,-5.0,-3.0,1650820309901489.0
17.0,-7.0,-13.0,-6.0,-2.0,1.0,5.0,3.0,1650820309929787.0
0.0,8.0,7.0,1.0,0.0,2.0,-1.0,-2.0,1650820309929787.0
-5.0,-1.0,-2.0,-4.0,-2.0,-1.0,1.0,-1.0,1650820309931717.0
-4.0,-6.0,-8.0,0.0,2.0,1.0,0.0,1.0,1650820309931717.0
3.0,2.0,5.0,4.0,-2.0,-4.0,1.0,-2.0,1650820309944831.0
1.0,-5.0,-1.0,-1.0,0.0,1.0,-1.0,-1.0,1650820309944831.0
4.0,-2.0,-5.0,-1.0,2.0,1.0,-4.0,-1.0,1650820309946858.0
-7.0,3.0,8.0,3.0,-4.0,-4.0,3.0,3.0,1650820309946858.0
16.0,-1.0,-3.0,-4.0,-3.0,-3.0,-4.0,-1.0,1650820309959932.0
-5.0,-2.0,-2.0,0.0,0.0,-1.0,-3.0,-4.0,1650820309959932.0
0.0,-4.0,-4.0,0.0,4.0,9.0,8.0,3.0,1650820309961857.0
-6.0,5.0,0.0,-5.0,0.0,-2.0,-2.0,-1.0,1650820309961857.0
-2.0,-7.0,-2.0,1.0,-1.0,-2.0,-4.0,0.0,1650820309983487.0
2.0,5.0,1.0,0.0,-4.0,-1.0,5.0,3.0,1650820309983487.0
0.0,1.0,-10.0,-14.0,-6.0,-5.0,-7.0,-4.0,1650820309984499.0
2.0,-2.0,3.0,8.0,0.0,-1.0,1.0,0.0,1650820309984499.0
10.0,7.0,1.0,-3.0,6.0,4.0,3.0,2.0,1650820310006892.0
2.0,-2.0,5.0,8.0,3.0,1.0,-2.0,0.0,1650820310006892.0
-7.0,-1.0,11.0,5.0,-4.0,-3.0,1.0,2.0,1650820310007893.0
-9.0,1.0,-4.0,-11.0,-4.0,-3.0,-4.0,-2.0,1650820310007893.0
14.0,6.0,-12.0,-10.0,0.0,1.0,4.0,5.0,1650820310019874.0
-4.0,-8.0,6.0,4.0,1.0,1.0,-4.0,-3.0,1650820310019874.0
-3.0,-11.0,-19.0,-12.0,-4.0,-3.0,2.0,1.0,1650820310025831.0
-4.0,-1.0,6.0,3.0,-2.0,-2.0,-3.0,-4.0,1650820310025831.0
-3.0,1.0,10.0,6.0,2.0,0.0,1.0,-3.0,1650820310042616.0
-3.0,-2.0,-8.0,-5.0,-1.0,1.0,-1.0,0.0,1650820310042616.0
2.0,7.0,9.0,12.0,-1.0,-1.0,-4.0,-2.0,1650820310043643.0
-5.0,2.0,-4.0,-4.0,-1.0,1.0,1.0,1.0,1650820310043643.0
0.0,-1.0,6.0,1.0,-2.0,-1.0,-3.0,0.0,1650820310065079.0
-2.0,-13.0,-5.0,-5.0,-3.0,-3.0,1.0,1.0,1650820310065079.0
-1.0,3.0,-2.0,0.0,-1.0,-1.0,4.0,-4.0,1650820310067039.0
-2.0,-9.0,-2.0,1.0,1.0,2.0,-2.0,-2.0,1650820310067039.0
4.0,2.0,0.0,-4.0,-1.0,-2.0,2.0,3.0,1650820310079042.0
0.0,2.0,0.0,1.0,-1.0,2.0,1.0,-2.0,1650820310079042.0
-2.0,1.0,7.0,8.0,3.0,0.0,-3.0,-3.0,1650820310086686.0
5.0,3.0,2.0,-1.0,1.0,0.0,-1.0,-1.0,1650820310086686.0
0.0,-5.0,-5.0,-3.0,0.0,1.0,3.0,1.0,1650820310102710.0
-2.0,0.0,8.0,4.0,0.0,-1.0,-3.0,0.0,1650820310102710.0
1.0,-3.0,1.0,-5.0,-4.0,-6.0,-1.0,10.0,1650820310104641.0
3.0,-1.0,-13.0,-5.0,-6.0,-2.0,1.0,-17.0,1650820310104641.0
-3.0,4.0,3.0,4.0,2.0,-1.0,-2.0,-3.0,1650820310124929.0
-7.0,-16.0,-10.0,-4.0,1.0,0.0,-1.0,0.0,1650820310124929.0
16.0,1.0,4.0,-4.0,-2.0,2.0,-3.0,-3.0,1650820310132368.0
-5.0,1.0,4.0,3.0,5.0,4.0,10.0,7.0,1650820310132368.0
6.0,-10.0,-5.0,-2.0,1.0,0.0,-4.0,-1.0,1650820310139379.0
0.0,8.0,-3.0,-2.0,-6.0,-5.0,-3.0,-3.0,1650820310139379.0
-1.0,8.0,15.0,8.0,4.0,4.0,3.0,5.0,1650820310146706.0
3.0,-6.0,-11.0,-5.0,-3.0,-4.0,-4.0,4.0,1650820310146706.0
-6.0,0.0,-1.0,-1.0,-2.0,-3.0,-3.0,-3.0,1650820310162978.0
-4.0,6.0,2.0,3.0,3.0,-1.0,1.0,0.0,1650820310162978.0
3.0,-8.0,-6.0,-3.0,-1.0,0.0,1.0,-1.0,1650820310163906.0
4.0,7.0,3.0,-2.0,1.0,2.0,0.0,2.0,1650820310163906.0
-8.0,1.0,6.0,9.0,-3.0,0.0,-1.0,0.0,1650820310185533.0
3.0,-2.0,-8.0,-8.0,-3.0,-2.0,1.0,2.0,1650820310185533.0
-4.0,6.0,17.0,5.0,-4.0,-6.0,-9.0,-8.0,1650820310186541.0
-1.0,-8.0,-19.0,0.0,4.0,1.0,4.0,2.0,1650820310186541.0
1.0,1.0,2.0,2.0,6.0,7.0,2.0,1.0,1650820310199676.0
1.0,1.0,0.0,-3.0,0.0,1.0,1.0,0.0,1650820310199676.0
-3.0,-6.0,-4.0,-3.0,-3.0,-2.0,-1.0,-2.0,1650820310206632.0
2.0,0.0,13.0,8.0,-3.0,-4.0,-4.0,1.0,1650820310206632.0
-4.0,3.0,-7.0,-6.0,-2.0,-2.0,-2.0,-2.0,1650820310222934.0
-7.0,-7.0,-20.0,-14.0,-5.0,1.0,0.0,-2.0,1650820310222934.0
8.0,-3.0,-7.0,1.0,0.0,0.0,-1.0,9.0,1650820310223871.0
4.0,-6.0,-6.0,-8.0,-5.0,-1.0,1.0,-15.0,1650820310223871.0
0.0,0.0,2.0,0.0,-2.0,-4.0,-1.0,-1.0,1650820310244836.0
2.0,8.0,9.0,4.0,1.0,-1.0,-1.0,-1.0,1650820310244836.0
-9.0,-1.0,-4.0,1.0,1.0,3.0,-1.0,1.0,1650820310246831.0
-4.0,1.0,8.0,-4.0,0.0,-3.0,-6.0,1.0,1650820310246831.0
6.0,2.0,7.0,12.0,1.0,0.0,3.0,-2.0,1650820310259882.0
-11.0,1.0,-2.0,-6.0,1.0,1.0,1.0,-2.0,1650820310259882.0
-3.0,-3.0,5.0,9.0,-2.0,-4.0,-3.0,-6.0,1650820310265888.0
-2.0,-1.0,-9.0,-7.0,0.0,0.0,1.0,5.0,1650820310265888.0
-1.0,0.0,1.0,0.0,-3.0,-5.0,-7.0,-4.0,1650820310282974.0
2.0,-6.0,-2.0,-4.0,2.0,0.0,3.0,-2.0,1650820310282974.0
-2.0,4.0,0.0,5.0,3.0,5.0,7.0,-2.0,1650820310283771.0
-1.0,-1.0,-3.0,-3.0,-7.0,-4.0,-4.0,1.0,1650820310283771.0
-3.0,-15.0,-1.0,-3.0,1.0,0.0,4.0,1.0,1650820310305063.0
5.0,5.0,0.0,1.0,-1.0,1.0,-3.0,0.0,1650820310305063.0
-1.0,3.0,-3.0,-4.0,2.0,4.0,1.0,-4.0,1650820310307021.0
0.0,-6.0,-7.0,-2.0,2.0,1.0,2.0,1.0,1650820310307021.0
-1.0,3.0,9.0,1.0,-1.0,0.0,-1.0,1.0,1650820310319957.0
-6.0,-3.0,-5.0,5.0,-5.0,-7.0,-4.0,-1.0,1650820310319957.0
2.0,3.0,0.0,-3.0,-6.0,-9.0,-4.0,-5.0,1650820310326562.0
3.0,-6.0,-6.0,2.0,2.0,5.0,5.0,0.0,1650820310326562.0
-12.0,0.0,-2.0,1.0,5.0,6.0,3.0,-1.0,1650820310342570.0
7.0,1.0,10.0,9.0,2.0,-1.0,-3.0,-1.0,1650820310342570.0
-5.0,-2.0,-12.0,-15.0,-6.0,-4.0,1.0,1.0,1650820310344499.0
0.0,2.0,7.0,4.0,-4.0,-4.0,-6.0,-2.0,1650820310344499.0
-1.0,-1.0,-19.0,-15.0,-3.0,-2.0,5.0,-1.0,1650820310364697.0
3.0,-1.0,17.0,13.0,3.0,3.0,0.0,-1.0,1650820310364697.0
-1.0,-4.0,-18.0,-8.0,1.0,0.0,0.0,0.0,1650820310366703.0
3.0,7.0,4.0,-2.0,-5.0,-4.0,-2.0,2.0,1650820310366703.0
2.0,-3.0,-2.0,2.0,-5.0,-2.0,-2.0,-1.0,1650820310378876.0
-1.0,4.0,-2.0,-2.0,1.0,3.0,3.0,-1.0,1650820310378876.0
4.0,1.0,0.0,0.0,4.0,1.0,6.0,5.0,1650820310387360.0
-10.0,-2.0,2.0,-1.0,1.0,1.0,-4.0,-8.0,1650820310387360.0
13.0,8.0,-2.0,0.0,-2.0,0.0,-2.0,-1.0,1650820310402388.0
6.0,-2.0,-2.0,0.0,-3.0,-3.0,0.0,0.0,1650820310402388.0
3.0,2.0,9.0,6.0,2.0,0.0,-1.0,-1.0,1650820310404317.0
2.0,-1.0,-3.0,-6.0,-1.0,-3.0,3.0,5.0,1650820310404317.0
-2.0,-1.0,-5.0,-2.0,-4.0,-2.0,-2.0,2.0,1650820310425064.0
-7.0,-6.0,-10.0,-9.0,-4.0,-2.0,-3.0,-6.0,1650820310425064.0
3.0,1.0,10.0,4.0,3.0,2.0,0.0,2.0,1650820310427018.0
-6.0,-2.0,-5.0,1.0,2.0,1.0,0.0,1.0,1650820310427018.0
7.0,3.0,11.0,6.0,5.0,4.0,0.0,-7.0,1650820310439027.0
-2.0,-2.0,-7.0,-4.0,-2.0,-1.0,-3.0,0.0,1650820310439027.0
-5.0,-2.0,-5.0,-3.0,-5.0,-6.0,-3.0,-5.0,1650820310447385.0
0.0,5.0,9.0,7.0,0.0,-3.0,-1.0,0.0,1650820310447385.0
-4.0,-8.0,-1.0,-4.0,-3.0,-4.0,-5.0,-1.0,1650820310462579.0
6.0,0.0,1.0,2.0,5.0,5.0,11.0,5.0,1650820310462579.0
-17.0,-8.0,-8.0,-2.0,2.0,3.0,-2.0,-4.0,1650820310464527.0
10.0,4.0,1.0,0.0,-3.0,-3.0,-2.0,-2.0,1650820310464527.0
7.0,-1.0,3.0,1.0,2.0,2.0,1.0,4.0,1650820310484882.0
-1.0,-1.0,-8.0,-3.0,-5.0,-3.0,-2.0,2.0,1650820310484882.0
2.0,0.0,5.0,-2.0,-2.0,-3.0,-2.0,-3.0,1650820310486880.0
-3.0,5.0,-2.0,3.0,1.0,1.0,2.0,1.0,1650820310486880.0
-4.0,-1.0,7.0,2.0,3.0,1.0,3.0,18.0,1650820310498860.0
-1.0,2.0,-19.0,-11.0,4.0,4.0,-1.0,-4.0,1650820310498860.0
11.0,-11.0,15.0,13.0,-3.0,-2.0,-2.0,-8.0,1650820310507844.0
-6.0,-11.0,-10.0,-18.0,-6.0,-6.0,-8.0,-9.0,1650820310507844.0
-3.0,-6.0,-2.0,-2.0,-2.0,-5.0,-2.0,3.0,1650820310523071.0
2.0,5.0,2.0,-1.0,2.0,1.0,2.0,4.0,1650820310523071.0
11.0,21.0,0.0,3.0,6.0,7.0,7.0,8.0,1650820310524043.0
1.0,9.0,10.0,7.0,1.0,1.0,-2.0,-1.0,1650820310524043.0
-10.0,-18.0,-5.0,-4.0,-4.0,-4.0,-5.0,0.0,1650820310545999.0
-7.0,-8.0,-9.0,-7.0,-4.0,-3.0,-5.0,-16.0,1650820310545999.0
-9.0,11.0,2.0,0.0,0.0,-1.0,0.0,-1.0,1650820310546999.0
5.0,-8.0,-8.0,3.0,2.0,3.0,-3.0,7.0,1650820310546999.0
0.0,8.0,-1.0,1.0,5.0,4.0,2.0,-17.0,1650820310558860.0
14.0,21.0,20.0,14.0,3.0,1.0,15.0,36.0,1650820310558860.0
-1.0,1.0,-5.0,-8.0,-6.0,-3.0,-12.0,-20.0,1650820310567846.0
-39.0,-33.0,-19.0,-17.0,-10.0,-6.0,-8.0,-9.0,1650820310567846.0
-18.0,-26.0,-20.0,-9.0,-10.0,-11.0,-9.0,28.0,1650820310583005.0
4.0,6.0,50.0,25.0,8.0,2.0,-13.0,-90.0,1650820310583005.0
-2.0,17.0,-14.0,-2.0,-1.0,3.0,13.0,27.0,1650820310583932.0
18.0,10.0,1.0,-1.0,23.0,16.0,15.0,26.0,1650820310583932.0
2.0,-21.0,9.0,17.0,-5.0,-6.0,-2.0,-14.0,1650820310605247.0
-8.0,10.0,0.0,-12.0,-17.0,-9.0,-3.0,46.0,1650820310605247.0
4.0,-10.0,7.0,-4.0,-9.0,-2.0,-8.0,-29.0,1650820310606195.0
1.0,-10.0,-21.0,-1.0,-3.0,-11.0,-22.0,-26.0,1650820310606195.0
-18.0,34.0,-6.0,-23.0,-7.0,-1.0,2.0,-5.0,1650820310619224.0
2.0,-23.0,35.0,17.0,-22.0,-10.0,13.0,63.0,1650820310619224.0
29.0,-62.0,-19.0,-3.0,53.0,30.0,8.0,-17.0,1650820310627318.0
44.0,55.0,18.0,8.0,2.0,3.0,20.0,75.0,1650820310627318.0
-63.0,20.0,-2.0,13.0,4.0,11.0,16.0,-105.0,1650820310643060.0
9.0,-94.0,-16.0,-27.0,-40.0,-28.0,-17.0,18.0,1650820310643060.0
43.0,86.0,12.0,-2.0,-35.0,-27.0,-13.0,3.0,1650820310644059.0
-49.0,-34.0,-46.0,-5.0,52.0,21.0,-23.0,-18.0,1650820310644059.0
8.0,-6.0,10.0,25.0,8.0,-5.0,0.0,22.0,1650820310664960.0
6.0,94.0,-13.0,21.0,-13.0,-1.0,32.0,20.0,1650820310664960.0
-27.0,-40.0,27.0,0.0,17.0,9.0,-12.0,-8.0,1650820310666965.0
13.0,32.0,-34.0,-48.0,-16.0,-12.0,-7.0,-23.0,1650820310666965.0
72.0,22.0,10.0,13.0,4.0,11.0,9.0,24.0,1650820310678862.0
-114.0,-105.0,-28.0,-10.0,32.0,15.0,-19.0,-14.0,1650820310678862.0
54.0,14.0,6.0,42.0,-15.0,-10.0,5.0,5.0,1650820310687385.0
36.0,76.0,10.0,2.0,1.0,12.0,24.0,89.0,1650820310687385.0
48.0,96.0,38.0,-23.0,-5.0,-2.0,-30.0,-74.0,1650820310702359.0
50.0,54.0,20.0,41.0,17.0,7.0,0.0,30.0,1650820310702359.0
-91.0,-87.0,-61.0,-41.0,-25.0,-4.0,67.0,67.0,1650820310708864.0
-32.0,19.0,-22.0,-9.0,-30.0,-19.0,-83.0,-78.0,1650820310708864.0
-2.0,50.0,2.0,-3.0,69.0,45.0,24.0,37.0,1650820310725103.0
-9.0,119.0,25.0,1.0,28.0,14.0,5.0,-64.0,1650820310725103.0
4.0,-4.0,17.0,14.0,12.0,7.0,6.0,79.0,1650820310727068.0
80.0,-45.0,27.0,16.0,-53.0,-21.0,49.0,-42.0,1650820310727068.0
37.0,13.0,-6.0,-23.0,-24.0,-17.0,23.0,72.0,1650820310738836.0
0.0,6.0,-7.0,-14.0,1.0,-7.0,-98.0,-96.0,1650820310738836.0
-57.0,-11.0,-25.0,-9.0,20.0,10.0,-10.0,-32.0,1650820310747740.0
-27.0,-44.0,13.0,27.0,38.0,18.0,14.0,20.0,1650820310747740.0
41.0,18.0,-5.0,23.0,-26.0,-7.0,6.0,21.0,1650820310762769.0
9.0,68.0,10.0,-12.0,16.0,2.0,29.0,20.0,1650820310762769.0
36.0,21.0,-41.0,-29.0,0.0,3.0,-29.0,-63.0,1650820310768804.0
-59.0,-54.0,69.0,74.0,20.0,13.0,29.0,46.0,1650820310768804.0
-50.0,-24.0,9.0,-26.0,-28.0,-21.0,-22.0,-77.0,1650820310785498.0
47.0,2.0,-45.0,-21.0,-13.0,-10.0,-2.0,23.0,1650820310785498.0
50.0,57.0,32.0,42.0,13.0,7.0,36.0,65.0,1650820310786499.0
20.0,75.0,5.0,-11.0,15.0,-3.0,-22.0,-2.0,1650820310786499.0
-52.0,-69.0,-35.0,-16.0,-9.0,0.0,-3.0,-28.0,1650820310807795.0
-35.0,-37.0,-12.0,-19.0,-15.0,-16.0,-24.0,-66.0,1650820310807795.0
18.0,-54.0,-2.0,-4.0,-33.0,-8.0,11.0,-40.0,1650820310814148.0
-20.0,1.0,-16.0,-11.0,21.0,1.0,10.0,25.0,1650820310814148.0
44.0,15.0,4.0,-6.0,-13.0,-4.0,-25.0,24.0,1650820310821882.0
-12.0,-49.0,2.0,22.0,46.0,30.0,9.0,67.0,1650820310821882.0
11.0,-1.0,27.0,18.0,-47.0,-24.0,-1.0,-10.0,1650820310828862.0
-117.0,-13.0,0.0,7.0,63.0,38.0,12.0,-77.0,1650820310828862.0
2.0,-30.0,6.0,25.0,16.0,-23.0,-56.0,20.0,1650820310844970.0
-17.0,3.0,-5.0,-36.0,-49.0,-6.0,6.0,-32.0,1650820310844970.0
45.0,6.0,-12.0,-14.0,-13.0,-10.0,-10.0,23.0,1650820310846968.0
-8.0,-9.0,14.0,1.0,-12.0,-15.0,-26.0,-78.0,1650820310846968.0
33.0,37.0,-20.0,-5.0,-12.0,5.0,50.0,110.0,1650820310867909.0
13.0,84.0,51.0,32.0,32.0,9.0,29.0,-41.0,1650820310867909.0
-90.0,-50.0,10.0,-3.0,-9.0,-26.0,-64.0,1.0,1650820310868945.0
7.0,-19.0,-5.0,2.0,-30.0,4.0,29.0,-34.0,1650820310868945.0
-25.0,-28.0,19.0,-5.0,21.0,11.0,-3.0,-18.0,1650820310881920.0
12.0,54.0,-7.0,7.0,2.0,4.0,6.0,22.0,1650820310881920.0
-118.0,-50.0,-31.0,-42.0,1.0,5.0,-5.0,-14.0,1650820310888879.0
89.0,127.0,22.0,8.0,-19.0,-30.0,-47.0,-83.0,1650820310888879.0
42.0,-68.0,-1.0,23.0,-78.0,-35.0,10.0,104.0,1650820310904831.0
22.0,-42.0,-53.0,-59.0,67.0,70.0,23.0,-49.0,1650820310904831.0
-28.0,127.0,22.0,10.0,2.0,-11.0,-13.0,43.0,1650820310906829.0
7.0,28.0,-27.0,-2.0,30.0,9.0,78.0,54.0,1650820310906829.0
-11.0,-43.0,-1.0,1.0,-58.0,-42.0,-51.0,-39.0,1650820310927742.0
5.0,-25.0,-34.0,-27.0,-15.0,3.0,14.0,66.0,1650820310927742.0
66.0,6.0,13.0,9.0,42.0,19.0,-12.0,-61.0,1650820310928769.0
-94.0,-66.0,-2.0,-5.0,-23.0,-9.0,-17.0,22.0,1650820310928769.0
-23.0,40.0,1.0,-11.0,13.0,-8.0,3.0,-75.0,1650820310941857.0
19.0,-65.0,26.0,23.0,-24.0,-9.0,-4.0,53.0,1650820310941857.0
-19.0,-9.0,12.0,15.0,-15.0,-15.0,-22.0,-7.0,1650820310948838.0
67.0,20.0,11.0,5.0,-77.0,-25.0,12.0,-2.0,1650820310948838.0
-35.0,-47.0,-33.0,-30.0,127.0,89.0,32.0,-28.0,1650820310964871.0
-45.0,-97.0,-14.0,-1.0,-26.0,-28.0,-29.0,-41.0,1650820310964871.0
100.0,123.0,22.0,10.0,3.0,3.0,36.0,94.0,1650820310966896.0
13.0,25.0,7.0,-6.0,-44.0,-17.0,-28.0,-24.0,1650820310966896.0
-39.0,-74.0,-18.0,15.0,37.0,16.0,-33.0,-33.0,1650820310987974.0
-2.0,25.0,-9.0,-15.0,-37.0,-23.0,23.0,-2.0,1650820310987974.0
-34.0,8.0,9.0,-19.0,7.0,-12.0,-50.0,-89.0,1650820310988969.0
102.0,82.0,22.0,15.0,33.0,26.0,112.0,127.0,1650820310988969.0
-27.0,-33.0,-9.0,-24.0,-80.0,-45.0,-57.0,-121.0,1650820311001775.0
84.0,125.0,38.0,42.0,69.0,35.0,0.0,49.0,1650820311001775.0
-57.0,-74.0,-43.0,-10.0,5.0,4.0,50.0,67.0,1650820311008756.0
-120.0,-71.0,-18.0,0.0,35.0,28.0,-26.0,-66.0,1650820311008756.0
-15.0,84.0,48.0,45.0,-48.0,-31.0,7.0,122.0,1650820311026047.0
-10.0,24.0,-38.0,-28.0,8.0,6.0,-33.0,-47.0,1650820311026047.0
27.0,11.0,-26.0,-24.0,-40.0,-10.0,-10.0,-72.0,1650820311028049.0
62.0,-2.0,29.0,9.0,19.0,-8.0,-24.0,55.0,1650820311028049.0
-67.0,-10.0,-22.0,4.0,-33.0,-18.0,9.0,-75.0,1650820311048038.0
7.0,-49.0,1.0,22.0,-5.0,2.0,10.0,11.0,1650820311048038.0
13.0,-13.0,-26.0,-39.0,70.0,36.0,8.0,-13.0,1650820311049039.0
3.0,-82.0,-11.0,-22.0,-27.0,-13.0,-6.0,52.0,1650820311049039.0
11.0,-9.0,16.0,36.0,33.0,18.0,32.0,-13.0,1650820311062388.0
-41.0,49.0,24.0,-19.0,-53.0,-36.0,-47.0,-21.0,1650820311062388.0
78.0,-51.0,4.0,33.0,6.0,12.0,13.0,-42.0,1650820311068440.0
22.0,-13.0,15.0,-17.0,-28.0,1.0,53.0,77.0,1650820311068440.0
12.0,92.0,-21.0,-12.0,65.0,29.0,23.0,0.0,1650820311092948.0
36.0,2.0,-6.0,0.0,-3.0,-32.0,-28.0,70.0,1650820311092948.0
32.0,-32.0,22.0,11.0,-37.0,-14.0,-9.0,-80.0,1650820311093950.0
-102.0,-88.0,-23.0,28.0,32.0,6.0,-80.0,-102.0,1650820311093950.0
41.0,-1.0,2.0,-38.0,29.0,50.0,40.0,77.0,1650820311108058.0
23.0,18.0,39.0,37.0,-21.0,-7.0,1.0,-16.0,1650820311108058.0
-35.0,-9.0,-8.0,-54.0,52.0,24.0,-7.0,-23.0,1650820311109031.0
32.0,20.0,15.0,14.0,-18.0,-18.0,-3.0,1.0,1650820311109031.0
15.0,35.0,-11.0,-3.0,-45.0,-36.0,-5.0,9.0,1650820311122310.0
-28.0,-6.0,1.0,-19.0,28.0,14.0,9.0,-17.0,1650820311122310.0
33.0,94.0,25.0,29.0,-24.0,-12.0,13.0,50.0,1650820311128364.0
-89.0,-81.0,-22.0,-16.0,5.0,-1.0,-12.0,-33.0,1650820311128364.0
-10.0,-54.0,-36.0,-15.0,-25.0,-19.0,-25.0,-38.0,1650820311145572.0
24.0,15.0,21.0,21.0,15.0,-11.0,5.0,0.0,1650820311145572.0
-59.0,-29.0,2.0,13.0,-3.0,-2.0,28.0,54.0,1650820311146577.0
11.0,78.0,5.0,-8.0,2.0,7.0,-24.0,-43.0,1650820311146577.0
-31.0,-29.0,16.0,7.0,-21.0,-4.0,8.0,-38.0,1650820311167633.0
28.0,27.0,-11.0,-17.0,6.0,15.0,7.0,5.0,1650820311167633.0
-14.0,15.0,-4.0,-9.0,-36.0,-33.0,7.0,68.0,1650820311169583.0
-11.0,108.0,11.0,-15.0,-16.0,3.0,-7.0,1.0,1650820311169583.0
-42.0,-81.0,-36.0,-19.0,17.0,28.0,4.0,-12.0,1650820311181596.0
-74.0,-27.0,-13.0,-4.0,-2.0,-5.0,58.0,-19.0,1650820311181596.0
33.0,79.0,29.0,20.0,-70.0,-58.0,-108.0,-50.0,1650820311188862.0
28.0,89.0,-1.0,-41.0,59.0,39.0,52.0,26.0,1650820311188862.0
58.0,91.0,32.0,29.0,19.0,16.0,15.0,34.0,1650820311204896.0
12.0,-75.0,-26.0,-3.0,-2.0,12.0,8.0,13.0,1650820311204896.0
-64.0,-6.0,-18.0,-18.0,2.0,-2.0,5.0,-67.0,1650820311206893.0
51.0,-60.0,0.0,23.0,-44.0,-34.0,-20.0,18.0,1650820311206893.0
25.0,10.0,10.0,-23.0,-11.0,5.0,10.0,45.0,1650820311227806.0
4.0,-58.0,-25.0,-23.0,30.0,8.0,-14.0,-16.0,1650820311227806.0
-68.0,-45.0,9.0,20.0,1.0,10.0,18.0,22.0,1650820311228843.0
20.0,55.0,-7.0,3.0,-22.0,-18.0,-27.0,21.0,1650820311228843.0
52.0,9.0,-1.0,-32.0,25.0,-3.0,7.0,-20.0,1650820311242360.0
57.0,117.0,33.0,32.0,-57.0,-22.0,3.0,2.0,1650820311242360.0
-26.0,-92.0,-31.0,-6.0,56.0,50.0,86.0,-1.0,1650820311248453.0
-32.0,-30.0,-49.0,-27.0,-6.0,-24.0,-84.0,92.0,1650820311248453.0
52.0,126.0,37.0,22.0,-15.0,-21.0,6.0,-5.0,1650820311264895.0
-75.0,49.0,18.0,22.0,-57.0,-47.0,-64.0,-101.0,1650820311264895.0
19.0,-30.0,-32.0,-59.0,59.0,49.0,3.0,-6.0,1650820311266919.0
28.0,-28.0,12.0,-5.0,-19.0,7.0,48.0,-21.0,1650820311266919.0
-18.0,13.0,-4.0,35.0,-29.0,-27.0,-26.0,20.0,1650820311288003.0
5.0,-81.0,10.0,12.0,62.0,40.0,15.0,-19.0,1650820311288003.0
-27.0,22.0,9.0,-25.0,-44.0,-13.0,0.0,68.0,1650820311288925.0
14.0,-84.0,27.0,5.0,-10.0,-3.0,35.0,-2.0,1650820311288925.0
17.0,52.0,-1.0,2.0,48.0,26.0,13.0,43.0,1650820311300959.0
-37.0,-85.0,-15.0,28.0,7.0,-2.0,8.0,74.0,1650820311300959.0
62.0,65.0,61.0,28.0,-6.0,7.0,-5.0,-94.0,1650820311309886.0
-49.0,-59.0,-10.0,-18.0,13.0,-6.0,-17.0,-20.0,1650820311309886.0
8.0,-7.0,-11.0,-25.0,-31.0,-26.0,0.0,28.0,1650820311324911.0
-73.0,-60.0,-20.0,1.0,-21.0,-15.0,0.0,-74.0,1650820311324911.0
3.0,23.0,-11.0,11.0,15.0,-1.0,-20.0,25.0,1650820311326867.0
26.0,57.0,1.0,27.0,52.0,40.0,19.0,-60.0,1650820311326867.0
-34.0,-72.0,32.0,51.0,-13.0,-15.0,-35.0,27.0,1650820311347997.0
-34.0,47.0,-20.0,-80.0,13.0,18.0,0.0,8.0,1650820311347997.0
39.0,2.0,-3.0,38.0,-42.0,-39.0,21.0,73.0,1650820311348796.0
-37.0,16.0,-27.0,-5.0,38.0,46.0,24.0,38.0,1650820311348796.0
-75.0,-128.0,-34.0,-10.0,-1.0,19.0,26.0,-15.0,1650820311369926.0
18.0,95.0,-8.0,-19.0,-40.0,-37.0,-73.0,-59.0,1650820311369926.0
46.0,43.0,-19.0,6.0,18.0,-3.0,1.0,11.0,1650820311371882.0
44.0,65.0,35.0,17.0,-46.0,-41.0,-21.0,7.0,1650820311371882.0
5.0,2.0,-15.0,-7.0,75.0,40.0,18.0,-1.0,1650820311385448.0
23.0,5.0,31.0,14.0,-57.0,-17.0,22.0,19.0,1650820311385448.0
-28.0,-6.0,-11.0,-20.0,33.0,18.0,-9.0,3.0,1650820311386453.0
5.0,-14.0,-17.0,-8.0,-13.0,-16.0,-28.0,-88.0,1650820311386453.0
27.0,100.0,-2.0,-9.0,-33.0,-24.0,-3.0,43.0,1650820311407973.0
1.0,-93.0,5.0,18.0,-40.0,-24.0,8.0,-53.0,1650820311407973.0
-32.0,-10.0,-23.0,-10.0,50.0,43.0,29.0,41.0,1650820311408790.0
-45.0,-36.0,-8.0,-14.0,7.0,-2.0,-13.0,4.0,1650820311408790.0
40.0,72.0,23.0,24.0,21.0,13.0,-19.0,-83.0,1650820311420925.0
-31.0,-4.0,-13.0,-16.0,-10.0,13.0,53.0,124.0,1650820311420925.0
66.0,61.0,-10.0,40.0,58.0,24.0,-9.0,-34.0,1650820311430239.0
-32.0,-48.0,5.0,24.0,-64.0,-49.0,-30.0,-70.0,1650820311430239.0
29.0,88.0,10.0,-49.0,24.0,6.0,-4.0,56.0,1650820311445473.0
102.0,9.0,8.0,20.0,23.0,47.0,63.0,72.0,1650820311445473.0
-94.0,-97.0,12.0,13.0,-47.0,-32.0,-42.0,-74.0,1650820311446473.0
18.0,13.0,4.0,0.0,-9.0,-4.0,11.0,10.0,1650820311446473.0
-21.0,44.0,-20.0,-12.0,3.0,-3.0,-15.0,-14.0,1650820311468025.0
-4.0,5.0,-9.0,1.0,9.0,-8.0,-35.0,-47.0,1650820311468025.0
-44.0,-45.0,-42.0,-21.0,-46.0,-25.0,-11.0,37.0,1650820311469030.0
19.0,54.0,34.0,45.0,-7.0,-2.0,12.0,-9.0,1650820311469030.0
-49.0,-72.0,-9.0,-13.0,5.0,2.0,1.0,-12.0,1650820311481057.0
23.0,43.0,-10.0,2.0,21.0,6.0,15.0,23.0,1650820311481057.0
29.0,109.0,45.0,18.0,-5.0,-6.0,-11.0,-65.0,1650820311489891.0
15.0,-16.0,-49.0,-55.0,39.0,27.0,-15.0,14.0,1650820311489891.0
20.0,-122.0,-2.0,13.0,16.0,23.0,54.0,59.0,1650820311505531.0
-62.0,29.0,-19.0,-22.0,-16.0,-15.0,-44.0,-58.0,1650820311505531.0
48.0,56.0,27.0,-2.0,4.0,-1.0,6.0,33.0,1650820311506532.0
-17.0,72.0,6.0,7.0,-16.0,-14.0,26.0,24.0,1650820311506532.0
-20.0,74.0,20.0,20.0,9.0,4.0,-54.0,-96.0,1650820311527623.0
20.0,-69.0,6.0,-17.0,12.0,24.0,98.0,123.0,1650820311527623.0
-28.0,-109.0,-12.0,6.0,-60.0,-50.0,-65.0,-74.0,1650820311529620.0
6.0,53.0,5.0,-26.0,62.0,33.0,-15.0,-8.0,1650820311529620.0
-5.0,-29.0,21.0,32.0,-69.0,-44.0,-18.0,-41.0,1650820311541656.0
40.0,75.0,30.0,29.0,53.0,23.0,15.0,21.0,1650820311541656.0
20.0,28.0,-3.0,-17.0,6.0,23.0,27.0,43.0,1650820311550697.0
-2.0,-94.0,-25.0,3.0,8.0,2.0,2.0,-22.0,1650820311550697.0
-7.0,-27.0,-10.0,-34.0,-16.0,1.0,-4.0,-19.0,1650820311564724.0
-14.0,-22.0,-21.0,-18.0,-21.0,-22.0,-24.0,-3.0,1650820311564724.0
11.0,37.0,30.0,2.0,-4.0,3.0,25.0,24.0,1650820311566747.0
16.0,-18.0,2.0,14.0,2.0,-7.0,-26.0,-22.0,1650820311566747.0
-36.0,4.0,-24.0,-16.0,-7.0,-16.0,-3.0,25.0,1650820311587883.0
68.0,43.0,26.0,31.0,30.0,17.0,12.0,-26.0,1650820311587883.0
-9.0,69.0,43.0,32.0,7.0,28.0,46.0,78.0,1650820311588819.0
24.0,-69.0,-36.0,-8.0,-5.0,4.0,24.0,-98.0,1650820311588819.0
-62.0,28.0,-1.0,-4.0,5.0,1.0,-10.0,98.0,1650820311600849.0
4.0,-60.0,-18.0,-16.0,13.0,3.0,22.0,61.0,1650820311600849.0
35.0,23.0,-4.0,-9.0,-69.0,-45.0,-29.0,-16.0,1650820311609825.0
-43.0,-10.0,19.0,34.0,38.0,23.0,47.0,7.0,1650820311609825.0
7.0,69.0,9.0,-6.0,28.0,15.0,-29.0,-55.0,1650820311624883.0
69.0,111.0,-2.0,11.0,-11.0,-8.0,-25.0,54.0,1650820311624883.0
-14.0,-100.0,-37.0,-36.0,-8.0,-13.0,-21.0,-34.0,1650820311626881.0
-84.0,9.0,7.0,2.0,19.0,8.0,-5.0,-19.0,1650820311626881.0
27.0,32.0,-26.0,-9.0,-17.0,4.0,8.0,-58.0,1650820311647973.0
-26.0,13.0,6.0,-3.0,9.0,7.0,-18.0,18.0,1650820311647973.0
75.0,112.0,8.0,7.0,24.0,14.0,29.0,63.0,1650820311648800.0
20.0,-81.0,-4.0,-6.0,-33.0,-27.0,-22.0,37.0,1650820311648800.0
32.0,18.0,27.0,14.0,1.0,8.0,17.0,38.0,1650820311661768.0
-40.0,-2.0,-22.0,2.0,-23.0,-7.0,19.0,13.0,1650820311661768.0
-41.0,-75.0,-14.0,-6.0,4.0,6.0,-14.0,-47.0,1650820311669875.0
-3.0,-33.0,-3.0,6.0,-21.0,-31.0,-27.0,1.0,1650820311669875.0
64.0,30.0,21.0,0.0,30.0,37.0,-22.0,-98.0,1650820311685410.0
-37.0,46.0,-30.0,-34.0,-48.0,-20.0,12.0,63.0,1650820311685410.0
2.0,-54.0,28.0,47.0,90.0,23.0,67.0,35.0,1650820311686416.0
-66.0,43.0,-1.0,-36.0,-53.0,-27.0,-32.0,10.0,1650820311686416.0
-23.0,9.0,-2.0,8.0,55.0,23.0,75.0,36.0,1650820311707667.0
-13.0,-36.0,3.0,18.0,5.0,-7.0,-98.0,-120.0,1650820311707667.0
17.0,36.0,7.0,1.0,-17.0,22.0,-37.0,-24.0,1650820311708695.0
27.0,34.0,11.0,-4.0,-57.0,-24.0,32.0,29.0,1650820311708695.0
9.0,-69.0,-39.0,-37.0,46.0,16.0,24.0,73.0,1650820311729881.0
-28.0,-31.0,18.0,29.0,33.0,21.0,-11.0,-72.0,1650820311729881.0
-54.0,-21.0,-16.0,-9.0,-8.0,-6.0,-4.0,-61.0,1650820311731838.0
64.0,69.0,-38.0,6.0,-30.0,-10.0,15.0,48.0,1650820311731838.0
-23.0,2.0,40.0,11.0,-31.0,-23.0,-17.0,-10.0,1650820311744870.0
36.0,-21.0,-6.0,0.0,-15.0,-19.0,23.0,84.0,1650820311744870.0
26.0,5.0,13.0,4.0,14.0,13.0,-7.0,-27.0,1650820311746868.0
-31.0,-16.0,11.0,11.0,-52.0,-23.0,0.0,12.0,1650820311746868.0
38.0,19.0,-23.0,-39.0,17.0,4.0,-5.0,-56.0,1650820311767976.0
-36.0,-31.0,7.0,17.0,41.0,-3.0,-40.0,-64.0,1650820311767976.0
83.0,15.0,9.0,31.0,58.0,51.0,77.0,104.0,1650820311768958.0
-56.0,-12.0,-37.0,-45.0,-21.0,-1.0,-1.0,23.0,1650820311768958.0
24.0,-6.0,-18.0,13.0,-91.0,-74.0,-33.0,-43.0,1650820311789866.0
-13.0,-39.0,23.0,-14.0,22.0,18.0,-17.0,-90.0,1650820311789866.0
25.0,85.0,15.0,-33.0,20.0,27.0,-44.0,-49.0,1650820311791824.0
76.0,-39.0,28.0,37.0,113.0,77.0,67.0,112.0,1650820311791824.0
-69.0,-128.0,-11.0,14.0,9.0,15.0,14.0,13.0,1650820311804826.0
-22.0,41.0,-7.0,-13.0,-41.0,-37.0,3.0,-18.0,1650820311804826.0
-24.0,51.0,-15.0,-2.0,-49.0,-59.0,-18.0,-52.0,1650820311806756.0
19.0,78.0,7.0,2.0,15.0,-7.0,-55.0,-33.0,1650820311806756.0
16.0,49.0,30.0,21.0,-13.0,-4.0,30.0,35.0,1650820311827973.0
28.0,3.0,-10.0,-28.0,-23.0,-5.0,10.0,29.0,1650820311827973.0
61.0,4.0,-11.0,-29.0,-7.0,3.0,11.0,51.0,1650820311828818.0
-18.0,-56.0,6.0,8.0,-13.0,-12.0,-18.0,-35.0,1650820311828818.0
-13.0,38.0,-42.0,-18.0,32.0,15.0,-19.0,-22.0,1650820311850087.0
-14.0,22.0,1.0,15.0,7.0,3.0,-2.0,2.0,1650820311850087.0
22.0,48.0,21.0,4.0,-38.0,-25.0,-32.0,5.0,1650820311852042.0
-64.0,-66.0,-36.0,-25.0,-4.0,-5.0,77.0,42.0,1650820311852042.0
-10.0,114.0,26.0,26.0,-3.0,-5.0,-24.0,-4.0,1650820311865212.0
-46.0,-102.0,-30.0,-12.0,-9.0,12.0,12.0,-80.0,1650820311865212.0
4.0,12.0,-4.0,12.0,12.0,5.0,-5.0,47.0,1650820311871266.0
53.0,79.0,25.0,24.0,25.0,16.0,-31.0,27.0,1650820311871266.0
-13.0,-1.0,2.0,-3.0,14.0,2.0,12.0,4.0,1650820311887999.0
32.0,53.0,20.0,14.0,-12.0,-15.0,-23.0,-10.0,1650820311887999.0
26.0,23.0,-7.0,-15.0,-5.0,-2.0,12.0,-51.0,1650820311888815.0
-85.0,-62.0,-33.0,-7.0,-22.0,-6.0,22.0,67.0,1650820311888815.0
104.0,41.0,-21.0,-4.0,-2.0,8.0,9.0,-46.0,1650820311909687.0
-102.0,-63.0,14.0,6.0,-10.0,-10.0,-10.0,-47.0,1650820311909687.0
-55.0,-58.0,-31.0,-17.0,11.0,2.0,-14.0,-20.0,1650820311911617.0
54.0,127.0,42.0,-9.0,11.0,15.0,19.0,48.0,1650820311911617.0
-33.0,-31.0,-1.0,-3.0,-27.0,-31.0,-25.0,-9.0,1650820311924404.0
108.0,70.0,0.0,2.0,-26.0,-11.0,8.0,35.0,1650820311924404.0
-53.0,-19.0,-8.0,-17.0,34.0,15.0,10.0,17.0,1650820311933140.0
3.0,-41.0,-4.0,17.0,38.0,33.0,-14.0,-86.0,1650820311933140.0
-37.0,-75.0,45.0,41.0,-15.0,-6.0,-10.0,22.0,1650820311947175.0
41.0,3.0,-19.0,-25.0,43.0,42.0,62.0,56.0,1650820311947175.0
-53.0,41.0,43.0,65.0,-12.0,-39.0,-24.0,-9.0,1650820311949100.0
109.0,-38.0,-38.0,-60.0,-11.0,20.0,34.0,6.0,1650820311949100.0
-28.0,86.0,60.0,7.0,-19.0,-8.0,1.0,38.0,1650820311969925.0
-23.0,61.0,-40.0,-13.0,-11.0,-15.0,-29.0,-24.0,1650820311969925.0
51.0,119.0,0.0,-5.0,-23.0,-13.0,-8.0,-3.0,1650820311971882.0
-56.0,-57.0,16.0,19.0,-13.0,-17.0,-35.0,-104.0,1650820311971882.0
-2.0,-128.0,-23.0,8.0,27.0,34.0,109.0,112.0,1650820311984849.0
-28.0,100.0,13.0,-3.0,-7.0,-5.0,-22.0,-15.0,1650820311984849.0
26.0,-8.0,8.0,-6.0,-44.0,-16.0,-15.0,-15.0,1650820311998847.0
2.0,125.0,16.0,-15.0,0.0,-17.0,-40.0,-72.0,1650820311998847.0
-5.0,-11.0,-29.0,-27.0,-41.0,-43.0,-41.0,-22.0,1650820312007896.0
17.0,3.0,11.0,35.0,67.0,50.0,13.0,12.0,1650820312007896.0
-24.0,-55.0,-7.0,22.0,71.0,70.0,71.0,85.0,1650820312008794.0
22.0,-50.0,15.0,-4.0,4.0,16.0,10.0,14.0,1650820312008794.0
-11.0,55.0,-20.0,-35.0,-28.0,-29.0,-21.0,-19.0,1650820312029865.0
-9.0,-126.0,35.0,5.0,1.0,-14.0,-17.0,-18.0,1650820312029865.0
-81.0,-16.0,-3.0,-5.0,-36.0,-29.0,-23.0,-45.0,1650820312031795.0
-12.0,-6.0,6.0,11.0,16.0,3.0,-48.0,-63.0,1650820312031795.0
45.0,-3.0,8.0,15.0,15.0,34.0,88.0,89.0,1650820312044852.0
63.0,123.0,29.0,-1.0,-14.0,-15.0,5.0,38.0,1650820312044852.0
-8.0,-110.0,-7.0,-11.0,-4.0,-3.0,6.0,8.0,1650820312050856.0
-40.0,127.0,-2.0,-4.0,7.0,-14.0,-29.0,-35.0,1650820312050856.0
37.0,95.0,3.0,-2.0,-35.0,-27.0,-72.0,-97.0,1650820312066857.0
-35.0,0.0,-22.0,-4.0,-2.0,-6.0,18.0,61.0,1650820312066857.0
-49.0,8.0,-3.0,11.0,-12.0,-13.0,-17.0,-106.0,1650820312083228.0
50.0,36.0,12.0,-20.0,4.0,22.0,-10.0,41.0,1650820312083228.0
-26.0,-69.0,-13.0,9.0,20.0,27.0,-16.0,-39.0,1650820312090279.0
13.0,15.0,-10.0,-10.0,10.0,9.0,19.0,20.0,1650820312090279.0
19.0,-6.0,-2.0,-12.0,-13.0,-18.0,-17.0,31.0,1650820312091236.0
-12.0,-33.0,-4.0,11.0,-18.0,-33.0,5.0,-3.0,1650820312091236.0
-12.0,19.0,-4.0,-8.0,-24.0,-3.0,-13.0,11.0,1650820312104324.0
10.0,-11.0,-9.0,-2.0,10.0,5.0,6.0,-3.0,1650820312104324.0
-20.0,-30.0,-4.0,-8.0,-18.0,-24.0,-33.0,-22.0,1650820312111374.0
11.0,-15.0,4.0,13.0,15.0,14.0,20.0,38.0,1650820312111374.0
-8.0,-12.0,-22.0,-2.0,-5.0,5.0,23.0,-16.0,1650820312127531.0
23.0,12.0,20.0,-3.0,-32.0,-13.0,-17.0,-81.0,1650820312127531.0
-20.0,-73.0,-44.0,2.0,43.0,17.0,-1.0,7.0,1650820312129487.0
10.0,-54.0,-9.0,3.0,-3.0,-7.0,-1.0,16.0,1650820312129487.0
-26.0,-35.0,3.0,-1.0,10.0,-3.0,-27.0,30.0,1650820312150321.0
-10.0,-3.0,5.0,-4.0,-9.0,0.0,13.0,-35.0,1650820312150321.0
15.0,44.0,2.0,-3.0,-2.0,4.0,5.0,-18.0,1650820312152277.0
20.0,29.0,-2.0,-7.0,7.0,4.0,7.0,17.0,1650820312152277.0
-5.0,-5.0,-1.0,10.0,17.0,10.0,-14.0,-18.0,1650820312164398.0
3.0,-20.0,8.0,9.0,16.0,6.0,6.0,18.0,1650820312164398.0
10.0,-6.0,-21.0,-9.0,-7.0,1.0,-1.0,50.0,1650820312171315.0
-26.0,-2.0,18.0,15.0,-8.0,-15.0,-7.0,-57.0,1650820312171315.0
-7.0,6.0,7.0,-9.0,-9.0,-14.0,-27.0,-4.0,1650820312188045.0
10.0,9.0,-18.0,-10.0,-6.0,-6.0,2.0,33.0,1650820312188045.0
8.0,10.0,-12.0,-18.0,-2.0,7.0,5.0,-12.0,1650820312188988.0
19.0,31.0,7.0,2.0,-6.0,0.0,8.0,28.0,1650820312188988.0
-17.0,-9.0,0.0,12.0,15.0,1.0,-8.0,-15.0,1650820312210172.0
-18.0,-15.0,6.0,13.0,-3.0,-12.0,-16.0,-3.0,1650820312210172.0
4.0,-5.0,12.0,11.0,-5.0,-6.0,0.0,58.0,1650820312212098.0
19.0,11.0,16.0,17.0,8.0,11.0,6.0,-49.0,1650820312212098.0
16.0,24.0,-16.0,-26.0,7.0,6.0,6.0,-12.0,1650820312224212.0
-12.0,-21.0,-27.0,-26.0,-9.0,1.0,0.0,11.0,1650820312224212.0
17.0,-2.0,-1.0,0.0,-1.0,0.0,1.0,-6.0,1650820312231262.0
-20.0,23.0,22.0,13.0,-11.0,-15.0,-17.0,26.0,1650820312231262.0
7.0,1.0,32.0,32.0,4.0,6.0,27.0,-6.0,1650820312247418.0
-3.0,-13.0,3.0,6.0,7.0,6.0,-12.0,0.0,1650820312247418.0
-21.0,-8.0,-27.0,-30.0,-4.0,5.0,26.0,-43.0,1650820312249276.0
3.0,-8.0,-44.0,-36.0,-14.0,-8.0,-2.0,-13.0,1650820312249276.0
-10.0,12.0,-16.0,-14.0,-8.0,-7.0,-8.0,0.0,1650820312269407.0
12.0,4.0,19.0,22.0,9.0,1.0,-12.0,36.0,1650820312269407.0
22.0,14.0,59.0,45.0,15.0,20.0,27.0,-21.0,1650820312285843.0
-29.0,0.0,-9.0,7.0,-2.0,5.0,10.0,8.0,1650820312285843.0
5.0,-6.0,-58.0,-60.0,-14.0,-12.0,-18.0,-6.0,1650820312286869.0
-16.0,-6.0,-2.0,13.0,-4.0,-2.0,11.0,3.0,1650820312286869.0
-4.0,8.0,7.0,8.0,3.0,-4.0,-21.0,3.0,1650820312292825.0
7.0,2.0,14.0,7.0,4.0,-4.0,13.0,26.0,1650820312292825.0
-11.0,-14.0,-15.0,-47.0,-14.0,0.0,-9.0,-30.0,1650820312307850.0
22.0,-3.0,-29.0,-31.0,-12.0,-5.0,2.0,-23.0,1650820312307850.0
-5.0,-7.0,5.0,20.0,0.0,-3.0,0.0,2.0,1650820312308795.0
22.0,10.0,51.0,66.0,17.0,3.0,-9.0,13.0,1650820312308795.0
-7.0,11.0,36.0,58.0,21.0,10.0,6.0,18.0,1650820312329783.0
2.0,-12.0,-50.0,-83.0,-14.0,-4.0,10.0,5.0,1650820312329783.0
-7.0,0.0,-9.0,-8.0,-6.0,-3.0,-3.0,-14.0,1650820312331722.0
1.0,-11.0,-76.0,-59.0,-18.0,-6.0,3.0,6.0,1650820312331722.0
7.0,14.0,39.0,46.0,6.0,-5.0,1.0,1.0,1650820312352849.0
-7.0,7.0,17.0,23.0,13.0,14.0,6.0,-3.0,1650820312352849.0
4.0,0.0,9.0,3.0,11.0,10.0,3.0,16.0,1650820312353811.0
-10.0,12.0,23.0,11.0,7.0,8.0,5.0,-3.0,1650820312353811.0
-4.0,-22.0,-16.0,-13.0,-12.0,-8.0,1.0,0.0,1650820312367805.0
2.0,3.0,0.0,1.0,-5.0,-7.0,-8.0,-7.0,1650820312367805.0
-12.0,-2.0,-13.0,-16.0,-9.0,-4.0,0.0,4.0,1650820312368763.0
8.0,-3.0,-10.0,10.0,9.0,8.0,3.0,-3.0,1650820312368763.0
18.0,2.0,15.0,8.0,7.0,2.0,-3.0,16.0,1650820312389969.0
-8.0,3.0,1.0,-2.0,-8.0,-8.0,-7.0,-8.0,1650820312389969.0
2.0,-1.0,-1.0,-1.0,-5.0,1.0,18.0,3.0,1650820312391938.0
4.0,-7.0,-15.0,-19.0,-2.0,0.0,5.0,-2.0,1650820312391938.0
-4.0,-3.0,6.0,17.0,1.0,-3.0,-2.0,7.0,1650820312404011.0
2.0,4.0,26.0,22.0,7.0,4.0,-3.0,0.0,1650820312404011.0
-22.0,-9.0,-2.0,12.0,7.0,4.0,-1.0,18.0,1650820312413073.0
4.0,3.0,-3.0,-19.0,-8.0,-3.0,-5.0,-32.0,1650820312413073.0
0.0,2.0,14.0,10.0,3.0,6.0,9.0,2.0,1650820312427264.0
-14.0,-13.0,-3.0,2.0,-1.0,-4.0,-2.0,-5.0,1650820312427264.0
21.0,14.0,0.0,-19.0,-9.0,-7.0,-3.0,1.0,1650820312429261.0
-3.0,-3.0,10.0,-4.0,0.0,-2.0,-2.0,12.0,1650820312429261.0
-7.0,23.0,-36.0,-8.0,-3.0,-3.0,-3.0,-7.0,1650820312450270.0
0.0,-21.0,-9.0,3.0,4.0,8.0,3.0,-5.0,1650820312450270.0
1.0,5.0,-9.0,-5.0,2.0,2.0,-6.0,1.0,1650820312451229.0
-3.0,-4.0,13.0,8.0,0.0,-1.0,0.0,2.0,1650820312451229.0
7.0,5.0,-10.0,-10.0,-6.0,-6.0,-5.0,-8.0,1650820312464124.0
-12.0,10.0,23.0,22.0,0.0,-4.0,1.0,5.0,1650820312464124.0
5.0,-8.0,-22.0,-22.0,-7.0,-5.0,-5.0,-9.0,1650820312478861.0
-2.0,-6.0,-4.0,12.0,1.0,0.0,-4.0,1.0,1650820312478861.0
-5.0,-9.0,2.0,-7.0,-3.0,-1.0,-1.0,4.0,1650820312487948.0
2.0,3.0,4.0,6.0,3.0,0.0,9.0,-3.0,1650820312487948.0
-4.0,-6.0,11.0,5.0,1.0,-1.0,-2.0,-1.0,1650820312488819.0
7.0,7.0,2.0,-6.0,-2.0,-2.0,-1.0,1.0,1650820312488819.0
-3.0,-5.0,-6.0,-10.0,-3.0,-2.0,-8.0,-4.0,1650820312509884.0
26.0,2.0,-2.0,10.0,10.0,12.0,18.0,5.0,1650820312509884.0
-37.0,-1.0,-1.0,-9.0,-5.0,-6.0,-8.0,6.0,1650820312511812.0
-5.0,-3.0,-15.0,-15.0,-9.0,-4.0,-3.0,0.0,1650820312511812.0
-1.0,0.0,13.0,13.0,2.0,-2.0,-5.0,1.0,1650820312523847.0
0.0,2.0,-7.0,-6.0,-5.0,-6.0,-2.0,-4.0,1650820312523847.0
9.0,-1.0,6.0,4.0,7.0,6.0,5.0,5.0,1650820312532818.0
5.0,-1.0,9.0,7.0,3.0,2.0,-15.0,1.0,1650820312532818.0
-8.0,-15.0,-5.0,-6.0,-2.0,1.0,16.0,-3.0,1650820312548073.0
-7.0,6.0,-7.0,-7.0,-3.0,0.0,-4.0,5.0,1650820312548073.0
15.0,-1.0,-7.0,2.0,0.0,-3.0,-4.0,-7.0,1650820312549067.0
-9.0,2.0,7.0,1.0,-2.0,-4.0,-11.0,0.0,1650820312549067.0
9.0,7.0,-7.0,-2.0,0.0,1.0,12.0,-1.0,1650820312568878.0
-5.0,-11.0,-5.0,0.0,1.0,-2.0,-2.0,-1.0,1650820312568878.0
1.0,-3.0,2.0,-6.0,-3.0,-4.0,-5.0,-7.0,1650820312577462.0
1.0,-6.0,-11.0,-2.0,-4.0,-2.0,-3.0,-5.0,1650820312577462.0
3.0,7.0,8.0,8.0,1.0,-1.0,-1.0,4.0,1650820312583560.0
-6.0,-1.0,-2.0,0.0,0.0,-1.0,-4.0,-3.0,1650820312583560.0
-10.0,0.0,-15.0,-25.0,-11.0,-7.0,-5.0,-8.0,1650820312592539.0
12.0,-5.0,-1.0,0.0,3.0,7.0,11.0,5.0,1650820312592539.0
0.0,-2.0,9.0,8.0,3.0,5.0,0.0,0.0,1650820312607646.0
-3.0,-2.0,-2.0,1.0,-2.0,-2.0,-4.0,-5.0,1650820312607646.0
1.0,-2.0,2.0,7.0,3.0,-1.0,-2.0,4.0,1650820312608675.0
4.0,2.0,1.0,-5.0,-2.0,-1.0,4.0,1.0,1650820312608675.0
-4.0,-1.0,-3.0,-7.0,-7.0,-5.0,-8.0,-3.0,1650820312630572.0
-2.0,2.0,2.0,9.0,1.0,-1.0,-4.0,-7.0,1650820312630572.0
7.0,-1.0,-2.0,0.0,2.0,4.0,5.0,8.0,1650820312631564.0
-1.0,2.0,5.0,3.0,3.0,2.0,3.0,12.0,1650820312631564.0
-3.0,-19.0,-11.0,-2.0,1.0,2.0,-5.0,-12.0,1650820312644148.0
-5.0,9.0,9.0,-4.0,-3.0,-2.0,-3.0,-3.0,1650820312644148.0
4.0,2.0,-19.0,-9.0,-5.0,-3.0,2.0,0.0,1650820312652384.0
-3.0,-4.0,-1.0,8.0,5.0,3.0,3.0,-5.0,1650820312652384.0
-2.0,3.0,9.0,2.0,3.0,2.0,1.0,12.0,1650820312667562.0
-5.0,1.0,1.0,0.0,2.0,4.0,-2.0,2.0,1650820312667562.0
3.0,-1.0,7.0,2.0,-5.0,-7.0,-3.0,-11.0,1650820312669518.0
0.0,4.0,-2.0,-2.0,-5.0,-3.0,-1.0,6.0,1650820312669518.0
6.0,1.0,-1.0,-4.0,-3.0,-3.0,0.0,-1.0,1650820312689966.0
-2.0,2.0,2.0,6.0,2.0,2.0,5.0,1.0,1650820312689966.0
-3.0,-3.0,1.0,-2.0,1.0,0.0,-3.0,-2.0,1650820312691925.0
-1.0,-3.0,-9.0,-12.0,-2.0,-2.0,1.0,-4.0,1650820312691925.0
0.0,-2.0,7.0,10.0,1.0,0.0,-4.0,-1.0,1650820312712952.0
-8.0,-7.0,-28.0,-24.0,-8.0,-9.0,-10.0,-11.0,1650820312712952.0
-1.0,-1.0,5.0,0.0,4.0,5.0,8.0,6.0,1650820312713893.0
7.0,4.0,19.0,17.0,2.0,4.0,5.0,-1.0,1650820312713893.0
-2.0,-16.0,-29.0,-13.0,1.0,4.0,0.0,-3.0,1650820312727984.0
4.0,1.0,15.0,8.0,-5.0,-2.0,3.0,7.0,1650820312727984.0
1.0,-1.0,4.0,5.0,-4.0,-6.0,-1.0,-4.0,1650820312728988.0
-3.0,1.0,-14.0,-18.0,-3.0,0.0,-1.0,-4.0,1650820312728988.0
-2.0,8.0,13.0,6.0,2.0,1.0,0.0,3.0,1650820312749993.0
-4.0,0.0,3.0,11.0,2.0,-2.0,-4.0,-2.0,1650820312749993.0
-5.0,-3.0,-10.0,-8.0,-3.0,-2.0,-8.0,-1.0,1650820312757459.0
-5.0,0.0,3.0,2.0,-3.0,-3.0,3.0,-3.0,1650820312757459.0
-3.0,-4.0,-10.0,-5.0,-2.0,-2.0,-1.0,-4.0,1650820312772974.0
1.0,0.0,9.0,6.0,2.0,0.0,1.0,1.0,1650820312772974.0
-3.0,1.0,-10.0,-5.0,0.0,3.0,0.0,-1.0,1650820312773943.0
-4.0,-3.0,-1.0,-2.0,-1.0,-3.0,-12.0,0.0,1650820312773943.0
1.0,6.0,7.0,0.0,1.0,3.0,17.0,2.0,1650820312787933.0
2.0,-8.0,-9.0,-7.0,2.0,1.0,4.0,12.0,1650820312787933.0
0.0,-3.0,-3.0,-5.0,-2.0,-3.0,-4.0,-11.0,1650820312788865.0
5.0,7.0,14.0,14.0,0.0,-3.0,-1.0,-2.0,1650820312788865.0
-4.0,4.0,-5.0,-3.0,-1.0,-2.0,-5.0,-4.0,1650820312810001.0
3.0,1.0,0.0,-2.0,1.0,-1.0,-3.0,1.0,1650820312810001.0
1.0,-4.0,9.0,8.0,0.0,2.0,6.0,3.0,1650820312811957.0
-3.0,-2.0,-16.0,-9.0,-8.0,-4.0,-3.0,-4.0,1650820312811957.0
-1.0,4.0,20.0,12.0,2.0,2.0,-2.0,8.0,1650820312833506.0
-5.0,-14.0,-38.0,-25.0,-2.0,0.0,-4.0,-5.0,1650820312833506.0
3.0,3.0,0.0,-6.0,-3.0,-2.0,-5.0,-4.0,1650820312834505.0
-8.0,-3.0,0.0,3.0,0.0,-2.0,1.0,-3.0,1650820312834505.0
1.0,-1.0,-10.0,-11.0,2.0,2.0,1.0,0.0,1650820312846540.0
6.0,6.0,19.0,5.0,1.0,1.0,-4.0,-5.0,1650820312846540.0
-2.0,3.0,-13.0,0.0,-4.0,-4.0,3.0,-2.0,1650820312853521.0
-4.0,-8.0,-3.0,2.0,-6.0,-2.0,0.0,3.0,1650820312853521.0
1.0,-1.0,0.0,-2.0,0.0,0.0,-2.0,0.0,1650820312869939.0
-1.0,1.0,4.0,8.0,0.0,1.0,2.0,-1.0,1650820312869939.0
2.0,4.0,5.0,-1.0,2.0,2.0,-1.0,-2.0,1650820312871895.0
-2.0,5.0,14.0,7.0,-1.0,-3.0,-1.0,0.0,1650820312871895.0
-1.0,0.0,-5.0,-4.0,-3.0,-3.0,-2.0,-3.0,1650820312892989.0
-3.0,-3.0,-7.0,-3.0,-7.0,-8.0,-3.0,-6.0,1650820312892989.0
3.0,4.0,16.0,12.0,10.0,8.0,-1.0,5.0,1650820312893958.0
0.0,-6.0,-7.0,-8.0,6.0,9.0,5.0,6.0,1650820312893958.0
-11.0,1.0,-7.0,-12.0,-5.0,-5.0,-4.0,-23.0,1650820312907047.0
-5.0,-2.0,1.0,-4.0,-8.0,-8.0,-1.0,12.0,1650820312907047.0
2.0,-6.0,-3.0,8.0,-7.0,-9.0,-6.0,-6.0,1650820312913993.0
9.0,5.0,-4.0,-4.0,0.0,-3.0,0.0,1.0,1650820312913993.0
4.0,1.0,9.0,5.0,2.0,2.0,-3.0,3.0,1650820312930181.0
0.0,-3.0,0.0,-3.0,2.0,7.0,6.0,6.0,1650820312930181.0
-4.0,-1.0,0.0,-2.0,5.0,3.0,1.0,1.0,1650820312932112.0
-4.0,2.0,0.0,0.0,-2.0,0.0,-1.0,-5.0,1650820312932112.0
3.0,3.0,-1.0,2.0,-1.0,-3.0,0.0,8.0,1650820312952870.0
0.0,-9.0,-6.0,-7.0,-3.0,-4.0,-1.0,-5.0,1650820312952870.0
1.0,7.0,4.0,2.0,2.0,1.0,0.0,1.0,1650820312953820.0
0.0,-1.0,3.0,-1.0,2.0,1.0,-3.0,-2.0,1650820312953820.0
-1.0,3.0,15.0,14.0,-1.0,-2.0,0.0,-1.0,1650820312966780.0
-2.0,-10.0,-22.0,-16.0,-5.0,3.0,10.0,0.0,1650820312966780.0
-2.0,0.0,9.0,9.0,3.0,1.0,1.0,0.0,1650820312973693.0
-1.0,-5.0,-9.0,-9.0,5.0,3.0,0.0,2.0,1650820312973693.0
0.0,2.0,4.0,7.0,0.0,3.0,6.0,1.0,1650820312989869.0
1.0,6.0,14.0,11.0,3.0,-2.0,-4.0,-7.0,1650820312989869.0
-1.0,-4.0,-5.0,-8.0,-5.0,-5.0,-2.0,3.0,1650820312991829.0
-5.0,-6.0,-7.0,-3.0,-4.0,-4.0,-1.0,-8.0,1650820312991829.0
1.0,-2.0,-3.0,-9.0,-3.0,-2.0,-3.0,3.0,1650820313012998.0
0.0,4.0,-5.0,-2.0,4.0,4.0,-2.0,-1.0,1650820313012998.0
6.0,-4.0,5.0,6.0,1.0,4.0,0.0,1.0,1650820313013894.0
-4.0,-1.0,0.0,1.0,4.0,5.0,5.0,1.0,1650820313013894.0
0.0,-6.0,-5.0,-3.0,-5.0,-8.0,-4.0,-1.0,1650820313027064.0
4.0,3.0,6.0,0.0,-4.0,-4.0,-3.0,-2.0,1650820313027064.0
-4.0,3.0,-1.0,-2.0,2.0,0.0,-3.0,-3.0,1650820313035012.0
-1.0,0.0,9.0,17.0,9.0,7.0,7.0,2.0,1650820313035012.0
2.0,-1.0,-13.0,-16.0,-4.0,-2.0,-2.0,-2.0,1650820313050169.0
0.0,2.0,3.0,7.0,-2.0,-5.0,-2.0,6.0,1650820313050169.0
-3.0,2.0,2.0,1.0,-4.0,-5.0,-4.0,-5.0,1650820313052109.0
1.0,-9.0,-2.0,-2.0,-1.0,0.0,5.0,2.0,1650820313052109.0
0.0,0.0,7.0,3.0,10.0,14.0,7.0,1.0,1650820313072876.0
2.0,8.0,11.0,6.0,-2.0,-4.0,-3.0,2.0,1650820313072876.0
-1.0,-6.0,-10.0,-10.0,-3.0,-4.0,0.0,6.0,1650820313073807.0
3.0,5.0,6.0,5.0,-3.0,-1.0,-4.0,-1.0,1650820313073807.0
-1.0,-3.0,1.0,4.0,1.0,0.0,-3.0,1.0,1650820313087298.0
-3.0,1.0,2.0,3.0,2.0,3.0,0.0,-6.0,1650820313087298.0
-5.0,-4.0,-3.0,-4.0,-2.0,-2.0,1.0,-1.0,1650820313093853.0
-3.0,3.0,0.0,-8.0,-2.0,-4.0,-3.0,0.0,1650820313093853.0
4.0,-2.0,3.0,4.0,1.0,1.0,-1.0,0.0,1650820313110077.0
-1.0,-4.0,-6.0,0.0,2.0,1.0,-1.0,-4.0,1650820313110077.0
-2.0,3.0,-2.0,1.0,-2.0,-4.0,-1.0,0.0,1650820313112045.0
-4.0,1.0,-2.0,-7.0,-4.0,-5.0,-5.0,2.0,1650820313112045.0
-2.0,-7.0,-14.0,-10.0,-2.0,1.0,4.0,-3.0,1650820313132919.0
0.0,6.0,2.0,0.0,4.0,1.0,-1.0,-2.0,1650820313132919.0
-2.0,-2.0,0.0,-2.0,-4.0,-4.0,-4.0,-2.0,1650820313133847.0
1.0,0.0,-5.0,-2.0,0.0,3.0,-2.0,-3.0,1650820313133847.0
2.0,13.0,-1.0,0.0,0.0,1.0,-1.0,2.0,1650820313146987.0
-1.0,-9.0,4.0,-3.0,-4.0,-5.0,-2.0,-2.0,1650820313146987.0
0.0,-1.0,-3.0,0.0,-3.0,-2.0,-3.0,-4.0,1650820313153968.0
2.0,5.0,0.0,-2.0,-2.0,-3.0,-2.0,-3.0,1650820313153968.0
-4.0,-4.0,-7.0,-5.0,-2.0,-1.0,-2.0,10.0,1650820313170012.0
-2.0,8.0,8.0,7.0,4.0,4.0,-2.0,-17.0,1650820313170012.0
0.0,-2.0,3.0,4.0,-6.0,-5.0,-2.0,-1.0,1650820313171968.0
-1.0,-6.0,-12.0,-7.0,-4.0,-4.0,-7.0,1.0,1650820313171968.0
-1.0,-1.0,3.0,5.0,7.0,6.0,4.0,0.0,1650820313192833.0
-4.0,0.0,-2.0,-4.0,0.0,-1.0,-1.0,1.0,1650820313192833.0
9.0,2.0,2.0,3.0,-4.0,-2.0,0.0,3.0,1650820313193803.0
-1.0,0.0,5.0,4.0,-4.0,-6.0,0.0,-2.0,1650820313193803.0
-11.0,-5.0,5.0,2.0,0.0,-3.0,-1.0,19.0,1650820313205836.0
1.0,-6.0,-10.0,-5.0,2.0,5.0,-3.0,-34.0,1650820313205836.0
-4.0,-4.0,-7.0,2.0,1.0,2.0,1.0,-1.0,1650820313214868.0
-1.0,-2.0,-1.0,-5.0,-2.0,-1.0,-1.0,6.0,1650820313214868.0
0.0,-1.0,0.0,-1.0,-3.0,-3.0,-7.0,-8.0,1650820313229897.0
5.0,7.0,5.0,6.0,-1.0,0.0,1.0,10.0,1650820313229897.0
-1.0,6.0,4.0,-4.0,0.0,2.0,0.0,-2.0,1650820313231852.0
1.0,-17.0,-8.0,1.0,-3.0,-4.0,-3.0,-2.0,1650820313231852.0
-3.0,-4.0,-2.0,-1.0,-1.0,1.0,4.0,14.0,1650820313252855.0
0.0,1.0,-5.0,-1.0,2.0,6.0,-1.0,-12.0,1650820313252855.0
2.0,1.0,5.0,7.0,0.0,1.0,-1.0,-3.0,1650820313258907.0
-2.0,1.0,-7.0,-9.0,-4.0,-1.0,1.0,3.0,1650820313258907.0
2.0,7.0,3.0,0.0,-1.0,-6.0,-5.0,-8.0,1650820313265821.0
-4.0,-11.0,0.0,3.0,-3.0,-8.0,0.0,13.0,1650820313265821.0
3.0,3.0,-2.0,-1.0,3.0,1.0,1.0,0.0,1650820313274911.0
-6.0,1.0,5.0,4.0,7.0,5.0,2.0,-4.0,1650820313274911.0
3.0,0.0,-4.0,2.0,-2.0,1.0,-1.0,-6.0,1650820313290050.0
5.0,5.0,2.0,-2.0,1.0,3.0,2.0,7.0,1650820313290050.0
-13.0,-5.0,0.0,-9.0,-5.0,-4.0,2.0,6.0,1650820313292005.0
1.0,9.0,-14.0,0.0,-1.0,-3.0,-3.0,-8.0,1650820313292005.0
3.0,-4.0,7.0,5.0,1.0,-2.0,-2.0,-6.0,1650820313312155.0
-2.0,0.0,1.0,6.0,-2.0,-1.0,2.0,7.0,1650820313312155.0
8.0,-2.0,-1.0,-1.0,2.0,0.0,2.0,23.0,1650820313314138.0
-14.0,5.0,6.0,3.0,-1.0,1.0,3.0,-37.0,1650820313314138.0
3.0,-3.0,-10.0,-5.0,-3.0,-4.0,-4.0,-6.0,1650820313326172.0
2.0,-3.0,0.0,-1.0,0.0,1.0,0.0,3.0,1650820313326172.0
-3.0,10.0,-1.0,1.0,5.0,7.0,1.0,-3.0,1650820313335086.0
9.0,-3.0,5.0,-3.0,1.0,3.0,-2.0,10.0,1650820313335086.0
0.0,-5.0,-5.0,-4.0,-2.0,2.0,12.0,13.0,1650820313350259.0
-5.0,-4.0,-1.0,3.0,-2.0,-5.0,-4.0,-18.0,1650820313350259.0
1.0,2.0,4.0,1.0,1.0,1.0,2.0,-2.0,1650820313351218.0
2.0,-3.0,3.0,-1.0,-1.0,-4.0,-2.0,5.0,1650820313351218.0
-1.0,-3.0,2.0,-1.0,1.0,3.0,-4.0,-4.0,1650820313372274.0
2.0,6.0,1.0,-1.0,0.0,4.0,3.0,14.0,1650820313372274.0
-1.0,-12.0,-9.0,0.0,2.0,1.0,1.0,-8.0,1650820313374203.0
2.0,0.0,5.0,-1.0,-4.0,-7.0,-2.0,2.0,1650820313374203.0
-1.0,1.0,-3.0,-1.0,-2.0,-3.0,-2.0,-5.0,1650820313386935.0
-2.0,1.0,-1.0,2.0,4.0,3.0,0.0,4.0,1650820313386935.0
-2.0,-4.0,5.0,0.0,0.0,-3.0,-9.0,-12.0,1650820313394856.0
4.0,0.0,1.0,0.0,2.0,2.0,6.0,7.0,1650820313394856.0
-1.0,2.0,0.0,-3.0,-3.0,-2.0,-5.0,-5.0,1650820313410034.0
-7.0,-5.0,6.0,5.0,-3.0,-4.0,-3.0,1.0,1650820313410034.0
7.0,0.0,-3.0,-3.0,-1.0,1.0,2.0,5.0,1650820313411990.0
9.0,-1.0,-1.0,2.0,3.0,4.0,3.0,5.0,1650820313411990.0
-4.0,0.0,2.0,3.0,-1.0,-1.0,-1.0,-6.0,1650820313433103.0
-2.0,-5.0,-8.0,-6.0,-4.0,-3.0,-1.0,1.0,1650820313433103.0
-10.0,2.0,-1.0,-3.0,-2.0,-2.0,-4.0,-2.0,1650820313434056.0
2.0,-3.0,-5.0,-6.0,-2.0,-1.0,0.0,1.0,1650820313434056.0
-1.0,2.0,10.0,8.0,2.0,0.0,0.0,-2.0,1650820313445886.0
3.0,3.0,-11.0,-9.0,2.0,3.0,1.0,6.0,1650820313445886.0
-5.0,-3.0,3.0,5.0,-1.0,-1.0,-1.0,7.0,1650820313462387.0
0.0,-3.0,-3.0,-3.0,1.0,1.0,-1.0,-18.0,1650820313462387.0
0.0,0.0,1.0,1.0,-4.0,-5.0,-6.0,-3.0,1650820313470434.0
-4.0,-4.0,-4.0,-10.0,-3.0,-4.0,-1.0,-2.0,1650820313470434.0
3.0,-1.0,5.0,3.0,-3.0,0.0,2.0,8.0,1650820313471366.0
0.0,1.0,0.0,0.0,4.0,6.0,-1.0,5.0,1650820313471366.0
0.0,1.0,-3.0,-3.0,-2.0,-2.0,-1.0,-6.0,1650820313493549.0
1.0,1.0,0.0,-3.0,-3.0,-3.0,-2.0,0.0,1650820313493549.0
3.0,-9.0,-9.0,1.0,4.0,3.0,2.0,-8.0,1650820313495546.0
-2.0,0.0,8.0,10.0,0.0,-1.0,-1.0,5.0,1650820313495546.0
-3.0,-3.0,-7.0,-9.0,-2.0,-1.0,1.0,-4.0,1650820313506686.0
-1.0,-1.0,-2.0,-1.0,-2.0,-5.0,-1.0,0.0,1650820313506686.0
-2.0,5.0,3.0,-1.0,-3.0,-1.0,-2.0,-7.0,1650820313515674.0
7.0,1.0,-5.0,0.0,2.0,3.0,-3.0,0.0,1650820313515674.0
-12.0,-4.0,-13.0,-11.0,0.0,1.0,3.0,9.0,1650820313529494.0
3.0,2.0,6.0,4.0,-1.0,-4.0,-3.0,-13.0,1650820313529494.0
-5.0,-7.0,-13.0,-12.0,-2.0,-1.0,-1.0,-1.0,1650820313536681.0
-2.0,2.0,2.0,-2.0,-5.0,-6.0,-3.0,-9.0,1650820313536681.0
-11.0,2.0,17.0,15.0,0.0,-1.0,-3.0,3.0,1650820313552817.0
32.0,-17.0,-28.0,-17.0,-6.0,1.0,-3.0,1.0,1650820313552817.0
1.0,7.0,-7.0,-5.0,3.0,3.0,5.0,-2.0,1650820313553764.0
-8.0,-6.0,-1.0,-3.0,1.0,-2.0,1.0,11.0,1650820313553764.0
11.0,-2.0,5.0,1.0,-6.0,-6.0,-3.0,-6.0,1650820313566726.0
5.0,7.0,11.0,9.0,5.0,7.0,2.0,6.0,1650820313566726.0
-32.0,-4.0,0.0,7.0,2.0,0.0,0.0,5.0,1650820313574855.0
4.0,8.0,1.0,-3.0,-4.0,1.0,-1.0,-1.0,1650820313574855.0
-1.0,0.0,2.0,2.0,-2.0,-4.0,3.0,-1.0,1650820313590049.0
-1.0,8.0,21.0,17.0,5.0,-3.0,3.0,16.0,1650820313590049.0
0.0,-5.0,-19.0,-18.0,1.0,9.0,3.0,-12.0,1650820313592004.0
-7.0,0.0,-15.0,-1.0,0.0,1.0,-3.0,5.0,1650820313592004.0
6.0,4.0,2.0,-1.0,-1.0,-2.0,-4.0,-1.0,1650820313612675.0
-6.0,-12.0,-5.0,-7.0,-8.0,-6.0,-5.0,-8.0,1650820313612675.0
12.0,13.0,38.0,18.0,1.0,-2.0,1.0,0.0,1650820313613664.0
-10.0,-17.0,-39.0,-20.0,-8.0,-2.0,5.0,11.0,1650820313613664.0
7.0,9.0,-9.0,-8.0,-8.0,-3.0,-13.0,-9.0,1650820313634801.0
-18.0,-16.0,14.0,20.0,1.0,-1.0,3.0,2.0,1650820313634801.0
31.0,19.0,2.0,-1.0,5.0,-1.0,11.0,10.0,1650820313636730.0
-30.0,12.0,16.0,6.0,2.0,1.0,2.0,20.0,1650820313636730.0
22.0,-58.0,-16.0,-11.0,2.0,4.0,0.0,-9.0,1650820313649845.0
-6.0,31.0,11.0,-8.0,-11.0,-7.0,-5.0,-5.0,1650820313649845.0
8.0,-22.0,-24.0,-15.0,-2.0,-2.0,-9.0,-66.0,1650820313651774.0
9.0,17.0,-14.0,-5.0,8.0,8.0,8.0,28.0,1650820313651774.0
1.0,31.0,16.0,21.0,9.0,8.0,9.0,0.0,1650820313672948.0
5.0,9.0,-6.0,-6.0,-6.0,-4.0,-9.0,0.0,1650820313672948.0
2.0,-3.0,1.0,-6.0,-10.0,-5.0,1.0,9.0,1650820313673960.0
20.0,11.0,18.0,26.0,6.0,-3.0,-8.0,-19.0,1650820313673960.0
-19.0,42.0,-11.0,-18.0,11.0,10.0,14.0,34.0,1650820313695277.0
-22.0,-72.0,24.0,14.0,8.0,9.0,6.0,-6.0,1650820313695277.0
3.0,7.0,2.0,4.0,-16.0,-14.0,0.0,37.0,1650820313696269.0
-17.0,-33.0,-13.0,-14.0,4.0,0.0,-20.0,-73.0,1650820313696269.0
6.0,18.0,4.0,21.0,11.0,0.0,-29.0,-33.0,1650820313710414.0
8.0,58.0,60.0,13.0,11.0,17.0,56.0,23.0,1650820313710414.0
-31.0,-67.0,-43.0,3.0,-3.0,-4.0,9.0,56.0,1650820313711346.0
3.0,-27.0,3.0,-26.0,-9.0,-6.0,-32.0,-36.0,1650820313711346.0
29.0,0.0,13.0,-5.0,-2.0,-3.0,-33.0,16.0,1650820313733506.0
-4.0,42.0,-27.0,-8.0,3.0,2.0,23.0,-64.0,1650820313733506.0
-4.0,-29.0,31.0,20.0,8.0,1.0,46.0,15.0,1650820313738426.0
25.0,65.0,8.0,5.0,-6.0,2.0,-17.0,47.0,1650820313738426.0
-44.0,-28.0,-17.0,-38.0,-9.0,1.0,-19.0,4.0,1650820313755523.0
6.0,-68.0,-28.0,5.0,-9.0,-12.0,-36.0,24.0,1650820313755523.0
-42.0,-29.0,-3.0,6.0,7.0,-4.0,-1.0,-15.0,1650820313756504.0
-7.0,1.0,16.0,29.0,2.0,6.0,34.0,48.0,1650820313756504.0
-23.0,24.0,11.0,6.0,-1.0,2.0,13.0,-74.0,1650820313770570.0
52.0,21.0,-8.0,-32.0,-19.0,-18.0,-33.0,-20.0,1650820313770570.0
55.0,54.0,-50.0,-46.0,-21.0,-9.0,-16.0,31.0,1650820313771566.0
-21.0,-45.0,-12.0,4.0,1.0,-1.0,-2.0,16.0,1650820313771566.0
-8.0,12.0,17.0,4.0,-5.0,-2.0,0.0,-34.0,1650820313793020.0
-15.0,-22.0,-30.0,3.0,-13.0,-6.0,17.0,55.0,1650820313793020.0
-4.0,-1.0,13.0,5.0,2.0,-2.0,-32.0,-53.0,1650820313794020.0
19.0,23.0,21.0,8.0,-2.0,-13.0,-14.0,-21.0,1650820313794020.0
13.0,-23.0,-39.0,7.0,7.0,4.0,36.0,89.0,1650820313822976.0
13.0,34.0,-39.0,-30.0,11.0,10.0,1.0,-85.0,1650820313822976.0
-8.0,-64.0,-12.0,-43.0,-9.0,10.0,-10.0,25.0,1650820313823947.0
-41.0,3.0,12.0,13.0,-17.0,-17.0,16.0,4.0,1650820313823947.0
1.0,-24.0,19.0,15.0,-19.0,-25.0,3.0,25.0,1650820313828936.0
39.0,83.0,-8.0,-10.0,-3.0,0.0,-39.0,-65.0,1650820313828936.0
-61.0,-9.0,50.0,35.0,25.0,10.0,27.0,52.0,1650820313836589.0
-33.0,-48.0,17.0,36.0,5.0,13.0,2.0,-36.0,1650820313836589.0
-29.0,-9.0,-15.0,-18.0,8.0,18.0,19.0,63.0,1650820313852617.0
-27.0,63.0,17.0,-3.0,-3.0,-2.0,-45.0,-44.0,1650820313852617.0
85.0,91.0,1.0,-11.0,-15.0,-20.0,-37.0,-10.0,1650820313854544.0
12.0,-7.0,0.0,-2.0,40.0,36.0,106.0,104.0,1650820313854544.0
-93.0,-97.0,-28.0,-3.0,-1.0,-15.0,-8.0,16.0,1650820313874800.0
-11.0,-50.0,-31.0,-5.0,-19.0,1.0,6.0,-23.0,1650820313874800.0
57.0,119.0,8.0,5.0,25.0,-3.0,-53.0,-64.0,1650820313874800.0
61.0,123.0,33.0,3.0,-26.0,-10.0,-24.0,-10.0,1650820313874800.0
8.0,-57.0,-6.0,5.0,4.0,13.0,20.0,11.0,1650820313897878.0
-14.0,-59.0,6.0,1.0,9.0,12.0,19.0,40.0,1650820313897878.0
-62.0,17.0,-23.0,6.0,20.0,1.0,-33.0,-73.0,1650820313897878.0
4.0,89.0,-3.0,4.0,-55.0,-37.0,-10.0,14.0,1650820313897878.0
127.0,-53.0,5.0,-6.0,58.0,44.0,36.0,17.0,1650820313912316.0
-109.0,-50.0,-21.0,-34.0,-44.0,-22.0,1.0,90.0,1650820313912316.0
-99.0,-36.0,15.0,45.0,-10.0,-14.0,-40.0,-62.0,1650820313912316.0
63.0,63.0,-17.0,-65.0,-18.0,-11.0,-6.0,38.0,1650820313912316.0
13.0,127.0,46.0,15.0,-49.0,-23.0,-31.0,-35.0,1650820313933879.0
3.0,-114.0,-26.0,22.0,107.0,51.0,30.0,22.0,1650820313933879.0
32.0,-36.0,-34.0,-32.0,-35.0,-8.0,4.0,16.0,1650820313941856.0
-99.0,-59.0,-36.0,-19.0,6.0,-7.0,-36.0,-81.0,1650820313941856.0
-4.0,52.0,19.0,14.0,-42.0,-24.0,22.0,88.0,1650820313957748.0
19.0,70.0,11.0,2.0,28.0,6.0,-6.0,-20.0,1650820313957748.0
68.0,-6.0,30.0,4.0,-25.0,-6.0,-6.0,-39.0,1650820313958782.0
28.0,-25.0,-12.0,5.0,10.0,3.0,-13.0,-18.0,1650820313958782.0
-88.0,-65.0,-28.0,-3.0,5.0,-17.0,-18.0,-47.0,1650820313971776.0
4.0,-16.0,14.0,6.0,-18.0,-11.0,-2.0,76.0,1650820313971776.0
12.0,-6.0,4.0,4.0,22.0,31.0,2.0,36.0,1650820313972715.0
3.0,-14.0,-11.0,-7.0,-67.0,-24.0,17.0,23.0,1650820313972715.0
91.0,89.0,26.0,33.0,87.0,39.0,11.0,-3.0,1650820313994011.0
12.0,-46.0,-3.0,11.0,8.0,25.0,54.0,88.0,1650820313994011.0
2.0,18.0,28.0,-30.0,-31.0,-20.0,-32.0,-50.0,1650820313995009.0
29.0,1.0,-3.0,34.0,42.0,9.0,-14.0,-43.0,1650820313995009.0
-48.0,-74.0,11.0,-16.0,-30.0,-2.0,-4.0,8.0,1650820314017053.0
11.0,24.0,19.0,43.0,25.0,16.0,-20.0,-63.0,1650820314017053.0
63.0,25.0,-39.0,-9.0,27.0,28.0,49.0,65.0,1650820314018058.0
-19.0,-16.0,9.0,-15.0,6.0,-8.0,-8.0,-15.0,1650820314018058.0
-21.0,-21.0,-11.0,10.0,-1.0,-21.0,-8.0,33.0,1650820314032068.0
63.0,127.0,49.0,-34.0,-31.0,-20.0,-32.0,-65.0,1650820314032068.0
-112.0,-127.0,-70.0,-24.0,-44.0,-22.0,3.0,46.0,1650820314033026.0
69.0,76.0,-5.0,-5.0,35.0,14.0,21.0,-17.0,1650820314033026.0
-45.0,35.0,-4.0,-17.0,-6.0,6.0,-4.0,-32.0,1650820314054802.0
28.0,7.0,15.0,14.0,-29.0,-24.0,2.0,31.0,1650820314054802.0
-7.0,19.0,14.0,26.0,24.0,25.0,-5.0,-4.0,1650820314054802.0
9.0,-45.0,21.0,8.0,15.0,7.0,64.0,60.0,1650820314054802.0
61.0,4.0,-14.0,-28.0,-20.0,-19.0,-66.0,-24.0,1650820314068866.0
-30.0,-19.0,3.0,17.0,-46.0,-29.0,-14.0,-45.0,1650820314068866.0
26.0,68.0,10.0,9.0,-1.0,14.0,20.0,-18.0,1650820314076847.0
-38.0,-85.0,1.0,2.0,67.0,70.0,20.0,52.0,1650820314076847.0
-11.0,-50.0,-19.0,7.0,91.0,66.0,58.0,23.0,1650820314091969.0
41.0,42.0,1.0,4.0,-50.0,-48.0,-24.0,11.0,1650820314091969.0
-13.0,48.0,29.0,10.0,-18.0,-26.0,2.0,10.0,1650820314092918.0
-16.0,-26.0,-5.0,-43.0,-20.0,-17.0,-48.0,-63.0,1650820314092918.0
15.0,59.0,15.0,25.0,-38.0,-21.0,7.0,20.0,1650820314114832.0
-22.0,-55.0,-24.0,-32.0,5.0,19.0,13.0,15.0,1650820314114832.0
-16.0,34.0,38.0,26.0,26.0,14.0,8.0,27.0,1650820314114832.0
50.0,-23.0,11.0,9.0,-15.0,-17.0,-21.0,-57.0,1650820314114832.0
40.0,53.0,4.0,-22.0,-14.0,-15.0,-29.0,-8.0,1650820314129015.0
-59.0,15.0,29.0,14.0,0.0,-1.0,24.0,38.0,1650820314129015.0
10.0,-8.0,-15.0,13.0,10.0,7.0,7.0,-77.0,1650820314137061.0
-17.0,1.0,-16.0,1.0,34.0,16.0,8.0,49.0,1650820314137061.0
-4.0,-32.0,0.0,-16.0,-66.0,-32.0,-9.0,-54.0,1650820314152323.0
-38.0,12.0,-3.0,17.0,63.0,12.0,-23.0,-33.0,1650820314152323.0
33.0,55.0,18.0,-6.0,-2.0,9.0,17.0,37.0,1650820314152323.0
-21.0,-31.0,-11.0,23.0,17.0,-14.0,-13.0,-15.0,1650820314152323.0
-29.0,-2.0,-14.0,8.0,-12.0,-10.0,27.0,-10.0,1650820314174333.0
-21.0,-34.0,-9.0,-17.0,-14.0,25.0,-10.0,-9.0,1650820314174333.0
-18.0,-57.0,-11.0,-22.0,77.0,47.0,15.0,31.0,1650820314175280.0
-18.0,23.0,12.0,2.0,-9.0,4.0,16.0,-18.0,1650820314175280.0
3.0,20.0,-15.0,-14.0,-33.0,-50.0,-47.0,-5.0,1650820314189226.0
17.0,37.0,2.0,6.0,-6.0,-5.0,13.0,-22.0,1650820314189226.0
63.0,-15.0,9.0,-3.0,3.0,-5.0,-12.0,42.0,1650820314197455.0
-101.0,-20.0,-20.0,-14.0,-48.0,-21.0,-19.0,-83.0,1650820314197455.0
29.0,-13.0,-6.0,-13.0,12.0,19.0,27.0,39.0,1650820314212874.0
-30.0,9.0,-8.0,15.0,3.0,-17.0,-27.0,5.0,1650820314212874.0
-8.0,7.0,10.0,8.0,-3.0,1.0,38.0,19.0,1650820314213883.0
110.0,-6.0,13.0,9.0,-21.0,-11.0,7.0,90.0,1650820314213883.0
17.0,-52.0,-8.0,-14.0,-5.0,-1.0,-19.0,-37.0,1650820314233973.0
-23.0,-30.0,-21.0,-8.0,-11.0,-2.0,-3.0,-69.0,1650820314233973.0
-7.0,-18.0,-5.0,-18.0,-29.0,-31.0,13.0,47.0,1650820314234969.0
-8.0,-27.0,22.0,56.0,90.0,37.0,12.0,44.0,1650820314234969.0
-12.0,85.0,17.0,-36.0,-4.0,18.0,-62.0,-59.0,1650820314248934.0
21.0,-17.0,15.0,2.0,-9.0,-6.0,27.0,63.0,1650820314248934.0
6.0,-12.0,-11.0,-15.0,-27.0,-19.0,1.0,23.0,1650820314257036.0
-13.0,35.0,-9.0,14.0,-16.0,-6.0,20.0,3.0,1650820314257036.0
-15.0,-24.0,1.0,18.0,31.0,17.0,6.0,-14.0,1650820314272334.0
44.0,40.0,10.0,-4.0,8.0,-2.0,-21.0,-1.0,1650820314272334.0
-77.0,-91.0,18.0,16.0,-29.0,-15.0,9.0,-7.0,1650820314272334.0
41.0,17.0,-12.0,-34.0,-3.0,8.0,-17.0,-15.0,1650820314272334.0
-41.0,-9.0,-6.0,9.0,-14.0,6.0,20.0,16.0,1650820314294005.0
84.0,79.0,23.0,4.0,10.0,7.0,22.0,36.0,1650820314294005.0
4.0,-44.0,-18.0,-1.0,1.0,-2.0,19.0,35.0,1650820314295006.0
-16.0,88.0,36.0,34.0,-1.0,4.0,-9.0,-8.0,1650820314295006.0
-18.0,-37.0,-14.0,-41.0,-31.0,-17.0,-6.0,-44.0,1650820314308810.0
8.0,-13.0,-3.0,7.0,8.0,4.0,51.0,93.0,1650820314308810.0
-37.0,27.0,-12.0,2.0,22.0,-4.0,-83.0,-118.0,1650820314317383.0
-14.0,-25.0,24.0,-3.0,-47.0,-12.0,17.0,69.0,1650820314317383.0
14.0,61.0,17.0,44.0,43.0,13.0,-13.0,-30.0,1650820314332351.0
-4.0,-61.0,-39.0,-18.0,43.0,17.0,7.0,-6.0,1650820314332351.0
4.0,13.0,-2.0,9.0,0.0,8.0,7.0,-23.0,1650820314332351.0
12.0,-15.0,-27.0,-17.0,-22.0,-5.0,-8.0,43.0,1650820314332351.0
4.0,40.0,19.0,14.0,-7.0,-9.0,21.0,-18.0,1650820314354827.0
-34.0,-48.0,0.0,-22.0,-19.0,-20.0,-13.0,-2.0,1650820314354827.0
12.0,11.0,4.0,22.0,18.0,3.0,-3.0,-37.0,1650820314354827.0
-35.0,-17.0,-47.0,-36.0,22.0,23.0,-3.0,3.0,1650820314354827.0
36.0,13.0,-17.0,-18.0,-16.0,4.0,1.0,-40.0,1650820314368860.0
-18.0,24.0,1.0,-2.0,-10.0,-13.0,-20.0,6.0,1650820314368860.0
-9.0,60.0,6.0,2.0,-41.0,-27.0,-9.0,15.0,1650820314377380.0
-2.0,-53.0,-1.0,-10.0,30.0,1.0,-11.0,-20.0,1650820314377380.0
19.0,40.0,1.0,10.0,11.0,8.0,33.0,33.0,1650820314392287.0
-37.0,-58.0,-18.0,-5.0,-5.0,-9.0,-67.0,-59.0,1650820314392287.0
16.0,4.0,-15.0,-27.0,-23.0,-4.0,41.0,26.0,1650820314392287.0
-25.0,37.0,7.0,15.0,15.0,4.0,-12.0,30.0,1650820314392287.0
76.0,-49.0,-14.0,-2.0,4.0,-8.0,-2.0,2.0,1650820314422977.0
-15.0,66.0,27.0,31.0,42.0,21.0,17.0,-29.0,1650820314422977.0
-10.0,-48.0,27.0,15.0,1.0,11.0,-1.0,3.0,1650820314422977.0
2.0,-19.0,0.0,-3.0,-46.0,-11.0,-24.0,-73.0,1650820314422977.0
-8.0,-11.0,5.0,26.0,63.0,17.0,46.0,120.0,1650820314428903.0
33.0,41.0,26.0,-1.0,-30.0,4.0,33.0,7.0,1650820314428903.0
-43.0,-67.0,-32.0,-7.0,-9.0,-11.0,-7.0,27.0,1650820314436919.0
-48.0,-1.0,-1.0,-25.0,-16.0,-12.0,-21.0,-89.0,1650820314436919.0
13.0,14.0,14.0,6.0,-49.0,-22.0,-18.0,6.0,1650820314451846.0
25.0,-1.0,-3.0,2.0,4.0,6.0,2.0,-6.0,1650820314451846.0
46.0,39.0,1.0,12.0,24.0,19.0,46.0,51.0,1650820314452783.0
-43.0,13.0,15.0,7.0,1.0,0.0,-23.0,-27.0,1650820314452783.0
-28.0,-24.0,-8.0,-9.0,-19.0,-5.0,21.0,21.0,1650820314473989.0
-7.0,14.0,-25.0,-1.0,17.0,13.0,17.0,63.0,1650820314473989.0
31.0,4.0,6.0,-10.0,-45.0,-27.0,-16.0,-66.0,1650820314474989.0
-7.0,-3.0,14.0,32.0,36.0,7.0,-17.0,-6.0,1650820314474989.0
31.0,-22.0,-4.0,-6.0,17.0,18.0,15.0,9.0,1650820314497241.0
-64.0,-30.0,-37.0,-19.0,-9.0,0.0,-22.0,-64.0,1650820314497241.0
-24.0,21.0,13.0,-9.0,8.0,6.0,-4.0,12.0,1650820314498174.0
28.0,23.0,-17.0,-8.0,-32.0,-42.0,-22.0,0.0,1650820314498174.0
-19.0,-60.0,-8.0,20.0,13.0,3.0,-6.0,-2.0,1650820314512202.0
-47.0,-20.0,-23.0,-28.0,-16.0,0.0,-2.0,-8.0,1650820314512202.0
21.0,39.0,21.0,18.0,-21.0,-6.0,11.0,17.0,1650820314512202.0
34.0,62.0,26.0,-25.0,36.0,26.0,17.0,2.0,1650820314512202.0
-47.0,-18.0,-21.0,-14.0,-13.0,-16.0,-24.0,-16.0,1650820314534008.0
101.0,-13.0,15.0,27.0,1.0,-8.0,14.0,28.0,1650820314534008.0
-27.0,-1.0,-19.0,-20.0,16.0,5.0,-24.0,-16.0,1650820314535019.0
-18.0,-12.0,-14.0,-6.0,-22.0,-9.0,33.0,10.0,1650820314535019.0
77.0,60.0,40.0,33.0,15.0,16.0,14.0,49.0,1650820314557972.0
-25.0,8.0,-2.0,0.0,-12.0,0.0,-6.0,5.0,1650820314557972.0
8.0,-14.0,-9.0,-14.0,16.0,4.0,-14.0,-19.0,1650820314557972.0
-2.0,-19.0,-24.0,-4.0,-13.0,-8.0,19.0,68.0,1650820314557972.0
-79.0,13.0,-5.0,-2.0,-18.0,-21.0,-60.0,-56.0,1650820314571924.0
40.0,-1.0,18.0,5.0,-20.0,-4.0,32.0,-8.0,1650820314571924.0
-56.0,-24.0,-6.0,-34.0,-1.0,5.0,25.0,25.0,1650820314572856.0
14.0,15.0,14.0,16.0,47.0,25.0,-17.0,-31.0,1650820314572856.0
-29.0,-25.0,-12.0,24.0,13.0,13.0,1.0,41.0,1650820314594838.0
-7.0,13.0,-14.0,-18.0,-31.0,-15.0,-11.0,-27.0,1650820314594838.0
28.0,7.0,-13.0,-3.0,18.0,-8.0,-2.0,18.0,1650820314594838.0
-12.0,-28.0,19.0,5.0,-22.0,-14.0,-10.0,-21.0,1650820314594838.0
19.0,62.0,-4.0,-45.0,-22.0,-4.0,3.0,-33.0,1650820314617999.0
-17.0,-61.0,2.0,15.0,42.0,29.0,-1.0,28.0,1650820314617999.0
-3.0,2.0,-1.0,14.0,20.0,11.0,13.0,-7.0,1650820314618816.0
-38.0,-29.0,-14.0,-6.0,-36.0,-26.0,-23.0,-32.0,1650820314618816.0
52.0,6.0,8.0,-6.0,-12.0,-19.0,-12.0,17.0,1650820314631850.0
22.0,60.0,27.0,3.0,1.0,0.0,24.0,12.0,1650820314631850.0
17.0,34.0,-8.0,-6.0,6.0,-3.0,-30.0,-51.0,1650820314632808.0
-21.0,-21.0,-2.0,-3.0,1.0,9.0,43.0,86.0,1650820314632808.0
16.0,-5.0,-45.0,-21.0,-21.0,-13.0,-31.0,-39.0,1650820314654011.0
1.0,-52.0,3.0,-12.0,-21.0,-20.0,-4.0,-29.0,1650820314654011.0
-5.0,9.0,11.0,28.0,-5.0,-7.0,-34.0,-32.0,1650820314655011.0
29.0,29.0,12.0,31.0,27.0,23.0,30.0,20.0,1650820314655011.0
7.0,28.0,11.0,-27.0,34.0,59.0,36.0,12.0,1650820314677972.0
-21.0,-41.0,-30.0,-11.0,14.0,4.0,-27.0,1.0,1650820314677972.0
18.0,6.0,-1.0,9.0,-2.0,13.0,32.0,36.0,1650820314677972.0
37.0,12.0,-15.0,-20.0,-30.0,-21.0,5.0,-3.0,1650820314677972.0
-54.0,-29.0,3.0,7.0,-12.0,-29.0,-25.0,-21.0,1650820314699965.0
25.0,5.0,29.0,6.0,-51.0,-36.0,-33.0,-21.0,1650820314699965.0
-12.0,-24.0,-20.0,1.0,34.0,12.0,-13.0,-8.0,1650820314700917.0
5.0,-2.0,-7.0,-5.0,-14.0,-5.0,12.0,66.0,1650820314700917.0
-1.0,28.0,38.0,27.0,-20.0,-14.0,7.0,-79.0,1650820314714017.0
13.0,31.0,-13.0,-16.0,14.0,-2.0,-5.0,22.0,1650820314714017.0
5.0,-19.0,9.0,-3.0,-3.0,3.0,21.0,26.0,1650820314715017.0
53.0,32.0,-25.0,-32.0,7.0,28.0,-5.0,-19.0,1650820314715017.0
-56.0,41.0,20.0,28.0,18.0,0.0,9.0,16.0,1650820314737163.0
-7.0,-58.0,-25.0,-1.0,2.0,-2.0,-11.0,-22.0,1650820314737163.0
-19.0,-11.0,3.0,-7.0,-4.0,26.0,11.0,63.0,1650820314738156.0
12.0,-2.0,7.0,18.0,12.0,16.0,-27.0,-123.0,1650820314738156.0
20.0,4.0,-23.0,-14.0,-1.0,-1.0,47.0,127.0,1650820314752182.0
26.0,32.0,28.0,11.0,6.0,-13.0,25.0,8.0,1650820314752182.0
-18.0,17.0,-15.0,-16.0,-9.0,-10.0,-8.0,-15.0,1650820314753121.0
18.0,14.0,24.0,6.0,-14.0,-14.0,-37.0,6.0,1650820314753121.0
-21.0,-33.0,-32.0,-18.0,11.0,-2.0,-18.0,-42.0,1650820314774628.0
-38.0,-3.0,-34.0,-32.0,-30.0,-15.0,-7.0,-3.0,1650820314774628.0
40.0,23.0,16.0,8.0,-25.0,-28.0,-13.0,-19.0,1650820314775567.0
-10.0,10.0,10.0,-3.0,-14.0,-14.0,3.0,-8.0,1650820314775567.0
23.0,18.0,-3.0,19.0,14.0,9.0,0.0,-10.0,1650820314796905.0
-24.0,-65.0,-9.0,10.0,44.0,20.0,7.0,38.0,1650820314796905.0
-16.0,31.0,6.0,-7.0,-5.0,-1.0,-17.0,-46.0,1650820314797893.0
-1.0,-34.0,-28.0,-26.0,-39.0,-22.0,4.0,8.0,1650820314797893.0
16.0,-4.0,36.0,20.0,49.0,21.0,-3.0,23.0,1650820314811932.0
-8.0,30.0,2.0,20.0,13.0,21.0,16.0,87.0,1650820314811932.0
-15.0,-28.0,3.0,11.0,10.0,16.0,33.0,-95.0,1650820314812890.0
58.0,32.0,8.0,-7.0,0.0,-12.0,-40.0,18.0,1650820314812890.0
-14.0,-36.0,7.0,-11.0,-26.0,-12.0,36.0,18.0,1650820314834837.0
27.0,70.0,16.0,19.0,0.0,-2.0,-20.0,-2.0,1650820314834837.0
-25.0,-95.0,-19.0,-29.0,-6.0,-8.0,2.0,20.0,1650820314834837.0
-19.0,0.0,7.0,3.0,6.0,3.0,-12.0,-28.0,1650820314834837.0
1.0,-35.0,-21.0,13.0,-34.0,-20.0,-25.0,-27.0,1650820314856883.0
-4.0,65.0,11.0,-43.0,-24.0,5.0,6.0,-28.0,1650820314856883.0
16.0,-3.0,7.0,20.0,32.0,1.0,-5.0,33.0,1650820314857884.0
-13.0,-29.0,17.0,5.0,30.0,26.0,26.0,-10.0,1650820314857884.0
28.0,-15.0,-12.0,-1.0,-23.0,-15.0,-26.0,-11.0,1650820314872329.0
-10.0,33.0,1.0,-9.0,15.0,11.0,8.0,23.0,1650820314872329.0
22.0,2.0,15.0,28.0,-22.0,-25.0,-17.0,-3.0,1650820314872329.0
-12.0,-39.0,-16.0,-9.0,6.0,6.0,29.0,50.0,1650820314872329.0
10.0,-8.0,6.0,5.0,26.0,39.0,28.0,-1.0,1650820314894876.0
-14.0,37.0,10.0,14.0,19.0,7.0,-4.0,-31.0,1650820314894876.0
-13.0,-16.0,-23.0,-14.0,-41.0,-23.0,-9.0,4.0,1650820314894876.0
1.0,20.0,-25.0,0.0,12.0,-9.0,2.0,-13.0,1650820314894876.0
18.0,44.0,-8.0,-29.0,-13.0,-12.0,21.0,107.0,1650820314917130.0
19.0,7.0,13.0,4.0,-19.0,1.0,-27.0,-90.0,1650820314917130.0
25.0,-38.0,2.0,28.0,38.0,25.0,20.0,79.0,1650820314917130.0
-44.0,-26.0,-39.0,-21.0,-44.0,-37.0,17.0,0.0,1650820314917130.0
-46.0,-6.0,3.0,-5.0,16.0,22.0,1.0,3.0,1650820314932210.0
-17.0,-3.0,-8.0,14.0,44.0,28.0,-1.0,42.0,1650820314932210.0
17.0,65.0,21.0,23.0,-17.0,-15.0,2.0,-38.0,1650820314932210.0
0.0,-25.0,-3.0,-15.0,-10.0,-24.0,-19.0,-4.0,1650820314932210.0
-3.0,-16.0,5.0,4.0,13.0,21.0,8.0,-18.0,1650820314954435.0
21.0,-29.0,-22.0,16.0,-18.0,1.0,2.0,5.0,1650820314954435.0
-22.0,63.0,-2.0,-6.0,36.0,16.0,-16.0,-48.0,1650820314955435.0
-5.0,-8.0,18.0,15.0,-15.0,-1.0,9.0,12.0,1650820314955435.0
-17.0,19.0,22.0,4.0,-32.0,-40.0,-32.0,-68.0,1650820314976576.0
-40.0,-27.0,3.0,1.0,13.0,11.0,14.0,53.0,1650820314976576.0
72.0,-28.0,-15.0,-5.0,-6.0,-2.0,-6.0,-10.0,1650820314977575.0
-30.0,29.0,12.0,8.0,6.0,8.0,25.0,-12.0,1650820314977575.0
7.0,4.0,32.0,19.0,9.0,-3.0,5.0,87.0,1650820314991604.0
97.0,-3.0,31.0,12.0,16.0,13.0,-26.0,-63.0,1650820314991604.0
-57.0,-41.0,-23.0,-27.0,-52.0,-25.0,28.0,47.0,1650820314992536.0
-3.0,12.0,17.0,25.0,16.0,-14.0,-3.0,23.0,1650820314992536.0
-13.0,-2.0,-10.0,-13.0,-21.0,-13.0,10.0,25.0,1650820315014012.0
-4.0,74.0,15.0,37.0,34.0,41.0,4.0,-30.0,1650820315014012.0
18.0,-14.0,20.0,-17.0,53.0,74.0,-29.0,-23.0,1650820315015011.0
-1.0,-29.0,-11.0,9.0,27.0,26.0,-8.0,-32.0,1650820315015011.0
-3.0,-55.0,-27.0,-9.0,23.0,-1.0,-1.0,-5.0,1650820315037137.0
-19.0,-8.0,-34.0,-18.0,-80.0,-87.0,-18.0,-10.0,1650820315037137.0
9.0,42.0,7.0,-10.0,11.0,-7.0,12.0,2.0,1650820315038087.0
-1.0,4.0,-13.0,-9.0,-13.0,2.0,-7.0,16.0,1650820315038087.0
-11.0,18.0,-15.0,-9.0,-27.0,-20.0,-20.0,-55.0,1650820315052093.0
-18.0,7.0,-34.0,-27.0,-22.0,-27.0,-2.0,12.0,1650820315052093.0
34.0,31.0,-12.0,7.0,2.0,9.0,20.0,31.0,1650820315053026.0
21.0,-3.0,16.0,1.0,6.0,1.0,-20.0,9.0,1650820315053026.0
-14.0,22.0,7.0,8.0,3.0,6.0,19.0,3.0,1650820315074803.0
-12.0,-60.0,-3.0,-5.0,-1.0,-6.0,18.0,-7.0,1650820315074803.0
-6.0,88.0,13.0,-5.0,-3.0,-22.0,-28.0,-3.0,1650820315074803.0
41.0,-67.0,2.0,24.0,32.0,38.0,8.0,-28.0,1650820315074803.0
-77.0,-14.0,-24.0,-23.0,16.0,52.0,-4.0,-9.0,1650820315097050.0
12.0,-21.0,-9.0,0.0,-14.0,-17.0,-14.0,-22.0,1650820315097050.0
8.0,-26.0,19.0,15.0,30.0,-8.0,17.0,32.0,1650820315098008.0
4.0,10.0,-25.0,-12.0,-46.0,-42.0,-16.0,-17.0,1650820315098008.0
32.0,44.0,1.0,-8.0,6.0,5.0,-9.0,-22.0,1650820315111965.0
-2.0,-10.0,41.0,12.0,-9.0,6.0,17.0,12.0,1650820315111965.0
-33.0,-11.0,-8.0,-14.0,3.0,7.0,-5.0,-24.0,1650820315112896.0
-8.0,13.0,14.0,1.0,-6.0,-4.0,-10.0,34.0,1650820315112896.0
33.0,-37.0,-8.0,-5.0,-15.0,-12.0,12.0,-16.0,1650820315133946.0
-47.0,-5.0,-17.0,-11.0,-5.0,-5.0,-2.0,48.0,1650820315133946.0
-9.0,19.0,-7.0,-4.0,-26.0,-22.0,-26.0,-94.0,1650820315134946.0
5.0,-4.0,1.0,3.0,27.0,22.0,8.0,10.0,1650820315134946.0
11.0,5.0,-4.0,-8.0,-12.0,-15.0,-5.0,-18.0,1650820315157297.0
57.0,23.0,18.0,3.0,-7.0,-16.0,23.0,13.0,1650820315157297.0
6.0,48.0,2.0,19.0,29.0,43.0,27.0,63.0,1650820315157297.0
-72.0,-57.0,-16.0,-33.0,10.0,21.0,-46.0,-49.0,1650820315157297.0
13.0,-50.0,14.0,20.0,-9.0,-11.0,-7.0,9.0,1650820315180306.0
-21.0,7.0,-13.0,-21.0,11.0,22.0,22.0,24.0,1650820315180306.0
12.0,-32.0,-17.0,18.0,-10.0,-15.0,-12.0,8.0,1650820315181235.0
25.0,71.0,10.0,6.0,16.0,-9.0,17.0,-3.0,1650820315181235.0
31.0,33.0,14.0,-4.0,-11.0,12.0,-17.0,22.0,1650820315194267.0
-13.0,4.0,0.0,-1.0,21.0,21.0,-1.0,-55.0,1650820315194267.0
-9.0,-9.0,21.0,6.0,-20.0,-10.0,3.0,6.0,1650820315195198.0
5.0,1.0,-22.0,-5.0,-27.0,-25.0,4.0,4.0,1650820315195198.0
-9.0,5.0,-17.0,-5.0,-13.0,-30.0,-15.0,-2.0,1650820315217273.0
3.0,-34.0,-12.0,4.0,28.0,20.0,4.0,23.0,1650820315217273.0
-16.0,-6.0,-11.0,-12.0,-16.0,-3.0,1.0,-10.0,1650820315217273.0
5.0,-10.0,-3.0,5.0,3.0,7.0,8.0,1.0,1650820315217273.0
-12.0,0.0,-3.0,-2.0,-1.0,-8.0,3.0,20.0,1650820315230806.0
-15.0,-44.0,-18.0,-17.0,-15.0,-11.0,-52.0,-74.0,1650820315230806.0
69.0,19.0,12.0,1.0,-2.0,-3.0,0.0,15.0,1650820315239831.0
-29.0,5.0,5.0,-1.0,-10.0,-9.0,12.0,35.0,1650820315239831.0
-18.0,11.0,9.0,13.0,22.0,32.0,17.0,-23.0,1650820315253847.0
-13.0,9.0,9.0,10.0,19.0,28.0,0.0,12.0,1650820315253847.0
-28.0,-31.0,0.0,-1.0,-21.0,-32.0,-22.0,29.0,1650820315254777.0
33.0,25.0,11.0,13.0,12.0,-4.0,31.0,15.0,1650820315254777.0
5.0,-4.0,-13.0,-18.0,7.0,34.0,1.0,-39.0,1650820315276718.0
-6.0,-15.0,-3.0,-10.0,12.0,16.0,8.0,13.0,1650820315276718.0
3.0,-7.0,-16.0,-10.0,18.0,15.0,6.0,-19.0,1650820315277716.0
11.0,16.0,28.0,31.0,-5.0,-6.0,-6.0,22.0,1650820315277716.0
-2.0,0.0,3.0,21.0,-3.0,-37.0,-12.0,24.0,1650820315290919.0
1.0,-22.0,-33.0,-27.0,-19.0,-22.0,-17.0,-23.0,1650820315290919.0
-44.0,-4.0,7.0,-24.0,-30.0,-13.0,4.0,-25.0,1650820315299902.0
27.0,6.0,4.0,-4.0,-19.0,-15.0,-39.0,-7.0,1650820315299902.0
3.0,-11.0,-7.0,1.0,10.0,22.0,53.0,27.0,1650820315314830.0
12.0,14.0,43.0,59.0,3.0,-11.0,-9.0,1.0,1650820315314830.0
-17.0,2.0,6.0,-11.0,24.0,26.0,23.0,-3.0,1650820315314830.0
42.0,3.0,-5.0,-11.0,-1.0,1.0,-10.0,-8.0,1650820315314830.0
7.0,-18.0,-46.0,-59.0,-17.0,-5.0,-28.0,-26.0,1650820315337301.0
4.0,15.0,25.0,43.0,6.0,3.0,25.0,38.0,1650820315337301.0
4.0,-9.0,21.0,27.0,12.0,-1.0,-4.0,11.0,1650820315337301.0
-18.0,3.0,34.0,-5.0,6.0,16.0,15.0,9.0,1650820315337301.0
-19.0,-12.0,-1.0,-2.0,-14.0,-23.0,-22.0,-22.0,1650820315351335.0
36.0,-4.0,-25.0,-3.0,2.0,-7.0,-4.0,-11.0,1650820315351335.0
-35.0,-6.0,-16.0,-11.0,0.0,2.0,-9.0,17.0,1650820315359921.0
-5.0,-1.0,-29.0,-41.0,-11.0,8.0,13.0,-9.0,1650820315359921.0
4.0,9.0,41.0,29.0,11.0,-11.0,-22.0,-10.0,1650820315374872.0
-11.0,-1.0,-13.0,-12.0,0.0,7.0,42.0,24.0,1650820315374872.0
15.0,-3.0,3.0,8.0,-13.0,1.0,4.0,-13.0,1650820315374872.0
-16.0,-4.0,-22.0,-5.0,8.0,6.0,-1.0,0.0,1650820315374872.0
21.0,0.0,12.0,8.0,9.0,2.0,1.0,-3.0,1650820315404932.0
-5.0,12.0,30.0,33.0,3.0,1.0,0.0,9.0,1650820315404932.0
-22.0,-8.0,-23.0,-60.0,-15.0,-17.0,-16.0,7.0,1650820315405933.0
18.0,0.0,-13.0,-7.0,-9.0,4.0,16.0,-15.0,1650820315405933.0
7.0,2.0,23.0,44.0,9.0,4.0,1.0,2.0,1650820315410946.0
-6.0,-1.0,-17.0,-28.0,-2.0,-2.0,-6.0,0.0,1650820315410946.0
4.0,2.0,23.0,47.0,-1.0,-3.0,-7.0,1.0,1650820315419905.0
-17.0,3.0,-1.0,-25.0,5.0,3.0,-3.0,7.0,1650820315419905.0
-23.0,-6.0,8.0,14.0,3.0,1.0,5.0,-10.0,1650820315434838.0
17.0,-10.0,-26.0,-41.0,-9.0,-1.0,4.0,36.0,1650820315434838.0
-3.0,26.0,-18.0,2.0,-1.0,1.0,-5.0,-49.0,1650820315434838.0
28.0,-13.0,3.0,-14.0,0.0,2.0,-2.0,5.0,1650820315434838.0
-30.0,-10.0,-8.0,28.0,10.0,-1.0,2.0,-11.0,1650820315457355.0
-30.0,19.0,20.0,0.0,-3.0,-7.0,0.0,-3.0,1650820315457355.0
13.0,-20.0,17.0,8.0,-2.0,4.0,14.0,23.0,1650820315457355.0
-8.0,0.0,6.0,25.0,-6.0,-8.0,-11.0,-6.0,1650820315457355.0
6.0,5.0,0.0,-18.0,4.0,0.0,-7.0,-5.0,1650820315479667.0
-4.0,-1.0,-6.0,-5.0,4.0,7.0,-2.0,-4.0,1650820315479667.0
13.0,3.0,6.0,13.0,9.0,6.0,4.0,5.0,1650820315480599.0
-11.0,6.0,-4.0,7.0,-8.0,-8.0,0.0,-9.0,1650820315480599.0
7.0,-4.0,-4.0,-15.0,-17.0,-14.0,-5.0,4.0,1650820315494714.0
-7.0,0.0,-6.0,-7.0,6.0,3.0,-11.0,-7.0,1650820315494714.0
15.0,3.0,2.0,6.0,15.0,12.0,3.0,7.0,1650820315494714.0
-1.0,4.0,15.0,23.0,10.0,3.0,1.0,6.0,1650820315494714.0
-3.0,-7.0,-31.0,-57.0,-26.0,-16.0,-10.0,-7.0,1650820315517331.0
-3.0,-8.0,-5.0,-1.0,-18.0,-11.0,0.0,-9.0,1650820315517331.0
-3.0,-5.0,-6.0,-6.0,-7.0,-6.0,0.0,3.0,1650820315517331.0
-12.0,4.0,14.0,14.0,0.0,-2.0,-6.0,1.0,1650820315517331.0
16.0,5.0,13.0,11.0,12.0,10.0,6.0,-2.0,1650820315540530.0
-3.0,4.0,9.0,7.0,4.0,5.0,1.0,-6.0,1650820315540530.0
-2.0,3.0,-3.0,-6.0,-4.0,-5.0,-13.0,5.0,1650820315540530.0
-16.0,-11.0,-16.0,-11.0,-3.0,4.0,13.0,5.0,1650820315540530.0
6.0,7.0,0.0,12.0,7.0,5.0,9.0,0.0,1650820315562947.0
-6.0,-2.0,-7.0,-16.0,-6.0,-8.0,-6.0,2.0,1650820315562947.0
42.0,-3.0,-11.0,2.0,-7.0,-6.0,-6.0,1.0,1650820315563594.0
-27.0,-4.0,-2.0,-6.0,-5.0,-5.0,-5.0,-8.0,1650820315563594.0
-1.0,6.0,0.0,-5.0,2.0,2.0,-4.0,-2.0,1650820315577330.0
0.0,3.0,22.0,16.0,3.0,-1.0,5.0,2.0,1650820315577330.0
1.0,-14.0,-5.0,-6.0,1.0,4.0,4.0,1.0,1650820315577330.0
3.0,-6.0,-34.0,-19.0,5.0,9.0,-2.0,1.0,1650820315577330.0
-9.0,4.0,4.0,16.0,3.0,-2.0,-8.0,-16.0,1650820315599587.0
7.0,1.0,1.0,-21.0,-12.0,-7.0,2.0,4.0,1650820315599587.0
-15.0,-10.0,-7.0,6.0,-7.0,-6.0,-5.0,2.0,1650820315600524.0
3.0,1.0,-11.0,-2.0,5.0,10.0,8.0,0.0,1650820315600524.0
-8.0,-7.0,11.0,4.0,9.0,2.0,-7.0,5.0,1650820315614695.0
4.0,13.0,9.0,10.0,-7.0,-11.0,-1.0,-2.0,1650820315614695.0
-6.0,-1.0,2.0,2.0,1.0,3.0,4.0,-4.0,1650820315614695.0
1.0,-3.0,0.0,1.0,2.0,2.0,-6.0,4.0,1650820315614695.0
14.0,2.0,-5.0,-6.0,-1.0,4.0,3.0,-1.0,1650820315637272.0
4.0,1.0,4.0,-5.0,-3.0,-3.0,-5.0,-6.0,1650820315637272.0
-1.0,-5.0,-21.0,-10.0,-14.0,-12.0,-6.0,1.0,1650820315637807.0
-6.0,8.0,18.0,16.0,2.0,-1.0,2.0,-5.0,1650820315637807.0
0.0,1.0,-2.0,1.0,3.0,2.0,1.0,4.0,1650820315659988.0
-13.0,-10.0,-4.0,3.0,3.0,1.0,-5.0,-3.0,1650820315659988.0
5.0,8.0,7.0,-3.0,-2.0,-2.0,-11.0,1.0,1650820315660917.0
17.0,9.0,-5.0,1.0,0.0,2.0,0.0,3.0,1650820315660917.0
5.0,5.0,3.0,-5.0,-4.0,0.0,8.0,-12.0,1650820315673949.0
-13.0,-9.0,-20.0,-10.0,0.0,0.0,-1.0,3.0,1650820315673949.0
-2.0,-3.0,8.0,-1.0,-3.0,-8.0,-15.0,-5.0,1650820315681929.0
1.0,2.0,2.0,4.0,1.0,-1.0,8.0,-3.0,1650820315681929.0
1.0,-2.0,-3.0,4.0,-2.0,-2.0,-2.0,5.0,1650820315696943.0
9.0,-1.0,-9.0,-10.0,-3.0,-2.0,-10.0,-6.0,1650820315696943.0
-4.0,12.0,10.0,5.0,-2.0,1.0,7.0,0.0,1650820315697919.0
5.0,-5.0,1.0,-13.0,-2.0,1.0,-6.0,-3.0,1650820315697919.0
-1.0,6.0,4.0,9.0,15.0,11.0,5.0,4.0,1650820315719927.0
-1.0,-14.0,2.0,-6.0,3.0,-1.0,-2.0,-1.0,1650820315719927.0
10.0,15.0,16.0,-3.0,-5.0,-2.0,7.0,-1.0,1650820315720914.0
-17.0,-22.0,-28.0,-6.0,-15.0,-18.0,-9.0,-4.0,1650820315720914.0
-4.0,0.0,-1.0,-12.0,-12.0,-7.0,8.0,12.0,1650820315733853.0
7.0,6.0,-2.0,12.0,10.0,9.0,-9.0,-8.0,1650820315733853.0
12.0,-6.0,-1.0,2.0,8.0,6.0,0.0,-1.0,1650820315734820.0
1.0,2.0,18.0,10.0,9.0,3.0,5.0,2.0,1650820315734820.0
-10.0,2.0,-1.0,-9.0,-5.0,-2.0,0.0,5.0,1650820315756940.0
16.0,-2.0,2.0,-1.0,-11.0,-10.0,1.0,-1.0,1650820315756940.0
-27.0,-2.0,-6.0,1.0,-5.0,-4.0,-4.0,-6.0,1650820315757892.0
3.0,1.0,10.0,7.0,6.0,10.0,7.0,3.0,1650820315757892.0
2.0,-8.0,-22.0,-17.0,-6.0,-8.0,-13.0,-3.0,1650820315779797.0
-6.0,-6.0,17.0,10.0,-3.0,-3.0,11.0,5.0,1650820315779797.0
1.0,-4.0,-11.0,-6.0,3.0,11.0,6.0,2.0,1650820315780728.0
1.0,8.0,8.0,10.0,9.0,5.0,-3.0,1.0,1650820315780728.0
2.0,1.0,7.0,7.0,8.0,7.0,0.0,-3.0,1650820315794749.0
-7.0,-4.0,-4.0,-2.0,-5.0,-2.0,-3.0,-3.0,1650820315794749.0
1.0,0.0,-5.0,0.0,-5.0,-8.0,0.0,0.0,1650820315794749.0
4.0,4.0,0.0,6.0,-6.0,-7.0,-3.0,-2.0,1650820315794749.0
-11.0,-10.0,-16.0,-15.0,-1.0,4.0,1.0,-3.0,1650820315816995.0
2.0,3.0,10.0,12.0,3.0,-4.0,-4.0,-1.0,1650820315816995.0
-1.0,-6.0,-12.0,-7.0,-2.0,-3.0,5.0,0.0,1650820315817995.0
-4.0,5.0,6.0,5.0,3.0,11.0,-4.0,-4.0,1650820315817995.0
13.0,0.0,14.0,4.0,3.0,1.0,2.0,3.0,1650820315841021.0
-10.0,-4.0,-17.0,-4.0,0.0,5.0,3.0,0.0,1650820315841021.0
-15.0,2.0,8.0,5.0,-1.0,-4.0,0.0,4.0,1650820315841990.0
29.0,-2.0,3.0,-5.0,-4.0,-11.0,1.0,-3.0,1650820315841990.0
-5.0,-2.0,-3.0,1.0,-5.0,-3.0,-10.0,-9.0,1650820315854034.0
3.0,10.0,-2.0,-4.0,-4.0,-5.0,-12.0,-5.0,1650820315854034.0
5.0,5.0,-6.0,-6.0,6.0,3.0,5.0,1.0,1650820315855048.0
-14.0,-9.0,2.0,6.0,2.0,9.0,9.0,0.0,1650820315855048.0
0.0,5.0,5.0,2.0,1.0,-6.0,-2.0,0.0,1650820315877330.0
-2.0,-2.0,-5.0,2.0,2.0,5.0,8.0,3.0,1650820315877330.0
-1.0,0.0,-15.0,-13.0,-8.0,-3.0,-6.0,-3.0,1650820315877330.0
-9.0,0.0,2.0,4.0,-1.0,0.0,2.0,3.0,1650820315877330.0
4.0,-2.0,0.0,5.0,-2.0,-5.0,-2.0,-1.0,1650820315900437.0
0.0,-10.0,-1.0,-12.0,-10.0,-6.0,4.0,2.0,1650820315900437.0
4.0,2.0,0.0,-1.0,12.0,10.0,1.0,1.0,1650820315900437.0
-4.0,3.0,-16.0,-8.0,-3.0,-2.0,-10.0,-5.0,1650820315900437.0
-1.0,3.0,2.0,2.0,-4.0,-3.0,3.0,1.0,1650820315914398.0
5.0,3.0,-10.0,-9.0,-7.0,-9.0,-1.0,-4.0,1650820315914398.0
2.0,-1.0,12.0,6.0,4.0,4.0,0.0,-3.0,1650820315915329.0
-15.0,3.0,5.0,-3.0,2.0,1.0,2.0,6.0,1650820315915329.0
38.0,3.0,0.0,9.0,3.0,-1.0,-3.0,-5.0,1650820315937152.0
-51.0,-1.0,-19.0,-23.0,-7.0,0.0,6.0,3.0,1650820315937152.0
0.0,-5.0,-2.0,1.0,-10.0,-10.0,-7.0,-6.0,1650820315938094.0
3.0,5.0,10.0,3.0,-3.0,-6.0,13.0,5.0,1650820315938094.0
-7.0,-5.0,-5.0,-1.0,3.0,9.0,5.0,3.0,1650820315960187.0
7.0,-3.0,-1.0,5.0,10.0,10.0,-3.0,-2.0,1650820315960187.0
0.0,0.0,-1.0,-1.0,4.0,2.0,-1.0,3.0,1650820315961143.0
-3.0,-4.0,-6.0,-7.0,-10.0,-10.0,-5.0,-9.0,1650820315961143.0
-12.0,-6.0,7.0,12.0,0.0,-2.0,2.0,11.0,1650820315974147.0
19.0,3.0,-2.0,-4.0,7.0,-1.0,-3.0,-7.0,1650820315974147.0
4.0,2.0,15.0,16.0,3.0,8.0,2.0,8.0,1650820315975078.0
4.0,-2.0,-20.0,-22.0,-6.0,-8.0,-13.0,-8.0,1650820315975078.0
-5.0,5.0,4.0,-2.0,-4.0,3.0,7.0,0.0,1650820315997297.0
2.0,-3.0,-1.0,5.0,-2.0,-5.0,-6.0,3.0,1650820315997297.0
0.0,3.0,-2.0,-2.0,-8.0,-5.0,10.0,4.0,1650820315997297.0
-1.0,-2.0,13.0,5.0,6.0,3.0,-8.0,-1.0,1650820315997297.0
2.0,1.0,-2.0,-3.0,11.0,9.0,6.0,-4.0,1650820316020347.0
-18.0,-13.0,3.0,8.0,7.0,4.0,-6.0,2.0,1650820316020347.0
4.0,-4.0,-8.0,-6.0,-9.0,-6.0,0.0,-5.0,1650820316021301.0
-1.0,-7.0,-10.0,0.0,-11.0,-9.0,-1.0,0.0,1650820316021301.0
-8.0,1.0,-2.0,-6.0,-3.0,-3.0,-1.0,-2.0,1650820316033588.0
5.0,0.0,13.0,9.0,2.0,2.0,-2.0,-1.0,1650820316033588.0
0.0,4.0,6.0,11.0,11.0,9.0,11.0,1.0,1650820316041638.0
-6.0,-28.0,-5.0,-6.0,5.0,3.0,-5.0,1.0,1650820316041638.0
2.0,4.0,7.0,-5.0,-8.0,-4.0,-3.0,0.0,1650820316057304.0
10.0,10.0,14.0,13.0,-2.0,-6.0,-5.0,-4.0,1650820316057304.0
-7.0,-2.0,-16.0,-10.0,-7.0,-6.0,-8.0,-1.0,1650820316057304.0
0.0,1.0,-3.0,-3.0,3.0,3.0,1.0,0.0,1650820316057304.0
0.0,-3.0,-8.0,-3.0,5.0,1.0,-5.0,1.0,1650820316087947.0
1.0,-1.0,12.0,6.0,-4.0,-1.0,9.0,2.0,1650820316087947.0
21.0,2.0,2.0,-1.0,-1.0,1.0,3.0,5.0,1650820316087947.0
-50.0,3.0,13.0,13.0,0.0,0.0,5.0,-1.0,1650820316087947.0
-1.0,-6.0,-16.0,-17.0,0.0,0.0,-1.0,-2.0,1650820316093810.0
6.0,0.0,9.0,6.0,2.0,5.0,3.0,1.0,1650820316093810.0
-5.0,-1.0,-10.0,-13.0,-1.0,-5.0,-4.0,-3.0,1650820316102359.0
15.0,5.0,-7.0,-3.0,-14.0,-13.0,-5.0,0.0,1650820316102359.0
-8.0,-3.0,7.0,9.0,4.0,3.0,3.0,2.0,1650820316117354.0
5.0,7.0,-3.0,-4.0,13.0,19.0,11.0,3.0,1650820316117354.0
-3.0,-2.0,4.0,11.0,3.0,1.0,-11.0,-3.0,1650820316117354.0
14.0,-3.0,-3.0,-10.0,-3.0,-2.0,3.0,3.0,1650820316117354.0
-11.0,5.0,14.0,9.0,-12.0,-12.0,-9.0,-5.0,1650820316140549.0
10.0,-3.0,-13.0,-12.0,-9.0,-12.0,-14.0,4.0,1650820316140549.0
-11.0,-12.0,-13.0,-6.0,4.0,5.0,1.0,-24.0,1650820316140549.0
7.0,9.0,8.0,9.0,14.0,14.0,15.0,5.0,1650820316140549.0
2.0,4.0,-1.0,-2.0,2.0,4.0,3.0,3.0,1650820316153581.0
-6.0,2.0,4.0,1.0,-4.0,-4.0,-6.0,-1.0,1650820316153581.0
-4.0,-1.0,-1.0,-4.0,-9.0,-9.0,-3.0,5.0,1650820316161560.0
5.0,-1.0,-4.0,-4.0,-2.0,-5.0,-6.0,-2.0,1650820316161560.0
4.0,-2.0,-1.0,-1.0,2.0,3.0,1.0,3.0,1650820316176651.0
-7.0,-5.0,1.0,4.0,-2.0,-3.0,-2.0,-3.0,1650820316176651.0
-2.0,1.0,2.0,-4.0,-3.0,-5.0,0.0,2.0,1650820316177582.0
4.0,-1.0,0.0,3.0,4.0,6.0,0.0,-1.0,1650820316177582.0
1.0,3.0,-1.0,-5.0,1.0,3.0,6.0,5.0,1650820316199741.0
1.0,6.0,-2.0,-1.0,-7.0,-8.0,-3.0,-2.0,1650820316199741.0
-4.0,4.0,-4.0,-1.0,-5.0,-7.0,-1.0,0.0,1650820316200672.0
33.0,13.0,1.0,-5.0,7.0,10.0,-6.0,0.0,1650820316200672.0
-49.0,-6.0,4.0,12.0,3.0,2.0,2.0,1.0,1650820316213705.0
16.0,3.0,-6.0,-5.0,4.0,7.0,5.0,-2.0,1650820316213705.0
0.0,1.0,4.0,3.0,-4.0,-3.0,-3.0,-2.0,1650820316221685.0
2.0,3.0,1.0,-1.0,-10.0,-10.0,-4.0,-1.0,1650820316221685.0
8.0,-1.0,-12.0,-10.0,-8.0,-10.0,-12.0,-6.0,1650820316236686.0
-1.0,-9.0,-1.0,-1.0,-3.0,-5.0,9.0,0.0,1650820316236686.0
-6.0,-5.0,9.0,4.0,2.0,4.0,0.0,0.0,1650820316237672.0
1.0,-1.0,-2.0,0.0,6.0,15.0,10.0,11.0,1650820316237672.0
7.0,4.0,-3.0,0.0,4.0,1.0,-3.0,-7.0,1650820316260282.0
-9.0,0.0,-1.0,2.0,3.0,0.0,-4.0,0.0,1650820316260282.0
5.0,-3.0,2.0,-1.0,-3.0,-7.0,-10.0,-3.0,1650820316261212.0
-14.0,-4.0,4.0,5.0,-2.0,-4.0,-1.0,1.0,1650820316261212.0
7.0,-2.0,-5.0,-7.0,-7.0,-3.0,3.0,-4.0,1650820316274178.0
-2.0,6.0,-1.0,-4.0,-3.0,-3.0,-5.0,-1.0,1650820316274178.0
2.0,1.0,-2.0,-1.0,-8.0,-4.0,3.0,6.0,1650820316282222.0
0.0,3.0,-2.0,1.0,-1.0,-6.0,-3.0,-6.0,1650820316282222.0
-6.0,-12.0,-8.0,0.0,14.0,17.0,6.0,8.0,1650820316297304.0
4.0,1.0,4.0,8.0,8.0,9.0,6.0,0.0,1650820316297304.0
-5.0,1.0,-6.0,-8.0,-2.0,0.0,1.0,4.0,1650820316297304.0
-11.0,-1.0,8.0,7.0,-4.0,-7.0,-3.0,-5.0,1650820316297304.0
15.0,2.0,1.0,-2.0,-7.0,-10.0,-7.0,-5.0,1650820316319925.0
-8.0,-4.0,-5.0,-3.0,0.0,0.0,1.0,1.0,1650820316319925.0
-1.0,-2.0,-3.0,-1.0,0.0,1.0,1.0,-2.0,1650820316320857.0
-3.0,-5.0,-4.0,-3.0,-3.0,-4.0,-5.0,-3.0,1650820316320857.0
4.0,1.0,-3.0,-3.0,-9.0,-9.0,-2.0,1.0,1650820316333889.0
-10.0,-1.0,9.0,6.0,-3.0,-9.0,-8.0,-2.0,1650820316333889.0
26.0,-7.0,-4.0,-4.0,20.0,24.0,10.0,1.0,1650820316341868.0
-27.0,-17.0,-14.0,2.0,9.0,12.0,6.0,1.0,1650820316341868.0
3.0,2.0,11.0,8.0,-3.0,-3.0,-1.0,0.0,1650820316364960.0
-4.0,3.0,-11.0,-14.0,-11.0,-10.0,-6.0,-5.0,1650820316364960.0
4.0,4.0,2.0,-3.0,-10.0,-14.0,-8.0,-4.0,1650820316365888.0
3.0,3.0,3.0,2.0,0.0,-2.0,-1.0,-2.0,1650820316365888.0
1.0,-1.0,3.0,2.0,-2.0,1.0,1.0,-2.0,1650820316379890.0
0.0,-2.0,-1.0,-1.0,-4.0,-5.0,-4.0,0.0,1650820316379890.0
-10.0,6.0,-3.0,-2.0,1.0,0.0,1.0,0.0,1650820316380876.0
8.0,-1.0,10.0,4.0,7.0,4.0,2.0,0.0,1650820316380876.0
-18.0,-6.0,-14.0,-1.0,12.0,7.0,8.0,17.0,1650820316393988.0
37.0,7.0,13.0,7.0,6.0,12.0,8.0,-10.0,1650820316393988.0
-6.0,-1.0,-12.0,-9.0,-4.0,0.0,-1.0,1.0,1650820316402038.0
1.0,1.0,2.0,3.0,-10.0,-12.0,-4.0,-5.0,1650820316402038.0
7.0,0.0,1.0,-2.0,-7.0,-10.0,-9.0,-2.0,1650820316417189.0
-13.0,-3.0,-4.0,-2.0,7.0,6.0,4.0,5.0,1650820316417189.0
-5.0,0.0,3.0,3.0,1.0,0.0,-1.0,0.0,1650820316417189.0
4.0,4.0,2.0,-6.0,-10.0,-11.0,-9.0,-3.0,1650820316417189.0
-1.0,-4.0,-2.0,-3.0,-1.0,-3.0,3.0,-2.0,1650820316439926.0
-5.0,-7.0,-6.0,4.0,7.0,6.0,0.0,4.0,1650820316439926.0
0.0,12.0,16.0,13.0,21.0,19.0,15.0,2.0,1650820316440873.0
-6.0,-15.0,-14.0,-4.0,4.0,7.0,-4.0,4.0,1650820316440873.0
6.0,-4.0,-8.0,-14.0,-5.0,0.0,2.0,-7.0,1650820316463099.0
-6.0,-3.0,-2.0,1.0,-14.0,-12.0,-7.0,-2.0,1650820316463099.0
-3.0,-3.0,-2.0,-2.0,-11.0,-11.0,-6.0,0.0,1650820316463099.0
1.0,7.0,2.0,0.0,2.0,-2.0,-1.0,1.0,1650820316463099.0
2.0,3.0,8.0,2.0,-6.0,-4.0,-5.0,-4.0,1650820316477069.0
-3.0,1.0,-3.0,-5.0,-4.0,-6.0,-1.0,1.0,1650820316477069.0
-4.0,-5.0,-1.0,2.0,5.0,5.0,4.0,2.0,1650820316478000.0
5.0,3.0,13.0,17.0,15.0,16.0,7.0,1.0,1650820316478000.0
0.0,-3.0,-14.0,-11.0,6.0,6.0,3.0,2.0,1650820316500177.0
6.0,6.0,-8.0,-15.0,-6.0,-3.0,-2.0,0.0,1650820316500177.0
-6.0,-18.0,-9.0,2.0,-8.0,-8.0,-3.0,-3.0,1650820316501106.0
1.0,3.0,-2.0,-6.0,-11.0,-12.0,-4.0,-4.0,1650820316501106.0
2.0,3.0,5.0,5.0,-4.0,-6.0,-3.0,-1.0,1650820316522947.0
-8.0,-2.0,-3.0,-3.0,4.0,3.0,1.0,2.0,1650820316522947.0
0.0,2.0,1.0,3.0,8.0,13.0,4.0,-1.0,1650820316523740.0
3.0,0.0,-4.0,-8.0,-1.0,-1.0,3.0,2.0,1650820316523740.0
7.0,-3.0,5.0,5.0,3.0,3.0,5.0,7.0,1650820316537330.0
-18.0,3.0,8.0,5.0,2.0,-2.0,-7.0,-23.0,1650820316537330.0
5.0,-10.0,-17.0,-10.0,-11.0,-7.0,-5.0,0.0,1650820316537330.0
3.0,3.0,5.0,4.0,-6.0,-9.0,-6.0,0.0,1650820316537330.0
-5.0,-8.0,-5.0,-10.0,0.0,0.0,4.0,-2.0,1650820316560551.0
6.0,0.0,3.0,4.0,5.0,8.0,10.0,10.0,1650820316560551.0
-1.0,2.0,4.0,7.0,3.0,2.0,-2.0,-1.0,1650820316560551.0
-5.0,2.0,-1.0,-4.0,3.0,4.0,1.0,-2.0,1650820316560551.0
4.0,6.0,4.0,5.0,-5.0,-7.0,-6.0,-1.0,1650820316582916.0
-3.0,3.0,-10.0,-2.0,-3.0,-3.0,-3.0,2.0,1650820316582916.0
2.0,-13.0,3.0,-1.0,-1.0,-4.0,-1.0,-3.0,1650820316582916.0
1.0,-8.0,-9.0,-13.0,-4.0,2.0,-1.0,3.0,1650820316582916.0
-1.0,6.0,7.0,10.0,3.0,0.0,1.0,-2.0,1650820316597359.0
2.0,-2.0,7.0,10.0,8.0,4.0,2.0,4.0,1650820316597359.0
-5.0,7.0,-2.0,-5.0,-4.0,-5.0,-1.0,-5.0,1650820316597359.0
-1.0,0.0,-1.0,-1.0,-5.0,-3.0,0.0,-2.0,1650820316597359.0
1.0,-1.0,-2.0,-5.0,0.0,1.0,-3.0,-3.0,1650820316619676.0
-3.0,-4.0,-1.0,-3.0,0.0,4.0,1.0,2.0,1650820316619676.0
-1.0,7.0,5.0,-2.0,-5.0,-6.0,-6.0,3.0,1650820316620609.0
-3.0,-3.0,-3.0,0.0,6.0,6.0,-1.0,0.0,1650820316620609.0
-4.0,0.0,-4.0,-1.0,4.0,6.0,3.0,-1.0,1650820316642629.0
1.0,-2.0,2.0,7.0,-1.0,2.0,-1.0,2.0,1650820316642629.0
-3.0,2.0,-3.0,-10.0,-3.0,-1.0,-2.0,-4.0,1650820316643588.0
-5.0,-2.0,8.0,11.0,-7.0,-8.0,-2.0,-3.0,1650820316643588.0
0.0,3.0,4.0,1.0,-7.0,-8.0,-5.0,-3.0,1650820316656881.0
-3.0,-7.0,2.0,0.0,1.0,-2.0,-4.0,-1.0,1650820316656881.0
-3.0,-3.0,-9.0,-9.0,-1.0,3.0,-1.0,-1.0,1650820316657881.0
10.0,5.0,0.0,-5.0,1.0,0.0,2.0,0.0,1650820316657881.0
1.0,-8.0,5.0,9.0,0.0,-1.0,-5.0,-4.0,1650820316680033.0
4.0,-1.0,-1.0,-4.0,-6.0,-5.0,6.0,0.0,1650820316680033.0
-3.0,0.0,5.0,6.0,9.0,4.0,2.0,2.0,1650820316680964.0
-1.0,-2.0,-3.0,-4.0,-2.0,-1.0,1.0,-1.0,1650820316680964.0
1.0,4.0,0.0,0.0,3.0,-1.0,-4.0,-1.0,1650820316703056.0
1.0,1.0,6.0,1.0,1.0,1.0,3.0,11.0,1650820316703056.0
-2.0,2.0,-4.0,3.0,-2.0,-4.0,0.0,-7.0,1650820316703056.0
0.0,-3.0,-18.0,-14.0,-5.0,-4.0,2.0,-1.0,1650820316703056.0
-1.0,-1.0,0.0,2.0,1.0,1.0,-2.0,-1.0,1650820316717066.0
3.0,7.0,-2.0,-2.0,-2.0,-3.0,-3.0,-2.0,1650820316717066.0
5.0,7.0,3.0,5.0,0.0,1.0,1.0,8.0,1650820316717066.0
